timestamp,emg1,emg2,emg3,emg4,emg5,emg6,emg7,emg8,label
2.007877,1,-1,4,16,64,-3,-10,2,1
2.008278,-2,-2,5,29,1,6,15,1,1
2.020265,-4,-4,-5,-8,-4,2,9,2,1
2.020296,5,1,1,9,-1,-9,-5,0,1
2.023404,-12,-4,-6,-41,-4,2,-11,2,1
2.023414,0,-2,2,3,-18,0,-2,-1,1
2.043118,5,-1,1,5,8,-5,-2,0,1
2.043227,-7,1,2,11,13,-13,-3,-6,1
2.044519,1,0,-2,-1,-17,5,9,-1,1
2.044625,2,-4,-3,-6,21,-15,-5,3,1
2.056517,2,-2,-3,1,-11,-12,-1,0,1
2.056537,-6,0,1,5,12,0,-1,-2,1
2.067005,1,0,-4,-5,-16,5,10,-2,1
2.067012,0,0,-2,-5,-7,-11,0,-2,1
2.080272,0,1,2,-2,-9,2,-1,-2,1
2.080296,-5,-1,0,3,6,0,-14,2,1
2.081675,-2,-3,0,3,-2,0,1,-4,1
2.081690,0,-3,-2,-5,-4,-13,28,-3,1
2.103724,1,0,-1,0,3,0,-31,0,1
2.103731,-3,-1,-1,8,15,-2,4,-1,1
2.104034,-3,-1,-4,-1,-10,1,7,4,1
2.104041,0,-1,-4,1,-2,0,-17,-2,1
2.116850,-1,-8,-6,-6,-6,-5,13,-3,1
2.116890,-2,1,-11,-1,-7,-9,2,-2,1
2.126376,-4,-1,45,0,-10,2,-38,-10,1
2.126391,0,0,-8,-6,-2,1,10,0,1
2.140414,2,2,-9,2,7,0,2,1,1
2.140437,2,48,-47,-7,-6,-18,-43,0,1
2.141831,-11,-82,60,22,13,18,33,-5,1
2.141840,3,6,-26,-4,6,-3,-10,-2,1
2.162658,-4,-5,6,-2,-6,-4,6,1,1
2.162681,3,49,-39,0,2,-3,4,4,1
2.164741,0,61,-57,-15,-12,-8,-42,-3,1
2.164752,-4,-28,56,12,5,-2,13,2,1
2.176807,-2,-69,-19,2,8,16,18,-4,1
2.176844,7,51,-63,-7,1,-3,-4,5,1
2.186923,-4,-44,27,-1,-3,-13,-20,1,1
2.186929,-3,-63,-27,-10,2,10,2,-9,1
2.200094,-1,41,-6,-4,-17,-8,21,8,1
2.200119,-4,33,-44,-1,-2,-6,7,5,1
2.201523,0,-72,37,6,3,11,14,-9,1
2.201576,3,30,-47,-12,-4,-11,-36,2,1
2.222832,1,59,-41,1,7,-6,3,-3,1
2.222865,-6,-29,83,5,-4,13,23,-13,1
2.224690,5,68,-48,-9,-11,-9,8,7,1
2.224697,-7,-4,22,5,-2,-3,-3,2,1
2.236582,-5,61,-15,2,13,1,-59,-2,1
2.236613,9,-79,36,5,4,4,32,4,1
2.245948,-2,38,-89,-13,-20,-9,-49,-14,1
2.245955,-7,-49,42,10,19,8,60,10,1
2.260383,3,71,46,-1,-10,-15,-48,-5,1
2.260449,-6,-22,25,8,21,-2,-15,-10,1
2.261662,7,-128,22,9,6,38,87,3,1
2.261757,10,87,-66,-23,-21,2,-61,-6,1
2.283334,-4,-9,-80,-12,-15,-22,48,11,1
2.283364,-2,2,93,13,7,11,-10,-2,1
2.285729,26,4,-28,-4,3,-15,11,-3,1
2.285734,-31,4,-17,-2,0,-2,-18,-4,1
2.296262,16,-38,13,0,2,9,15,0,1
2.296285,-28,21,-15,-10,-9,-6,-14,-4,1
2.307713,4,104,-49,-3,3,-9,12,-2,1
2.307721,-2,-76,24,5,-3,-4,20,-6,1
2.320300,-7,5,34,7,8,-4,-39,-3,1
2.320322,17,-73,-42,-3,-6,8,-3,-4,1
2.322586,-18,-21,13,-9,-12,-3,21,13,1
2.322602,-2,41,-21,6,7,4,-38,-3,1
2.342800,11,20,-76,-16,-17,-21,7,2,1
2.342839,-27,59,17,3,6,-5,-33,9,1
2.349138,17,-56,74,9,8,8,29,-4,1
2.349167,63,-66,-18,-2,3,-9,-16,-3,1
2.356548,73,-65,20,9,1,6,25,1,1
2.356573,-61,22,-40,-8,-4,14,-18,-11,1
2.366548,14,-24,-14,-3,3,-10,12,5,1
2.366556,-103,48,40,6,-17,23,13,4,1
2.379561,-122,-3,15,0,-2,-9,-9,-12,1
2.379585,-107,1,2,-2,-4,1,43,-2,1
2.386665,39,20,-13,10,19,2,-31,5,1
2.386696,113,4,-3,-4,-9,-15,10,8,1
2.402954,127,-20,-6,-4,-8,6,-9,2,1
2.402976,51,80,-128,-27,2,-16,7,13,1
2.405106,56,-41,92,67,37,-12,0,-6,1
2.405117,-5,40,-119,-25,-36,34,-52,-4,1
2.416335,-128,7,-33,3,10,3,44,-4,1
2.416343,53,-69,-17,-8,-27,-8,3,-12,1
2.426348,68,55,-47,-20,-9,-20,-84,0,1
2.426355,127,-52,17,7,8,-32,12,13,1
2.440265,127,-39,-4,1,6,23,35,5,1
2.440293,-46,-60,34,0,1,-1,-22,-7,1
2.441858,-119,28,-9,-12,-10,0,24,-3,1
2.441868,-128,3,10,11,20,-5,2,-8,1
2.463632,-128,52,-106,-26,-15,-4,-40,0,1
2.463641,8,-39,127,41,16,25,-9,0,1
2.464193,-101,14,-117,-18,-12,-6,-11,-2,1
2.464202,-91,27,-48,-12,-32,-15,36,-13,1
2.478463,-29,14,17,9,8,10,3,-7,1
2.478473,13,-24,-20,-2,-11,-31,7,4,1
2.487010,-20,24,17,-4,-13,11,-8,2,1
2.487017,-15,-15,30,3,22,12,15,3,1
2.500347,77,85,18,2,-3,-25,3,0,1
2.500363,33,17,-29,-1,1,14,-46,-4,1
2.501928,-17,-67,84,-4,1,20,-8,-6,1
2.502199,-9,41,16,1,4,-15,36,-4,1
2.524507,-41,-47,12,-1,-5,12,-35,-2,1
2.524513,0,8,-36,-2,9,-7,17,6,1
2.524517,-8,98,-93,-17,-11,-19,7,8,1
2.524520,45,-63,117,8,-9,15,-50,-13,1
2.536876,-1,-36,6,3,5,3,7,-2,1
2.536902,7,5,-5,0,4,5,14,-2,1
2.546417,-9,19,-63,-5,10,-12,-23,2,1
2.546423,19,-37,-23,4,-11,-18,24,6,1
2.559929,18,-4,-4,-5,-11,10,0,-2,1
2.559963,-1,-3,-25,-10,-13,-16,-22,-6,1
2.566249,-3,-19,-4,-1,4,19,24,5,1
2.566268,-22,36,-55,-6,18,2,-15,5,1
2.582755,0,-45,34,8,1,-3,11,1,1
2.582776,3,-18,0,2,1,-1,23,1,1
2.584868,-14,34,-19,-6,2,8,-9,-5,1
2.584878,-12,-41,18,4,-1,-21,-22,5,1
2.596417,20,34,7,-10,-16,0,-9,-18,1
2.596442,10,28,-21,-9,-2,0,-1,-3,1
2.607728,-2,-15,-11,-6,-6,-3,16,-3,1
2.607736,-18,17,-45,-5,-1,-11,-7,5,1
2.619435,-20,-38,16,5,15,4,6,8,1
2.619452,0,-29,-6,-5,-3,4,8,1,1
2.626671,6,3,4,1,-9,-5,-15,-8,1
2.626708,-4,10,0,5,18,14,21,-3,1
2.643143,-8,-9,9,1,-6,1,-27,6,1
2.643186,15,-3,7,-1,0,3,16,0,1
2.645772,-1,16,22,-1,-8,-7,21,4,1
2.645779,2,18,-4,2,0,0,-12,-4,1
2.665822,-16,-27,10,5,13,5,-6,-1,1
2.665851,9,2,-1,-3,-4,-9,17,-1,1
2.667035,2,58,-27,1,3,3,-7,1,1
2.667068,17,-83,74,4,-6,3,13,-1,1
2.679515,-12,39,-37,0,8,22,-21,-2,1
2.679537,7,36,41,-1,-12,-24,20,4,1
2.686691,20,-17,-20,-8,-10,3,33,-5,1
2.686721,-3,47,-42,-11,-3,-13,-7,3,1
2.702761,-6,-19,-5,-1,-2,-5,-1,-8,1
2.702783,-29,-25,-18,-4,25,56,21,11,1
2.704083,26,-34,26,6,-25,-51,-13,-10,1
2.704116,-6,29,-40,-9,-2,-6,-13,-10,1
2.725900,-9,-25,-4,-3,-4,-12,13,-2,1
2.725910,-13,11,-46,-5,2,-3,-25,-2,1
2.726662,-8,-14,15,1,9,11,-1,4,1
2.726671,-2,-10,1,1,5,8,10,4,1
2.740740,-6,25,-3,-2,-3,-9,-3,-2,1
2.740747,5,-12,13,4,-1,-3,-1,-5,1
2.746329,-4,-23,8,-1,7,20,-20,3,1
2.746353,3,16,-10,1,-6,-11,-28,-13,1
2.762618,-8,59,-33,-7,4,-22,45,-5,1
2.762641,21,-73,54,11,-10,19,-28,13,1
2.764325,0,26,-25,-2,-3,-13,-6,-8,1
2.764343,-6,68,-5,-3,3,0,5,5,1
2.786007,6,3,-6,-1,-2,5,-2,-1,1
2.786013,-2,2,-20,-3,-2,-12,-5,-6,1
2.786641,-5,-7,5,-1,2,3,-5,2,1
2.786700,1,2,-20,-2,3,15,9,4,1
2.801031,-3,-26,18,5,2,-4,-2,0,1
2.801038,-7,16,6,8,14,4,17,2,1
2.806677,0,18,-47,-13,-25,-20,-22,-11,1
2.806707,6,-80,59,7,2,33,27,-2,1
2.822822,0,-21,9,-1,-8,-40,0,4,1
2.822844,-4,-3,-11,-4,-1,-4,-15,-12,1
2.824699,-8,2,-21,1,12,13,5,8,1
2.824708,4,6,7,0,-5,3,7,1,1
2.845220,3,-13,12,1,0,2,-16,1,1
2.845252,-2,10,-15,-4,-4,-3,6,2,1
2.847225,-3,-15,19,5,10,4,7,-2,1
2.847233,2,17,-15,-4,-9,-6,-6,1,1
2.859126,-15,8,-8,6,27,20,23,0,1
2.859164,18,-4,24,-8,-34,-41,1,-9,1
2.869702,-2,-12,12,1,-4,6,-12,5,1
2.869708,-12,59,-43,-9,8,-4,-2,-3,1
2.882950,6,-88,24,6,-6,23,-3,1,1
2.882969,-7,25,-9,-1,0,-2,5,-3,1
2.884093,-1,-8,13,-2,2,0,6,-4,1
2.884106,5,1,-25,-3,-1,-6,-11,-1,1
2.906820,-2,14,-1,-1,-3,10,3,2,1
2.906844,-3,3,-2,2,3,3,-4,2,1
2.908243,-3,-23,15,-1,-3,3,-3,1,1
2.908249,0,8,2,2,3,-9,0,-4,1
2.919061,0,-2,2,-5,-10,-2,-17,-2,1
2.919084,3,-11,-2,0,1,-1,16,2,1
2.930146,-4,46,6,-2,0,0,-5,1,1
2.930153,-7,-53,-3,0,2,2,1,-6,1
2.942909,1,5,19,-1,-3,-9,-3,-3,1
2.942934,-2,0,-19,-1,4,6,-31,-3,1
2.944416,-8,88,-53,-4,10,45,-13,5,1
2.944444,15,-102,97,10,-22,-76,41,-10,1
2.966968,2,48,-26,-6,-9,2,-12,-3,1
2.966999,-6,-3,-29,-3,0,-5,-14,-7,1
2.969541,-5,2,-31,-3,7,9,-1,1,1
2.969547,10,26,7,-1,0,18,10,6,1
2.978904,3,0,-22,-3,-4,-8,-10,0,1
2.978927,-3,-13,2,1,1,2,14,-2,1
2.988497,-2,-14,-1,0,0,-10,-11,-5,1
2.988503,-5,16,-10,-2,3,12,-4,1,1
3.004601,4,-18,30,4,2,2,10,-3,1
3.004607,-7,27,-10,-1,2,38,3,6,1
3.004610,5,-46,0,2,-9,-59,0,-2,1
3.004693,-2,19,-19,1,3,8,-21,-3,1
3.025368,-5,-4,-11,-3,2,10,6,3,1
3.025402,-1,20,-57,-4,0,11,13,1,1
3.027276,-1,-8,93,8,2,-29,4,1,1
3.027283,9,-41,-10,-4,-15,-1,-10,-9,1
3.039375,-8,23,-12,-4,-1,-12,-4,5,1
3.039410,-2,14,25,-1,4,21,-9,-11,1
3.047643,-3,-22,-5,-7,-11,-21,1,-4,1
3.047668,-4,28,-25,0,14,20,-7,4,1
3.062571,6,-9,9,-1,-14,-11,14,-2,1
3.062595,-5,15,36,1,2,21,-2,2,1
3.069199,13,-25,-10,-2,-10,-2,8,0,1
3.069232,-13,65,-45,-7,4,1,-32,-4,1
3.085858,-6,1,66,11,-1,5,23,0,1
3.085881,7,-24,-17,2,9,25,-5,7,1
3.086987,-2,40,-3,-2,-3,-34,-4,-15,1
3.087003,-8,5,-5,-1,3,33,8,13,1
3.099026,-2,39,-31,-3,1,-50,16,-3,1
3.099046,0,-21,-18,-3,-2,-29,-21,-5,1
3.108933,-24,46,28,-1,12,62,54,0,1
3.108943,32,-31,-75,-9,-34,-86,4,-2,1
3.122879,-2,-12,-43,-5,2,12,-8,8,1
3.122900,2,29,8,-1,-8,-26,-7,-5,1
3.124916,1,-95,-20,2,9,11,-4,1,1
3.124925,-14,43,24,1,13,28,5,-4,1
3.145592,2,-2,18,-1,-3,12,-7,-4,1
3.145600,1,-4,-14,-1,-2,-28,-5,1,1
3.146743,-13,87,-91,-2,29,61,-14,-1,1
3.146758,17,-104,89,4,-46,-73,0,11,1
3.160295,4,-10,-26,-3,-7,3,-52,-8,1
3.160313,-4,32,22,0,-2,-2,73,10,1
3.168663,4,-8,-18,-3,-7,6,-30,-18,1
3.168670,-12,7,6,2,17,31,1,-2,1
3.182709,0,58,-62,-8,-2,-20,-3,1,1
3.182726,-14,-44,70,9,2,0,1,2,1
3.184614,10,-34,-3,-1,-9,-9,3,4,1
3.184622,-5,54,-42,-5,8,11,-7,-6,1
3.207903,-4,-25,10,5,8,4,-9,0,1
3.207915,-7,44,-43,-13,-4,41,10,-5,1
3.207919,11,-40,33,2,-5,14,-2,4,1
3.207922,-6,4,14,4,2,-32,-15,-4,1
3.219514,-4,1,-23,-5,4,28,13,-3,1
3.219548,3,-28,7,3,-5,-28,-36,-9,1
3.228651,-7,9,5,-2,-2,9,4,5,1
3.228657,9,33,-33,-4,4,27,64,2,1
3.242990,-5,-43,32,-1,0,-3,-20,-3,1
3.243029,3,4,-10,-2,-3,-11,-7,-4,1
3.244916,-1,-16,12,1,-3,-19,-3,-3,1
3.244922,-14,42,-48,-5,6,10,-14,0,1
3.273384,4,9,30,1,-3,-1,18,-3,1
3.275101,0,40,-33,-4,4,-14,-33,-10,1
3.275110,-4,-16,34,7,-1,27,33,8,1
3.275114,5,-87,2,-2,-3,-2,-4,-6,1
3.278841,-9,40,-11,-3,3,4,9,6,1
3.278858,9,-29,-16,-7,-12,23,-17,-9,1
3.289568,0,27,-19,-5,-5,-62,-16,2,1
3.289577,-13,9,8,1,15,71,6,0,1
3.302945,5,6,3,6,-5,-78,1,6,1
3.302968,-5,-28,-4,-3,-6,-21,-14,-4,1
3.304351,2,-7,9,0,-4,3,3,0,1
3.304357,-3,10,20,2,1,2,-10,2,1
3.325206,0,-10,-19,-1,4,17,4,-3,1
3.325223,-2,2,6,4,4,0,2,5,1
3.327004,4,-9,-2,-1,-3,-2,-5,-5,1
3.327015,-8,12,-15,1,8,4,-3,1,1
3.339479,7,22,10,-1,-12,14,-3,-7,1
3.339533,6,-31,2,1,-2,-16,9,5,1
3.349107,0,8,9,-2,-3,9,0,-1,1
3.349119,-1,17,-22,-2,4,-12,-16,0,1
3.362862,-9,-41,-7,-4,3,22,8,-9,1
3.362885,2,53,89,14,6,-3,-9,4,1
3.364137,4,11,-21,-3,1,-5,-17,1,1
3.364152,-2,-31,11,-5,-7,5,-10,-10,1
3.386779,2,-19,12,3,-1,3,-3,2,1
3.389007,-4,-2,-30,-3,0,-3,23,2,1
3.389021,-1,-12,2,-1,2,6,9,1,1
3.389024,0,26,12,0,-5,-17,-6,-4,1
3.398981,-3,-16,-6,0,-3,13,-9,1,1
3.399005,-1,-17,-13,-1,5,-2,-1,2,1
3.409443,-1,10,2,-2,-5,-5,2,-2,1
3.409477,1,-3,-2,-2,-2,-5,-14,2,1
3.423011,-4,-4,-10,2,17,19,3,-3,1
3.423185,-2,100,-37,-14,-24,8,20,-2,1
3.424275,11,-65,34,5,-5,-8,-18,1,1
3.424292,3,46,-4,-1,-3,13,11,-8,1
3.445208,-5,-4,1,-1,-3,-8,-6,1,1
3.445228,-6,13,-27,-4,5,11,-6,-4,1
3.446563,-3,4,-8,-2,-3,-4,-1,-1,1
3.446571,-3,-21,10,-1,-1,-11,-5,6,1
3.458865,-1,12,-7,-3,0,11,-11,-5,1
3.458889,2,-39,-1,2,1,-12,6,0,1
3.468452,-4,10,-25,-1,-3,-5,11,1,1
3.468465,-1,-14,65,6,5,15,-7,-2,1
3.482657,3,6,-11,-6,-8,8,15,0,1
3.482673,-2,-7,-2,-2,-6,-15,-4,1,1
3.484105,-4,-17,-8,-1,7,7,4,-2,1
3.484120,-8,32,-47,-4,-1,32,-19,-2,1
3.505233,10,27,49,4,-4,-13,22,6,1
3.507865,6,-3,17,1,-18,-12,-11,-3,1
3.507873,-11,127,-105,-14,3,29,-2,8,1
3.508014,10,-118,87,32,1,10,0,-15,1
3.519050,-6,57,-67,-6,5,9,-13,-3,1
3.519076,-2,-6,-31,1,11,4,21,5,1
3.528716,3,45,-32,-4,-4,-28,-22,-10,1
3.528722,-11,2,57,-2,1,32,17,13,1
3.543992,2,-44,-1,-1,-9,-70,-6,-4,1
3.544007,-2,-16,9,2,1,2,3,-5,1
3.544320,-10,-23,25,3,4,30,5,0,1
3.544328,3,17,-39,-11,-9,-48,-8,9,1
3.565620,7,-7,18,-2,-10,-1,2,-5,1
3.565645,-4,-9,-4,-3,-6,-26,-5,1,1
3.567229,-2,-19,19,5,8,2,4,-2,1
3.567241,-1,78,-33,-10,-5,28,-5,-2,1
3.587896,5,-48,0,-3,-3,2,-12,0,1
3.587930,-4,24,-13,-4,4,10,-16,-9,1
3.590466,3,-31,27,2,-4,-11,5,2,1
3.590482,-11,22,-61,-6,13,19,-10,-2,1
3.603075,-6,17,51,3,-3,-39,28,2,1
3.603106,10,-28,1,-4,-13,-18,-6,-3,1
3.605971,-4,3,7,-2,-6,-9,-5,-9,1
3.605985,4,-14,-12,-3,-7,-29,8,3,1
3.625966,-11,9,-25,-1,12,56,-3,-1,1
3.627788,-5,-20,5,2,7,8,13,1,1
3.627797,4,-7,18,3,-3,-21,-6,2,1
3.627800,-2,68,-42,-8,-3,-7,-11,-3,1
3.647653,-3,-70,18,4,1,57,-4,9,1
3.650139,15,41,48,3,-4,-58,5,-9,1
3.650150,-3,-24,-16,-3,-4,10,-18,0,1
3.650154,-1,7,4,-2,-4,-13,10,-3,1
3.662161,0,29,-34,-4,0,2,-11,4,1
3.662186,-8,-5,-14,1,10,26,2,7,1
3.669403,-6,-3,12,2,9,35,24,0,1
3.669433,9,-11,8,-3,-18,-84,-9,1,1
3.685423,-3,22,-1,-5,-13,-20,-3,-7,1
3.685438,-5,-16,-10,-2,3,21,-4,1,1
3.686577,2,-7,10,-1,-1,-3,4,-3,1
3.686591,-4,-18,-4,0,5,15,12,4,1
3.707596,2,-1,-5,0,2,-2,-5,-7,1
3.707614,-5,-5,4,0,8,9,-9,-4,1
3.709535,0,33,-20,-5,-8,15,6,5,1
3.709547,7,-37,16,5,6,-13,28,-5,1
3.722119,5,-4,7,-3,-12,-53,-7,-3,1
3.722164,-7,-16,-4,0,3,24,-8,-7,1
3.728918,-2,26,-11,-1,-4,-41,-1,5,1
3.729120,-17,-3,-13,-5,13,52,10,2,1
3.746002,22,-39,-5,4,-10,13,0,-3,1
3.746013,-8,15,-32,-5,-3,-5,-12,-6,1
3.746606,4,-21,13,1,-4,-3,-4,-1,1
3.746649,-5,24,-28,-6,0,9,-6,-5,1
3.767719,-11,13,-3,0,15,10,4,6,1
3.767737,2,-20,10,1,-15,-3,1,2,1
3.769853,2,8,-4,-1,3,10,-17,-5,1
3.769864,1,35,-13,-4,0,-3,30,5,1
3.782127,-3,-74,31,2,-6,-2,4,-5,1
3.782151,3,41,-3,-1,-2,-2,-5,-1,1
3.789093,-5,9,8,-2,0,-8,1,-4,1
3.789119,-2,-19,-3,0,-2,0,-7,0,1
3.805263,-12,61,-8,1,12,26,14,0,1
3.805286,1,7,-70,-4,1,26,11,5,1
3.807620,9,-99,79,6,-13,-2,10,-5,1
3.807632,0,7,-4,0,-6,-6,-12,-6,1
3.827987,-3,42,-22,-1,1,4,-4,-2,1
3.828018,-2,-3,-10,-4,8,-5,-4,4,1
3.829319,-1,12,-18,1,4,3,-1,2,1
3.829337,0,-13,11,0,-4,-10,-9,-3,1
3.842217,-4,1,-5,2,11,12,-24,-5,1
3.842247,-21,99,-59,-16,9,56,24,6,1
3.848990,34,-89,66,4,-29,-70,-19,-12,1
3.849015,-2,39,-12,-4,-2,7,-11,3,1
3.865316,-4,16,-18,-4,-7,-6,-8,2,1
3.865339,-5,0,4,3,14,10,-2,0,1
3.867049,-11,33,-32,-3,8,15,11,3,1
3.867054,2,-26,7,-1,-6,-8,-9,-1,1
3.887724,-1,-1,-6,-1,4,0,3,1,1
3.887741,5,-39,28,2,-5,-23,3,3,1
3.889295,-4,17,-18,-5,2,6,1,0,1
3.889316,1,-30,12,3,0,4,-11,2,1
3.902636,-5,20,-9,-3,-1,-15,0,1,1
3.902642,4,-44,18,4,-11,-25,5,-4,1
3.908878,-6,62,-5,-3,-3,10,-6,2,1
3.908900,-4,-14,-12,1,6,6,1,-2,1
3.925223,-1,9,2,-3,-4,6,-5,-1,1
3.925253,2,-26,4,0,-7,-15,-6,-2,1
3.927589,-5,30,-10,-1,6,-1,1,-3,1
3.927596,-6,-2,3,4,18,28,-8,-3,1
3.949907,5,-10,-4,-5,-29,-39,23,5,1
3.949913,5,-14,8,3,-1,-10,-23,-11,1
3.949916,-4,10,-1,-2,6,25,9,5,1
3.949919,4,4,-8,-6,-10,-36,3,-5,1
3.962091,-2,-25,7,2,9,16,-3,-1,1
3.962114,-2,2,3,1,1,-1,-1,-1,1
3.969079,-3,-4,-16,-2,-1,-1,0,-2,1
3.969100,-1,-3,0,2,-2,7,1,1,1
3.985161,-1,11,-6,-2,5,-1,-2,-3,1
3.985185,-2,-6,10,-1,-6,-5,6,3,1
3.986572,-8,-5,-9,0,5,2,-6,1,1
3.986605,-9,34,-26,-2,14,45,-14,4,1
4.007633,10,-63,64,4,-25,-86,23,-3,1
4.007649,0,-4,17,-4,-3,5,-17,-13,1
4.009502,-1,10,-18,-5,-4,6,-16,4,1
4.009614,0,-11,-1,-2,-4,-10,0,1,1
4.022364,-7,47,-27,-3,10,36,-4,2,1
4.022401,1,-30,4,-1,1,1,3,6,1
4.028904,-2,-10,1,-1,-2,-19,8,-2,1
4.028927,-3,10,-3,-3,-5,-7,3,-3,1
4.045295,-1,2,-11,0,9,18,-13,0,1
4.045315,2,-6,13,-1,-5,-17,3,0,1
4.046658,-3,3,-18,-3,4,13,-2,-2,1
4.046667,0,-14,12,2,-5,-20,2,0,1
4.067813,-5,25,12,0,-3,9,-8,-3,1
4.067838,-3,-47,-1,4,11,27,-9,2,1
4.069565,5,15,2,-7,-18,-23,0,1,1
4.069580,-1,-4,5,-2,-6,1,14,-2,1
4.081358,0,-7,-25,-2,5,30,-4,1,1
4.081381,-4,30,2,0,-4,-24,-2,4,1
4.091311,-7,-24,33,0,3,13,-7,-18,1
4.091320,1,21,7,-1,-7,-17,1,0,1
4.106151,-3,0,-23,-1,9,25,26,2,1
4.106164,-2,-48,-5,0,-2,40,14,9,1
4.106809,4,13,7,2,-1,-25,-9,-11,1
4.106825,-1,67,5,-7,-4,-24,-4,-2,1
4.127763,-2,3,-12,-3,-1,-9,4,-4,1
4.127791,-3,46,-1,-5,-6,7,-5,6,1
4.129434,-4,-2,-22,-1,1,22,13,-3,1
4.129439,8,-39,52,8,-4,-45,-9,0,1
4.141478,-3,-4,-9,-3,4,4,-16,-9,1
4.141506,-2,21,-3,-2,-1,-23,0,-4,1
4.151658,-3,9,-23,-2,1,23,-1,8,1
4.151673,-3,-36,-7,0,3,6,-2,0,1
4.165461,-2,9,-4,-2,0,33,-9,2,1
4.165500,-4,-7,12,4,6,-60,-24,-8,1
4.167399,7,27,-11,-4,-14,-3,5,10,1
4.167414,5,10,-1,-2,-9,-2,-36,-16,1
4.187863,-5,14,1,-2,1,-9,5,11,1
4.187885,0,-64,-7,0,-7,-5,9,-9,1
4.190623,-7,-11,-21,-7,8,6,-13,-1,1
4.190628,4,14,-2,-1,1,-9,16,7,1
4.201371,-2,1,-7,-1,-2,24,-20,-2,1
4.201396,1,14,2,1,6,-8,9,1,1
4.212013,-1,5,4,3,4,16,-12,1,1
4.212023,-3,-42,-9,1,-7,-1,53,0,1
4.225439,2,-1,14,-2,-4,-22,-9,-9,1
4.225479,1,37,-18,-5,-4,10,4,4,1
4.227388,1,-47,20,5,-1,-18,12,-1,1
4.227394,-4,-7,-2,1,6,32,-26,1,1
4.247878,1,58,-13,3,3,-17,5,5,1
4.247973,-1,-66,9,-3,-6,-9,-12,-13,1
4.249028,-2,34,-11,-2,6,51,7,7,1
4.249043,1,19,-6,-2,-2,-53,5,-6,1
4.261641,-6,-7,19,3,3,-22,-2,2,1
4.261652,-2,94,-59,-13,-8,57,-10,6,1
4.272793,4,-90,58,13,-4,-79,1,-11,1
4.272810,2,-16,-13,-3,-2,23,4,4,1
4.285185,-2,1,1,-2,-4,-5,-10,-3,1
4.285201,-4,18,-16,-1,8,-3,-3,-1,1
4.286627,-9,6,3,-2,9,19,22,8,1
4.286644,2,-17,5,-2,-11,-19,-32,-2,1
4.308006,-2,-33,1,-1,0,1,-12,-11,1
4.308034,-5,1,26,4,-1,2,15,8,1
4.309322,-3,36,-24,-3,2,14,0,-2,1
4.309354,-4,-32,13,1,1,-25,1,-2,1
4.321676,5,10,-7,-2,-5,19,11,10,1
4.321707,0,-32,11,0,-2,13,-33,-17,1
4.331901,-5,51,13,-2,-3,-43,28,2,1
4.331913,1,88,-36,-7,-7,9,-3,2,1
4.345188,1,-97,18,7,10,0,1,0,1
4.345212,4,18,1,-2,-4,-6,14,2,1
4.346942,-4,-14,-16,-3,6,15,-12,2,1
4.346947,-6,-6,-7,-4,1,27,-7,-7,1
4.367654,1,3,-13,-4,-5,-6,9,4,1
4.367671,-2,49,11,4,5,16,4,-2,1
4.369106,3,-62,-11,-7,-13,-41,-9,-1,1
4.369114,-3,-11,1,4,3,9,2,4,1
4.381903,1,25,21,-1,-6,18,-3,-7,1
4.381927,-5,28,-14,-1,-2,-15,11,-4,1
4.391749,0,-49,-2,2,10,41,-15,0,1
4.391755,3,25,-4,-4,-12,-55,9,4,1
4.405822,1,2,-37,-9,-8,-3,6,-3,1
4.405847,-4,-15,52,5,3,9,0,0,1
4.406960,3,-7,-4,4,-4,-11,-8,-1,1
4.408207,-7,-9,-12,-3,8,35,-6,-8,1
4.427868,-1,-6,1,-1,-14,-35,-3,-4,1
4.427887,2,11,-8,-4,-3,-26,-3,6,1
4.429287,-4,11,-13,-3,-4,3,-15,-6,1
4.429304,-1,-26,23,5,8,47,14,3,1
4.441287,2,28,0,-6,-8,-38,5,-8,1
4.441306,-5,-28,-4,1,3,34,-13,5,1
4.456581,0,-14,9,-4,-9,-43,15,-1,1
4.456624,-1,0,-3,1,-2,9,-13,-8,1
4.465106,-4,-9,-6,-2,3,2,-8,0,1
4.465117,1,-8,-2,0,-2,-2,-2,-4,1
4.466649,-5,-1,-1,-1,8,25,5,-1,1
4.466665,-5,-27,8,-1,2,7,10,7,1
4.487634,1,16,-7,-2,-16,-34,-2,-1,1
4.487654,2,-40,24,3,5,-10,7,-1,1
4.490059,-6,15,19,8,0,-12,10,4,1
4.490070,5,25,-20,-9,-7,1,8,-12,1
4.512943,-5,-11,0,1,15,50,-12,4,1
4.512951,3,28,-10,-2,-12,-46,-2,5,1
4.512954,0,-13,-17,-3,-5,-3,-1,-4,1
4.513047,-3,-20,4,4,6,7,0,1,1
4.525227,-2,-4,3,0,10,57,-8,1,1
4.525252,1,9,-13,-4,-8,-69,8,-3,1
4.528177,2,30,11,-3,-6,0,-16,-7,1
4.528185,-2,3,0,1,2,-8,-4,2,1
4.547734,0,-13,-11,-2,5,5,-2,-6,1
4.547765,-3,-28,-7,-3,0,12,7,-1,1
4.549098,6,62,33,1,-6,-9,-22,-4,1
4.549132,-3,-52,-10,-1,1,-7,-3,-1,1
4.570139,0,27,15,-2,-10,-34,-1,4,1
4.570161,-1,-20,-17,0,11,33,-1,1,1
4.571626,0,3,-18,-2,4,12,16,3,1
4.571640,-1,10,2,0,-1,11,-26,-9,1
4.585085,-4,12,-12,1,7,29,-11,2,1
4.585110,4,-26,22,2,-9,-47,37,4,1
4.586520,-1,6,-7,-3,0,21,-12,-6,1
4.586527,1,-23,-3,2,4,-14,2,-1,1
4.607613,0,-31,4,-2,2,13,12,2,1
4.607625,-2,31,-1,-3,-1,24,-36,-1,1
4.609312,4,-4,-2,1,-8,-22,20,-2,1
4.609342,-2,15,-1,-1,10,31,1,-1,1
4.630117,-1,1,-2,-1,-7,-45,-2,-3,1
4.632023,0,10,-3,-6,-9,2,21,-2,1
4.632033,-4,0,-13,-3,2,7,-25,3,1
4.632036,1,4,5,-4,-6,12,-5,2,1
4.645247,1,-34,0,0,0,-11,9,-5,1
4.645271,0,-11,7,1,4,6,-13,-3,1
4.647045,-8,-14,-34,-3,10,23,11,-5,1
4.647052,-6,102,14,0,-4,-12,-18,5,1
4.669014,12,15,28,2,-6,-37,10,-4,1
4.669022,2,41,-21,-2,-1,17,-7,-12,1
4.669116,-1,-1,0,-2,-3,-1,-6,2,1
4.669142,-5,17,-28,-5,0,3,15,6,1
4.690486,-4,-1,-4,2,3,11,-15,-3,1
4.690515,-5,-15,-9,1,12,12,-10,-3,1
4.692077,1,46,-7,-4,-18,-18,27,3,1
4.692084,3,-71,30,1,-6,-8,-27,-12,1
4.705007,-2,0,-12,-5,-3,0,-4,0,1
4.705029,2,-14,-2,-1,-1,13,-2,-2,1
4.711434,-4,14,-23,-4,3,-13,-11,1,1
4.711454,-1,-11,0,2,2,20,15,1,1
4.727163,-4,-19,6,1,3,-47,2,-5,1
4.727208,7,24,-10,-3,-13,30,-8,11,1
4.735485,-3,7,25,6,3,-1,-4,-7,1
4.735520,-1,-58,7,-4,-9,-9,-3,-11,1
4.750603,-4,19,-12,-2,4,24,2,7,1
4.750621,-4,-10,6,1,4,-8,10,-1,1
4.751837,-4,28,-7,-1,5,17,8,4,1
4.751852,8,-59,3,-1,-7,-20,-4,3,1
4.764651,-8,71,-23,-2,3,9,23,-7,1
4.764735,5,-104,23,0,-2,11,-22,0,1
4.771508,3,-8,6,-4,-8,-12,-3,6,1
4.771533,-7,63,-26,-4,3,0,15,-4,1
4.787671,-3,-24,-4,0,0,6,3,4,1
4.787690,-3,53,-3,-2,-3,-11,-6,-4,1
4.789668,-3,-83,-3,1,10,7,-5,-6,1
4.789678,1,9,-14,-2,-6,-2,14,6,1
4.810744,4,-13,13,1,-3,3,-24,-4,1
4.810753,-4,35,11,-1,0,19,0,-6,1
4.811707,0,-41,2,0,6,-35,-2,-5,1
4.811736,-5,25,-16,3,-3,-21,27,9,1
4.825240,2,42,18,-3,-7,9,-32,-7,1
4.825249,-6,-81,-11,0,3,1,20,5,1
4.831298,0,59,22,2,-3,7,2,3,1
4.832623,1,7,3,-1,1,4,-11,-5,1
4.847625,-1,-7,-11,0,-2,-11,-4,1,1
4.847645,-1,38,-9,-2,4,6,13,3,1
4.849280,-1,20,-2,-6,-13,28,-31,-17,1
4.849305,4,-44,-5,2,-1,-18,4,-1,1
4.870086,-5,8,11,-2,-1,15,-12,3,1
4.870106,-3,23,-2,4,10,-8,13,-3,1
4.871746,0,-4,-17,-4,-7,9,5,2,1
4.871769,1,41,30,4,-1,-4,0,3,1
4.884476,0,-70,-7,-1,1,8,18,-8,1
4.884497,1,22,1,-2,-5,-15,-22,-3,1
4.891336,-2,-17,-3,-2,3,16,5,2,1
4.891352,-3,10,-16,-1,2,5,-11,-1,1
4.908689,-3,30,-3,-1,-2,-7,9,4,1
4.908714,-4,-33,51,7,5,43,-5,0,1
4.909420,6,-59,-24,-1,-12,-62,-23,-5,1
4.909525,1,7,0,-6,1,7,-6,2,1
4.930650,0,-11,-1,0,-2,-8,4,-2,1
4.930676,-5,31,-17,-3,-4,-6,-2,-3,1
4.933075,-2,2,0,3,6,11,-1,1,1
4.933091,-3,-10,15,0,-3,0,1,-2,1
4.944598,-8,51,-25,-1,13,38,-4,-3,1
4.944619,10,-54,6,-4,-11,-92,33,12,1
4.951289,-2,10,21,2,-11,-2,-11,3,1
4.951307,-6,-1,-13,-6,-2,1,-1,-21,1
4.967784,0,0,-3,1,-4,-11,-4,2,1
4.967797,-4,21,-6,-3,1,14,-2,-7,1
4.968956,-3,14,3,0,6,6,13,9,1
4.969000,0,-40,-6,-2,0,-5,0,2,1
4.990343,-2,-1,6,0,-1,7,-1,-4,1
4.990369,-4,3,-2,3,2,-8,-15,-3,1
4.991785,4,15,0,4,5,11,36,1,1
4.991799,1,28,9,-3,-6,8,-25,-3,1
7.014707,-20,-7,19,-6,-7,-2,1,2,0
7.015301,-8,-19,-61,-1,-3,-3,-8,-2,0
7.017519,18,-6,37,-1,5,-2,-4,-2,0
7.017573,-3,2,-71,-17,-1,-2,-1,1,0
7.028900,-7,41,65,-1,2,-3,-2,-2,0
7.028919,-14,-65,69,43,11,3,1,-4,0
7.037093,6,10,-54,-13,5,0,4,-3,0
7.037116,14,-24,-8,-4,-5,5,2,0,0
7.052117,-23,-15,-21,-19,-3,-2,-2,-3,0
7.052139,10,21,-26,-19,-8,-1,1,-2,0
7.053838,-38,24,50,17,4,1,1,-1,0
7.053849,-23,-69,-2,6,0,0,-1,-8,0
7.074494,2,-15,-37,-21,1,0,-1,0,0
7.074513,25,39,20,-4,1,1,2,0,0
7.076047,-33,-8,-13,3,3,5,3,25,0
7.076068,9,71,-25,-12,-1,-6,-3,1,0
7.089399,18,-11,-1,6,-2,-1,-1,1,0
7.089428,19,30,-13,-2,-4,-3,-3,-2,0
7.097118,-16,-77,12,1,-1,0,0,-2,0
7.097142,38,94,-4,1,-4,-1,-5,3,0
7.112091,-37,-41,-3,-11,-3,1,1,0,0
7.112200,-19,-14,5,3,2,3,2,2,0
7.112743,13,16,-14,-6,-16,-1,-2,-6,0
7.112755,-20,-76,-1,-7,-18,-4,-3,-1,0
7.135170,20,63,-7,17,55,3,1,-9,0
7.135206,-8,-9,-9,-19,-79,2,11,0,0
7.137410,22,95,13,13,32,-3,-23,-8,0
7.137425,-30,-79,-16,-4,-40,-2,3,-1,0
7.148854,15,44,6,19,29,5,3,-3,0
7.148879,11,25,-1,-3,-2,0,-1,2,0
7.157162,-15,11,-8,-1,-89,-18,4,-3,0
7.157180,8,0,13,19,79,30,5,-3,0
7.173389,2,-78,-14,-10,-46,-14,-3,-3,0
7.173399,-24,66,-3,-13,-48,-10,-10,-2,0
7.173403,12,-3,-4,-18,37,8,7,-7,0
7.173406,3,5,-14,-14,-78,-12,5,-4,0
7.194593,-22,-24,-2,19,95,-3,-10,8,0
7.194626,3,3,-1,8,0,0,-20,-5,0
7.195924,-3,1,10,-1,7,-5,9,-4,0
7.195935,5,25,-11,6,127,4,-11,2,0
7.208942,17,6,4,-18,-89,-4,11,0,0
7.208977,2,19,-1,1,-61,-7,-2,-4,0
7.216971,-28,-93,-7,15,101,15,9,0,0
7.216995,-2,-1,1,-4,6,-6,-5,-8,0
7.234128,6,21,-2,-5,-94,-2,-5,0,0
7.234135,-12,24,-6,-2,23,2,3,1,0
7.234138,0,13,-4,-9,-38,-4,-4,-1,0
7.234178,9,-62,10,-7,-34,-3,-2,2,0
7.254533,21,24,-15,2,-13,-5,-8,1,0
7.254553,-79,-81,7,-8,36,7,8,0,0
7.256201,14,113,21,5,3,-3,-4,0,0
7.256213,17,-35,15,-6,-50,-10,-4,3,0
7.277960,-2,103,16,6,21,3,1,-1,0
7.277977,35,52,-24,4,45,0,-1,-1,0
7.279999,10,-45,16,3,-34,-2,-5,0,0
7.280007,-15,-36,35,10,-8,-6,-3,-2,0
7.292149,10,39,-85,-21,2,0,0,-3,0
7.292192,30,78,10,6,19,5,5,-3,0
7.294556,3,-6,13,-10,-18,-1,-7,1,0
7.294566,-26,26,-26,-6,-11,-6,-4,-2,0
7.314589,-21,-128,7,5,18,4,3,0,0
7.314605,14,100,-54,-18,-9,-10,-12,3,0
7.315237,-5,-21,55,21,1,3,0,-15,0
7.315257,-9,-28,-31,-3,-1,5,12,2,0
7.328773,-20,3,6,1,-10,-1,-5,-6,0
7.328815,3,-33,14,-6,8,0,0,-2,0
7.337112,6,-45,-32,-9,-7,-3,-5,-5,0
7.337135,-8,79,24,1,-8,-2,-6,-2,0
7.352070,-27,13,-15,1,2,-2,-1,1,0
7.352094,26,-41,21,5,6,-3,0,-1,0
7.353817,-5,-9,-27,-6,1,0,0,5,0
7.353822,-5,81,-7,-3,-12,-2,-2,0,0
7.375379,6,-24,-3,-16,-1,-1,0,2,0
7.375388,32,9,-4,-3,3,-1,-1,2,0
7.375391,-62,-41,-6,9,-5,6,9,3,0
7.375394,21,16,-29,-1,0,-3,-1,-2,0
7.398303,3,-2,38,2,-2,-1,-6,-3,0
7.398328,-21,-62,-15,-1,-5,5,7,0,0
7.400086,13,58,-52,-19,-14,-6,-2,1,0
7.400094,-7,-31,52,9,-1,-3,-3,-2,0
7.412287,3,4,-12,-1,0,0,2,-3,0
7.412339,-6,-2,15,-6,-5,-2,-1,2,0
7.414138,-5,4,-19,6,-1,-3,-20,-3,0
7.414148,-20,-39,-12,1,2,2,0,0,0
7.434538,16,25,7,-8,-9,-9,-4,3,0
7.434562,-35,7,-6,5,-6,7,3,2,0
7.436115,-6,-87,19,4,8,3,11,-6,0
7.436127,26,49,-26,-6,-7,-3,-5,1,0
7.457925,-47,-88,18,6,1,2,-1,-7,0
7.457954,11,-25,10,-1,14,-5,1,-3,0
7.458529,8,19,-12,-9,-32,1,-1,3,0
7.458551,-9,-22,-3,3,23,-3,-3,-6,0
7.472121,18,17,-18,6,0,5,3,1,0
7.472141,-13,22,-40,-10,1,-4,-5,2,0
7.472957,-4,-35,45,3,-5,-2,3,0,0
7.472978,6,4,-30,-3,-8,-2,-5,-4,0
7.494539,12,34,5,-6,-4,-2,-1,1,0
7.494562,10,7,12,3,-4,-1,-4,-3,0
7.495981,-4,26,-25,-9,2,-5,-3,1,0
7.495986,4,-4,7,-4,-8,5,1,2,0
7.517707,6,25,-14,6,-4,-3,-1,-2,0
7.517794,-11,-44,-2,3,10,6,3,0,0
7.518311,2,-22,7,-2,3,-4,-2,-2,0
7.518388,-6,-10,3,5,-15,-2,2,-3,0
7.531985,7,20,4,4,15,2,6,13,0
7.532042,52,-1,10,-4,-1,-8,0,1,0
7.532789,-54,22,1,1,4,3,0,2,0
7.532864,1,9,-39,-9,-2,-1,0,-3,0
7.554737,-10,-101,97,8,-2,0,-3,-4,0
7.554767,4,3,-19,0,-2,-3,3,-2,0
7.557429,-10,12,-4,4,9,6,-6,2,0
7.557439,28,62,-18,-8,-6,-6,1,3,0
7.578887,-14,-22,-23,-3,-4,-2,-6,-1,0
7.578895,-18,-11,24,0,6,0,0,-2,0
7.578898,-11,-73,-2,-3,-2,-2,2,-2,0
7.578901,22,40,-2,1,10,6,-1,2,0
7.592200,7,16,-4,-9,-13,-6,1,-1,0
7.592232,-6,37,1,0,12,10,-3,-7,0
7.593978,26,20,-19,1,-1,-2,-1,1,0
7.593985,-24,-90,8,-4,0,-4,6,0,0
7.614727,-15,12,-13,-2,1,4,10,0,0
7.614763,0,42,-10,0,-7,-16,-26,2,0
7.616443,25,-53,33,8,7,-2,7,-2,0
7.616451,-66,-29,1,-5,0,3,-2,4,0
7.637958,32,71,-8,-1,-4,3,-6,-9,0
7.637982,-10,-6,-22,-11,-6,-3,0,-5,0
7.640055,15,28,2,3,18,-2,-2,8,0
7.640082,13,5,15,6,-24,0,-9,-5,0
7.651929,-3,-2,-26,-7,-9,-4,0,1,0
7.651946,-5,-24,14,14,18,3,3,3,0
7.653301,28,83,-23,-19,-11,-5,-4,2,0
7.653309,-9,-42,-5,6,6,2,-2,2,0
7.674740,-8,-25,9,-3,5,-3,-4,-3,0
7.674775,15,-36,35,0,-8,-3,-1,2,0
7.675334,-25,54,4,1,-4,2,6,-2,0
7.675372,15,20,-11,-7,0,-3,-1,0,0
7.697748,-10,17,-44,-11,0,1,-2,2,0
7.697783,-6,-24,5,-10,-6,1,8,-5,0
7.698714,8,19,1,7,0,2,-6,-3,0
7.698720,18,14,14,0,19,-4,0,1,0
7.712049,-36,-6,-18,0,-8,5,0,-4,0
7.712083,22,12,-1,-1,1,2,2,1,0
7.713407,13,14,-1,11,-1,-1,1,-2,0
7.713414,-4,-22,-12,-9,1,0,-3,-20,0
7.735823,-2,-17,9,-4,8,-4,4,-14,0
7.735829,-4,17,-6,5,-7,4,-9,-3,0
7.735832,-12,-6,6,-4,-4,-6,9,0,0
7.735835,-13,-8,7,-6,-9,-6,0,-2,0
7.757640,11,25,-4,-1,7,-1,-6,2,0
7.757667,-13,3,-13,4,-3,-4,-2,1,0
7.758985,14,-49,77,5,-2,-1,-4,-6,0
7.758992,1,-11,-20,9,4,5,5,4,0
7.771413,16,25,-65,-7,-9,-7,-7,1,0
7.771432,-24,-36,92,21,8,1,7,3,0
7.779345,7,19,-38,-12,-3,1,-2,2,0
7.779375,10,9,1,-4,-5,-5,-1,4,0
7.794578,11,-12,16,6,20,-1,-4,-2,0
7.794602,14,13,-38,-15,-11,-3,0,-3,0
7.795845,-20,8,-15,-7,-5,-1,-1,-6,0
7.795851,-32,-20,24,5,10,-1,-6,-2,0
7.817646,18,-10,0,-5,-8,4,5,0,0
7.817663,-14,-16,-11,-2,6,-8,2,-2,0
7.818200,-6,-8,-6,-2,3,16,9,-2,0
7.818207,23,30,-12,-1,-4,-7,1,31,0
7.831938,-7,-3,17,7,-1,-3,-11,0,0
7.831961,-6,-27,-13,2,1,4,2,-1,0
7.832684,0,-17,-10,-4,-5,-4,2,1,0
7.832810,0,18,-31,-15,-7,-2,1,-6,0
7.854582,-4,-61,48,30,6,2,2,-2,0
7.854605,-2,18,-28,-11,-4,3,1,1,0
7.855949,-12,-31,-10,-6,2,-2,-4,-2,0
7.855960,-4,-12,40,10,1,4,0,-6,0
7.877785,-1,47,0,-4,-4,-6,-3,-2,0
7.877807,-1,-90,-28,-3,6,2,2,-4,0
7.878451,7,-35,-22,-2,-11,3,-4,0,0
7.878475,0,58,-15,-9,6,-5,-6,-2,0
7.892373,2,-16,6,-2,25,16,7,1,0
7.892380,-46,-47,6,-6,-12,6,20,1,0
7.892953,78,56,-7,4,46,-45,-37,8,0
7.892993,-75,-13,9,5,-38,49,1,-14,0
7.914488,-31,-63,-10,-14,0,-45,-21,5,0
7.914511,12,43,1,-17,-50,27,-4,3,0
7.915593,31,-27,4,23,75,10,-5,3,0
7.915600,-2,54,6,-1,-14,-31,15,-11,0
7.938561,-33,-56,-6,-8,18,33,6,-3,0
7.938579,18,58,-17,6,-21,-9,-18,1,0
7.938584,-7,-3,-1,-8,-45,-7,13,2,0
7.938588,33,-6,6,1,12,9,-10,2,0
7.951381,-49,31,-1,-2,-21,5,4,-5,0
7.951404,25,-9,9,0,-5,-16,3,2,0
7.959772,-28,41,-6,-1,-14,0,0,-7,0
7.959799,0,-49,-7,-2,22,-1,8,6,0
7.974522,25,75,-9,-3,-24,-2,0,-1,0
7.974551,4,-52,13,-4,17,-12,-10,-2,0
7.975223,-26,-1,-43,5,1,18,7,-4,0
7.975250,-1,51,-26,-7,-12,-2,-6,-2,0
7.999184,20,-21,-35,0,-8,-12,0,4,0
7.999191,12,53,-24,0,16,-4,-10,3,0
7.999194,-15,11,55,17,-12,5,7,20,0
7.999197,21,-16,-4,-2,-5,-10,-2,2,0
8.011445,34,22,33,-5,0,-1,0,-1,0
8.012766,-54,-30,-28,1,14,-2,9,-6,0
8.019471,-6,5,-8,0,-19,-5,-9,-3,0
8.019526,47,4,12,6,-2,-7,1,9,0
8.034474,-49,-60,-15,-8,0,5,-5,-22,0
8.034499,35,26,10,-4,-1,-5,-9,23,0
8.035148,-13,9,21,5,-4,-2,4,-7,0
8.035160,2,-27,-8,-5,1,1,-2,-5,0
8.056812,5,26,1,2,-2,3,5,7,0
8.056836,-3,-17,12,8,14,-7,1,1,0
8.064371,-17,2,-41,-34,-15,9,1,-8,0
8.064388,19,-3,5,10,8,-3,1,2,0
8.071415,11,13,24,15,4,3,-1,-1,0
8.071445,36,30,-46,-20,-10,-5,1,-18,0
8.079659,-32,-57,47,1,6,7,3,0,0
8.079688,18,50,16,45,13,-6,-9,-9,0
8.095121,20,-43,36,9,-7,-1,10,3,0
8.095133,-58,-11,-28,-5,-6,3,-5,-9,0
8.095442,65,43,-34,-10,-3,-7,-3,-4,0
8.095450,-54,-19,-39,-26,-14,0,-3,-16,0
8.117542,-24,20,-8,19,11,-5,-7,9,0
8.117559,52,15,24,11,8,3,10,2,0
8.118733,-20,10,-15,3,5,-10,-7,-5,0
8.118738,19,-20,22,1,0,4,-1,34,0
8.131448,9,15,-15,-12,-9,-8,-7,-4,0
8.131481,-10,6,14,0,8,13,9,-6,0
8.139574,48,0,-1,-7,-3,-6,-10,-3,0
8.139601,-16,-16,1,-19,-6,3,6,-2,0
8.154431,12,1,-7,7,-18,0,-3,5,0
8.154454,26,22,10,1,-10,-5,0,7,0
8.156787,-19,-11,-11,-14,-8,-1,7,-10,0
8.156808,-24,-22,-5,-5,-61,-3,-3,-10,0
8.177836,16,12,-20,-26,-14,-9,-3,-3,0
8.177865,-20,25,15,21,88,10,14,-10,0
8.178389,10,19,7,3,-33,2,-3,2,0
8.178425,1,-21,1,-4,-76,-2,-1,5,0
8.191332,-13,4,4,25,65,5,-12,-2,0
8.191364,13,19,-1,18,58,15,4,-6,0
8.199605,-13,4,-4,-2,-21,-3,10,-6,0
8.201140,21,18,4,-1,-40,-3,-4,-5,0
8.214731,-8,-26,-11,-15,-34,0,5,-2,0
8.214749,-10,-2,11,-11,-84,-15,-16,-1,0
8.216039,-3,-4,-14,6,83,3,-12,-3,0
8.216045,-24,-31,4,-2,96,0,0,-4,0
8.237593,17,77,1,-4,54,-8,-5,2,0
8.237611,-4,-31,-8,-19,4,-19,-8,-3,0
8.238419,-13,4,5,-10,-61,-4,0,-5,0
8.238593,8,16,-2,-12,-2,2,7,-7,0
8.251204,5,27,3,-10,-4,2,26,-3,0
8.251211,1,-25,-1,19,-47,-8,7,8,0
8.259524,-14,27,1,-13,-93,-8,-13,3,0
8.259552,-11,-33,-1,5,46,2,-24,-1,0
8.274538,2,3,-3,2,-17,5,48,0,0
8.274560,-17,-31,0,-9,-52,-3,-2,19,0
8.275712,49,-43,-9,3,5,2,0,0,0
8.275717,-82,35,4,3,28,1,-3,-3,0
8.298647,12,18,-34,6,-12,-1,-16,-2,0
8.298661,-2,-63,88,31,0,5,-3,-13,0
8.298665,6,10,-19,-5,33,2,10,-2,0
8.298670,32,22,-49,-11,5,1,8,3,0
8.320094,-11,-63,54,0,-41,-1,-10,-5,0
8.320117,3,48,9,-6,22,-5,-9,-2,0
8.321086,-38,-28,-11,-5,16,7,0,-3,0
8.321091,28,-15,38,3,-24,-3,0,-14,0
8.334520,-16,46,-96,-32,-25,-7,-15,4,0
8.334543,11,-100,71,40,20,3,-6,-6,0
8.336061,-17,-29,-35,13,7,6,8,3,0
8.336072,56,85,-65,-29,-17,-14,-6,4,0
8.357615,-67,-124,6,21,10,1,-6,1,0
8.357645,-12,33,-79,-20,4,5,7,12,0
8.359938,30,105,-35,-16,-11,-9,-9,3,0
8.359947,-44,-26,-25,4,8,0,2,0,0
8.380201,59,33,-15,-4,3,-7,-10,0,0
8.380225,-59,42,-9,-16,-25,-6,-8,-9,0
8.381091,13,-48,1,1,4,1,4,-1,0
8.381109,0,1,-11,4,7,-4,0,3,0
8.394716,23,10,96,9,4,1,-5,-2,0
8.394738,-7,-8,-63,-15,-15,-6,-3,-7,0
8.395195,10,11,7,4,17,7,-1,-1,0
8.395229,-7,-36,51,7,8,0,0,-4,0
8.418964,1,19,-18,-5,2,-2,-3,0,0
8.418980,13,15,-20,-13,3,-8,-4,8,0
8.419915,-15,28,14,-4,-4,0,-10,-6,0
8.419920,-2,-38,10,7,-5,-1,10,-1,0
8.440191,-29,-32,-28,-7,5,9,2,-1,0
8.440208,11,-15,-5,-5,4,-1,0,0,0
8.440805,-6,79,30,7,5,-8,-7,1,0
8.440822,-16,12,-2,-13,-11,2,-2,-1,0
8.454361,13,114,8,10,2,-6,2,-7,0
8.454370,6,21,-1,-3,-6,7,-14,-9,0
8.455010,4,-92,42,14,3,-1,6,0,0
8.455030,-10,-24,-7,0,-74,-8,-4,-3,0
8.478288,11,0,-18,-17,47,5,4,-10,0
8.478312,21,-17,-9,-6,-5,1,-4,4,0
8.480015,-16,64,-17,4,75,-5,9,0,0
8.480024,9,41,7,1,-77,-5,-4,0,0
8.501939,14,-10,19,25,72,14,-10,-3,0
8.501948,21,52,11,11,-76,-7,11,18,0
8.501951,-9,-32,-8,-8,46,14,-2,-3,0
8.501955,-9,-36,2,8,19,2,16,-3,0
8.514614,-5,26,-7,-12,28,-7,-14,-3,0
8.514644,9,37,-5,-7,-24,-6,0,-11,0
8.516356,-26,-27,-3,-3,-55,-13,15,3,0
8.516404,12,15,1,8,29,3,9,1,0
8.537599,-9,-74,-7,-3,-59,-5,-9,6,0
8.537615,-9,18,-9,-7,21,3,4,-11,0
8.539238,4,-56,-6,-12,-8,-10,-10,-3,0
8.539248,15,-2,3,13,106,4,-4,-5,0
8.560432,-30,-53,-5,-2,-65,-3,6,0,0
8.560460,-3,8,-3,-4,-7,-7,-12,-6,0
8.562366,1,20,-4,-2,-66,1,4,-4,0
8.562377,14,-50,-5,-5,25,6,-3,0,0
8.574514,2,57,19,1,-4,-7,-3,6,0
8.574530,-43,-48,-23,0,31,4,-1,-22,0
8.576704,16,-38,9,3,-27,4,-7,-6,0
8.576714,24,40,7,-3,-13,-7,-2,-4,0
8.597706,13,29,5,2,-4,-9,5,-2,0
8.597722,13,91,2,1,-26,8,1,2,0
8.598330,-3,-16,-13,4,7,1,9,0,0
8.598346,-22,86,6,-7,29,2,-12,-6,0
8.620266,25,9,0,4,-31,1,6,-3,0
8.620290,-54,-10,3,-14,54,-3,-2,3,0
8.621660,27,-51,0,16,29,-4,9,3,0
8.621698,-2,29,-2,-4,-7,-1,-23,3,0
8.634483,1,-24,-7,-7,-7,3,8,3,0
8.634506,-2,-9,0,-4,-42,-6,-2,0,0
8.635737,-2,29,1,-4,37,0,-3,1,0
8.635742,-9,-51,-16,-8,-45,-2,7,-2,0
8.657653,-3,-37,-5,-22,-24,-2,-7,-8,0
8.657662,33,20,9,13,-7,-1,6,4,0
8.658367,-4,-8,8,1,-25,7,-1,-1,0
8.658376,-17,-15,-5,4,21,-2,-1,3,0
8.680241,-15,0,-3,-2,-40,-7,-7,-5,0
8.680263,-3,8,-2,-13,12,4,6,-3,0
8.682389,2,-26,-7,-5,39,-8,-13,8,0
8.682396,20,106,7,6,54,5,9,6,0
8.694581,-39,-117,-5,5,40,15,13,0,0
8.694605,-12,-42,-1,-3,-12,-2,-7,-2,0
8.695245,23,28,-13,-6,-31,-3,1,2,0
8.695263,-8,13,19,23,-8,0,-5,-8,0
8.717923,19,33,-3,0,3,-1,1,2,0
8.717953,12,13,3,0,-17,1,-1,2,0
8.720115,-27,-48,14,6,37,-1,-6,-5,0
8.720121,3,-20,-9,2,-12,0,-5,2,0
8.740318,-10,34,-9,7,76,-1,1,2,0
8.740339,-7,-7,0,-2,10,11,2,-1,0
8.742645,14,74,2,0,19,-1,7,1,0
8.742654,-15,-60,-5,-10,-40,-8,-16,0,0
8.754380,7,-14,6,9,11,-6,-6,0,0
8.754397,-11,32,-8,-7,27,-2,-6,2,0
8.755237,-4,51,-5,-10,-43,-4,4,2,0
8.755313,-3,-2,4,3,2,-4,2,-1,0
8.777794,26,52,-9,-14,-19,0,1,22,0
8.777819,7,-54,-1,5,17,-5,-1,-2,0
8.778915,-9,-21,-8,-4,-37,-7,-11,-2,0
8.778921,-24,28,-8,-4,25,-1,2,-4,0
8.800287,13,-8,29,21,0,-2,-7,-5,0
8.800304,0,11,-11,-7,-9,1,5,0,0
8.800838,3,-16,-12,3,-4,-1,-4,-1,0
8.800854,-9,-65,-9,-17,-25,0,0,-3,0
8.814965,-4,-67,-3,-10,-25,0,2,-12,0
8.814976,-14,-25,-2,9,-4,1,3,0,0
8.824559,2,87,4,-14,-31,-6,-10,-8,0
8.824567,27,-85,1,3,-1,1,9,1,0
8.837777,-42,-59,-18,-4,-5,-2,-7,-3,0
8.839500,-22,4,5,-5,-7,-4,2,1,0
8.839514,3,-8,3,5,20,2,0,-1,0
8.839519,5,51,6,1,-13,-1,1,7,0
8.860461,3,-18,-6,-10,-45,-12,-8,-8,0
8.860502,-36,-7,-11,2,71,4,-1,-10,0
8.862557,20,-1,3,4,14,10,-1,-1,0
8.862563,11,18,6,-1,-11,-2,-1,2,0
8.873913,17,11,-2,-1,-18,-8,-5,-5,0
8.873963,8,60,-6,-2,-6,0,-5,-1,0
8.884819,-17,23,6,4,-5,3,5,-3,0
8.884827,-8,-69,-7,-13,7,1,-1,-7,0
8.897617,10,53,3,4,-48,-9,-6,-2,0
8.897639,17,-45,-2,3,-12,5,2,-1,0
8.899054,-34,-73,9,1,15,4,6,-3,0
8.899071,4,-59,-12,-1,-23,-3,-7,-1,0
8.920231,-5,53,-9,-3,26,1,3,-1,0
8.920254,5,-22,10,8,9,-2,-5,2,0
8.923034,-3,-2,-4,-3,-5,0,-5,-1,0
8.923047,-2,54,-2,-5,-5,-2,3,1,0
8.934052,-18,-1,-2,1,3,0,0,1,0
8.934082,29,-20,-2,-19,-38,-8,-4,-1,0
8.943707,12,-12,-5,-7,1,0,1,25,0
8.943716,-32,50,0,-5,1,-2,-9,-5,0
8.957746,11,31,-2,-3,13,1,11,4,0
8.957753,24,6,13,25,12,8,1,-2,0
8.959224,-43,-82,-9,-8,-28,-2,-2,-6,0
8.959249,34,12,2,5,-8,8,14,2,0
8.980330,-16,-27,-1,-6,-3,-53,-17,-1,0
8.980353,25,-27,-3,2,-15,1,-2,3,0
8.982173,1,75,4,-1,-24,0,3,-7,0
8.982179,-8,-16,8,24,24,0,-3,-1,0
8.994034,-10,-1,8,10,6,16,-1,-6,0
8.994054,2,38,2,1,11,-8,4,3,0
9.004218,4,-10,-3,-8,-4,-5,-3,-5,0
9.004226,-13,38,-8,4,7,-2,-2,4,0
9.019369,18,44,-1,5,-13,5,-5,2,0
9.019376,-20,-49,-4,-6,8,4,1,-2,0
9.019380,13,8,-12,-10,-10,5,-1,-3,0
9.019471,-7,-6,0,2,-22,2,2,24,0
9.040415,20,63,6,-4,15,8,6,3,0
9.040440,-66,-95,-7,-5,5,4,1,-7,0
9.041897,40,98,5,14,-19,-8,-7,0,0
9.041909,16,-21,-8,-4,-21,-8,-7,-5,0
9.054160,-25,-52,-6,-3,71,0,-3,0,0
9.054186,-3,62,-2,-9,-3,6,-5,-2,0
9.062977,9,-6,9,3,16,-7,-5,-2,0
9.062983,-7,0,5,6,16,-2,1,-11,0
9.077652,21,-23,-9,-11,-30,9,4,5,0
9.077673,1,35,0,-7,1,-13,8,-1,0
9.079671,-39,-88,-12,-6,-13,-1,-19,3,0
9.079687,25,55,3,0,20,5,12,-4,0
9.100172,15,9,-1,-2,11,4,-7,0,0
9.100201,-7,-35,-1,7,8,2,6,3,0
9.101690,1,-55,-3,-10,8,3,1,-1,0
9.101707,-29,5,-3,5,27,1,0,25,0
9.113711,0,22,4,-9,-35,3,7,-6,0
9.113726,1,20,-8,5,18,-4,-8,1,0
9.124928,9,25,6,7,30,3,11,-2,0
9.124935,-8,-55,-3,-16,-15,-4,-8,-16,0
9.137893,13,-17,-5,-9,10,6,6,-5,0
9.139743,9,5,6,2,-20,-8,-9,7,0
9.139752,6,-14,-3,5,-7,2,0,-7,0
9.139757,3,29,-4,-6,4,3,7,-1,0
9.160135,-17,51,2,2,-44,-2,-8,0,0
9.160165,-15,-12,-6,-6,-32,1,-5,-5,0
9.162091,18,39,10,8,-10,0,2,-1,0
9.162141,-19,-7,-5,11,51,-1,-1,-11,0
9.173998,-4,-17,-1,5,-29,1,1,-3,0
9.174010,35,47,-6,-17,15,-4,-6,-1,0
9.183706,-21,-26,-7,14,22,6,16,7,0
9.183714,8,-44,4,-14,-49,-6,-5,-4,0
9.197809,3,-13,1,3,-2,-2,-2,1,0
9.197831,-16,-16,-4,-14,-19,-3,-5,-3,0
9.199893,-15,38,2,5,18,-6,3,-4,0
9.199900,21,-23,-5,-8,29,-8,-40,-7,0
9.220226,7,-15,0,3,31,11,22,6,0
9.220237,-31,7,5,-1,-28,-9,-2,2,0
9.221718,29,37,3,-7,-9,-3,-4,1,0
9.221737,6,-46,-4,-1,-12,2,4,2,0
9.233999,-20,26,7,8,9,-4,-8,-6,0
9.234022,17,33,-2,3,12,2,1,-2,0
9.244377,2,-3,-9,-10,-30,-2,-5,-2,0
9.244384,10,18,5,-5,11,-1,2,-1,0
9.257727,7,16,9,-7,0,-3,-7,3,0
9.257746,12,-35,-2,-4,-32,4,13,-3,0
9.259489,6,51,17,17,76,-2,-13,-5,0
9.259512,3,9,-11,-14,-16,-3,4,2,0
9.279190,-12,39,-3,0,-3,1,-5,-1,0
9.279213,52,-1,-1,-1,2,-4,-5,35,0
9.289969,-51,-14,-2,-10,-27,-5,-4,-7,0
9.289982,-10,4,1,3,-43,0,4,-1,0
9.302796,-8,-29,-1,-9,-37,-2,1,4,0
9.302818,24,-9,3,14,7,-4,-5,-3,0
9.304852,-8,-13,-4,-2,21,-1,-4,-9,0
9.304858,-36,7,5,6,9,4,0,-1,0
9.316341,14,9,-9,-14,-46,-3,13,-4,0
9.316364,-15,21,3,17,71,1,-2,-7,0
9.326779,-11,-74,-6,-4,-57,-4,1,0,0
9.326795,-6,40,3,11,38,2,6,-9,0
9.340272,3,6,1,3,12,-5,-9,-2,0
9.340298,7,17,0,-1,28,-2,-5,-5,0
9.341970,1,1,-4,-3,-16,2,6,-9,0
9.341982,43,31,5,-9,-25,-4,2,-4,0
9.362655,-16,-103,-14,4,39,-12,-10,-2,0
9.362680,-58,-14,-7,0,40,5,6,-11,0
9.364820,16,26,3,8,11,13,3,-2,0
9.364832,55,-1,-3,-22,-37,-5,3,3,0
9.377639,-40,-44,-7,0,20,-1,-5,2,0
9.377657,18,6,7,-5,-79,-6,4,18,0
9.379082,10,-8,-5,1,-20,-5,-11,1,0
9.379098,16,-2,4,25,68,18,9,-13,0
9.400247,17,17,-4,-2,3,-11,4,-1,0
9.400271,26,55,3,-11,46,-15,-44,-4,0
9.402119,-60,-13,-17,-34,-64,37,-12,-10,0
9.402125,25,10,-4,14,11,-6,-14,6,0
9.424107,-42,103,8,-14,82,23,-14,0,0
9.424126,35,-70,-1,-3,49,54,89,-7,0
9.425805,74,21,20,57,107,-2,-11,5,0
9.425844,-63,-19,3,-14,-68,-45,-24,3,0
9.438150,44,50,21,34,-4,-2,-6,-10,0
9.438162,-64,-9,-10,-15,-49,-3,-15,-13,0
9.444041,15,0,-7,-16,-21,-2,28,12,0
9.444064,-7,-10,-9,-9,17,20,24,4,0
9.460312,38,10,5,-1,-15,-11,-11,-1,0
9.460338,10,48,-4,-13,-42,-17,-13,-6,0
9.461743,-23,-38,-8,0,-7,0,-1,-10,0
9.461769,-6,1,-20,-24,-16,-8,-14,-3,0
9.483047,-11,86,22,6,-36,2,2,-1,0
9.483054,6,-110,-10,-3,-12,0,-4,-1,0
9.484151,-11,94,-57,-30,3,-12,-7,5,0
9.484159,17,-10,50,56,2,11,11,-3,0
9.497901,-25,38,-62,-14,-13,-3,5,3,0
9.497908,-5,18,23,18,2,-7,-4,3,0
9.503999,23,79,-20,-17,-11,-16,-9,4,0
9.504020,9,47,-2,-15,-14,-2,0,-2,0
9.520698,1,51,19,12,-6,3,3,-4,0
9.520729,-26,-58,-39,-12,-6,-5,-13,-4,0
9.523445,6,-44,17,2,-17,-6,-2,2,0
9.523513,-8,56,-1,0,-5,2,4,-2,0
9.542700,-39,-52,9,-4,19,-1,3,2,0
9.542730,13,57,0,-14,-41,-3,-7,-2,0
9.544420,-25,-59,11,0,-18,0,4,0,0
9.544429,-8,-46,-2,4,26,4,2,0,0
9.556546,5,-60,-15,-13,-1,0,-3,0,0
9.556574,-6,-11,3,6,-9,-3,-3,-4,0
9.566045,-7,-27,8,-4,-7,-1,-3,0,0
9.566051,-7,-6,-14,3,-3,1,13,-3,0
9.580323,9,-50,-7,-10,-19,-3,-19,-3,0
9.580347,4,30,1,10,10,0,20,-1,0
9.581943,5,20,11,4,7,-7,1,2,0
9.581951,-4,-4,-6,-15,-12,18,-6,0,0
9.602815,6,-18,-7,-3,6,-54,8,2,0
9.602846,-7,12,10,9,2,1,15,1,0
9.605391,-5,-33,-2,-3,25,-7,-17,-3,0
9.605413,-6,-11,-2,-6,-30,-2,3,-2,0
9.616415,3,-16,-8,-7,-11,15,-1,-2,0
9.616441,5,22,0,3,-1,-5,-18,2,0
9.626095,-12,33,14,5,-15,-4,7,-4,0
9.626104,-15,-30,-32,-5,4,-3,-7,2,0
9.640156,14,-48,-9,-3,3,14,-3,-6,0
9.640176,-11,24,46,10,0,-3,-4,0,0
9.641661,3,-6,-14,-5,4,9,7,0,0
9.641678,0,30,-20,-6,-1,-4,2,3,0
9.662706,10,-4,18,0,-8,7,3,1,0
9.662729,7,-3,-28,-6,6,1,-3,-3,0
9.664214,-10,-40,18,8,0,1,1,-3,0
9.664229,-6,22,-7,14,6,-5,-9,-2,0
9.676509,8,-1,-3,-9,-5,-1,-1,0,0
9.676552,23,-3,-5,2,6,1,-2,-2,0
9.685868,-41,4,-20,-6,-2,-5,-2,-2,0
9.685875,-8,19,43,-1,-6,-4,0,-3,0
9.700334,-3,-33,19,-4,-4,9,0,-1,0
9.700358,-11,-12,13,-1,3,1,0,-19,0
9.701910,-8,25,-59,-8,-5,2,5,-4,0
9.701916,0,-4,42,3,6,-4,-2,-3,0
9.725321,26,-37,28,14,2,10,10,6,0
9.725354,-5,25,-62,-18,-6,-4,-14,4,0
9.730177,-10,-1,26,18,5,-3,0,2,0
9.730197,-25,-30,23,-26,-7,0,1,-6,0
9.736311,40,21,-27,19,11,6,4,0,0
9.736336,-5,-3,1,-5,-10,-3,2,6,0
9.746533,13,-1,-7,-11,0,3,-7,2,0
9.746543,58,-6,-26,-7,-7,-2,-2,4,0
9.760484,-71,-1,-12,2,-8,-4,-2,-1,0
9.760515,11,-16,22,-8,-1,0,0,3,0
9.762111,3,-1,14,4,-7,0,4,-3,0
9.762120,22,16,-8,-5,-3,-4,-4,-1,0
9.784154,0,-28,19,9,-3,1,1,2,0
9.784175,-36,5,-10,6,0,0,-6,-3,0
9.785806,20,8,18,5,6,-4,-3,-1,0
9.785836,-10,-2,-20,1,2,-2,0,0,0
9.796871,-9,0,-28,-11,-4,-1,-3,-2,0
9.796878,-8,-30,1,6,-3,1,-3,3,0
9.806265,29,2,16,4,2,-4,-2,0,0
9.806277,-26,-14,-15,-3,2,2,2,0,0
9.820228,2,31,-10,-3,-1,2,-1,-5,0
9.820259,11,20,-40,-4,1,-2,0,0,0
9.822380,7,-57,10,-2,0,3,4,0,0
9.822401,-6,0,-12,-1,-5,-5,-2,-1,0
9.844452,-4,37,24,6,-3,-4,-4,-7,0
9.844462,6,-88,1,2,8,1,2,1,0
9.844466,-9,68,-5,-6,-79,-1,-4,2,0
9.844470,-5,18,4,-7,93,5,2,-1,0
9.856486,10,-70,-33,-12,-20,3,0,1,0
9.856507,3,-52,1,3,13,-3,0,-4,0
9.865623,-5,39,22,1,-5,-4,-4,-1,0
9.865629,-4,96,18,3,-37,-8,-7,-2,0
9.880066,10,33,-55,-7,38,-3,-4,-1,0
9.880091,-8,-64,80,12,-2,3,3,-1,0
9.881781,-8,-17,2,-2,-14,-1,-1,-1,0
9.881787,-3,-102,-44,-9,23,-1,-1,0,0
9.902670,4,105,46,-9,-4,-6,2,-1,0
9.902694,-2,57,-24,-6,9,-1,-5,1,0
9.904298,9,27,6,4,-24,-11,-5,-1,0
9.904319,-2,-24,15,7,-78,-2,3,1,0
9.916491,-11,8,2,-4,22,-1,1,-1,0
9.916519,4,-6,-9,8,35,-4,-13,-1,0
9.926236,-2,-46,-5,1,25,-20,-7,0,0
9.926246,6,21,-12,-4,-3,18,25,3,0
9.940220,-7,-20,-6,8,-17,-2,-3,0,0
9.940244,4,70,-2,-2,-64,-17,-5,-1,0
9.941820,2,6,-17,-6,55,11,-7,-3,0
9.941864,3,-15,-50,5,2,3,-14,-2,0
9.964097,-1,-32,89,9,-8,4,9,1,0
9.964122,-1,-43,-36,-19,8,10,0,7,0
9.965597,-8,-2,-10,2,2,-1,0,3,0
9.965611,4,83,14,1,1,-6,-4,2,0
9.976606,-7,-29,-43,-14,0,4,-1,-15,0
9.976648,3,-11,13,6,-10,1,4,-13,0
9.985076,-4,-17,2,-13,-30,0,5,-4,0
9.985111,-5,55,3,10,55,-3,-6,-2,0
10.001102,-22,2,-9,2,-6,-6,-7,-2,0
10.001109,-1,-14,29,-1,9,2,5,-1,0
10.001583,8,33,-17,2,7,3,2,2,0
10.001591,-6,-23,15,-4,4,-1,-1,-3,0
12.025567,13,-8,-9,-6,6,6,4,0,1
12.025970,-13,48,5,0,1,-2,-4,-15,1
12.027355,-5,-30,3,1,-9,2,-2,-35,1
12.027407,8,-13,-6,-1,6,3,9,-7,1
12.047800,17,52,11,-4,2,-5,-3,-3,1
12.047828,-11,-19,-3,-5,-30,-1,-9,-24,1
12.049124,-36,-9,-8,0,0,2,6,-9,1
12.049143,34,25,0,-15,-17,-6,-6,9,1
12.061558,-4,9,6,9,33,-5,-6,1,1
12.061580,12,-70,-6,-1,-7,5,7,-2,1
12.071648,22,54,-1,-1,-9,-8,-6,4,1
12.071665,1,-6,-5,-10,-13,-5,-1,0,1
12.085296,-20,-15,1,9,2,0,-1,1,1
12.085322,-36,-31,-9,-9,-19,-2,-2,3,1
12.086623,3,36,12,8,7,-3,0,10,1
12.086631,11,-77,-25,-2,16,1,-2,1,1
12.107895,-11,-13,-1,-12,-18,5,2,-8,1
12.107920,-6,-30,12,9,0,-4,-1,6,1
12.109186,9,83,-2,-7,-20,-6,-2,5,1
12.109200,-5,-50,-4,-9,27,2,-6,-3,1
12.130184,14,-71,7,13,-26,-8,-2,26,1
12.130209,-7,42,-12,-7,-49,-17,-10,-9,1
12.131996,26,68,9,8,35,51,-18,28,1
12.132009,-1,-6,8,27,32,5,14,3,1
12.144699,-7,-18,-8,-19,8,18,-3,-18,1
12.144733,20,-8,6,3,41,-3,15,9,1
12.151268,1,-57,-5,-3,-15,-13,-8,-9,1
12.151285,-38,36,-1,-17,-8,-4,-17,4,1
12.168440,21,25,-7,8,-13,-24,7,3,1
12.168449,2,15,3,9,12,-1,-29,-1,1
12.169053,23,-33,-4,-8,-4,-4,15,-6,1
12.169060,-17,9,5,-4,2,7,-7,-11,1
12.190430,-2,6,2,2,7,-5,2,-3,1
12.190453,8,34,-4,1,10,2,6,-1,1
12.192574,-16,-57,-1,7,-5,-9,-3,2,1
12.192584,24,7,4,2,-13,-5,2,4,1
12.205220,-6,35,1,-4,8,2,-3,-7,1
12.205247,-14,13,-6,-1,-5,1,-1,6,1
12.207787,-17,-25,3,-4,1,-3,0,-6,1
12.207794,5,4,-4,-8,-19,-6,3,0,1
12.228142,3,16,-1,-5,-31,5,3,-1,1
12.228173,1,2,1,14,31,5,-1,0,1
12.229716,8,-34,-8,2,31,-5,2,7,1
12.229723,10,29,0,-1,-25,-4,7,6,1
12.250100,-26,-19,-3,-6,3,-8,-12,-2,1
12.250122,27,10,-7,-16,-12,-5,2,-3,1
12.251769,-8,-9,11,-4,-16,-5,-1,25,1
12.251786,-6,14,-16,-2,3,-5,0,2,1
12.264618,-17,-1,6,4,5,4,-7,-20,1
12.264644,-10,-10,10,3,7,6,7,-11,1
12.271863,20,-3,-11,-7,2,-4,-6,-13,1
12.271905,13,10,0,-5,-7,4,0,-3,1
12.287844,-5,10,-8,0,5,-4,1,-1,1
12.287868,-3,23,-8,-3,-6,-1,0,7,1
12.290256,-26,-87,-7,2,-10,1,3,-13,1
12.290265,10,2,4,-2,9,-5,1,-2,1
12.310477,1,15,-5,-4,-12,5,-3,5,1
12.310530,17,-4,8,20,4,0,3,-3,1
12.311802,7,-22,-14,-8,-3,1,-2,1,1
12.311843,-18,-2,7,-3,-15,2,3,-1,1
12.324554,13,4,0,6,32,-4,2,6,1
12.324570,12,7,3,-5,0,4,-6,2,1
12.331326,9,21,4,-1,6,-3,2,-8,1
12.331351,-16,-19,2,10,-12,-13,-9,-3,1
12.347708,16,16,-6,-10,-8,0,5,0,1
12.347733,0,27,2,-4,-8,-1,-3,4,1
12.349489,-10,22,-4,1,2,-3,-1,-8,1
12.349496,-2,-42,7,1,-10,-3,-3,0,1
12.372188,18,13,2,3,2,4,-5,19,1
12.372202,-2,28,-1,14,13,7,11,19,1
12.372206,-44,-9,2,5,-2,0,-1,-1,1
12.372209,22,-39,-4,5,17,-2,1,12,1
12.387071,-21,-7,3,-3,-5,-4,-3,-12,1
12.387079,-5,6,1,-11,-10,-4,-7,-9,1
12.391602,31,23,0,-3,0,-2,0,-1,1
12.391656,-7,41,15,3,7,3,2,-4,1
12.407707,-5,-18,2,3,-9,-2,-1,-2,1
12.407738,-6,-14,-1,-9,0,5,-1,-4,1
12.409786,-22,-28,3,-3,-8,-2,3,-2,1
12.409794,2,16,-16,-21,-16,3,1,-6,1
12.430143,8,11,-14,3,-5,1,-2,-2,1
12.430168,-72,-49,21,4,-15,-10,3,-2,1
12.431605,8,8,-3,-2,11,8,0,-3,1
12.431647,-2,-7,3,7,7,-4,-3,-4,1
12.444832,12,29,5,0,4,-2,-6,-4,1
12.444868,-11,12,-14,3,-12,2,8,32,1
12.451328,7,-24,-4,7,-7,2,-1,-5,1
12.451346,12,8,3,5,5,-9,-4,8,1
12.467751,-41,-38,-5,6,11,13,3,-7,1
12.467777,36,12,-9,-7,4,-11,-10,-6,1
12.469144,-27,-10,-2,-7,-4,-1,1,4,1
12.469167,6,5,1,-8,-10,-3,1,0,1
12.490250,-9,22,0,-9,1,-1,0,-7,1
12.490274,27,-52,-6,-3,-10,0,5,16,1
12.491847,-7,58,12,6,-2,2,-1,-4,1
12.491969,-1,2,-8,-3,-7,1,1,-3,1
12.504893,7,-9,-2,1,-3,-3,1,3,1
12.504926,-1,-4,1,1,-24,-4,-5,-16,1
12.511392,9,6,1,-9,33,-5,-7,4,1
12.511413,11,5,-1,-4,11,7,2,0,1
12.527595,-12,21,5,8,0,-7,4,5,1
12.527612,24,9,-5,15,13,3,-4,-10,1
12.529181,-20,-29,9,-6,-22,-11,-11,-9,1
12.529248,24,72,5,1,-3,-2,-12,-33,1
12.550181,-39,-54,-9,-5,2,5,6,-16,1
12.550198,-5,0,-5,-7,-1,-3,-3,-4,1
12.551549,4,3,-11,3,-15,-2,4,6,1
12.551556,-11,5,2,0,16,3,-5,-2,1
12.564719,29,-15,-8,-7,-25,-6,-2,12,1
12.564746,-21,-16,0,-3,2,1,2,-5,1
12.571576,12,19,5,11,-1,0,-3,-11,1
12.571611,-8,-12,-4,-2,-1,-4,11,10,1
12.588106,-24,-40,-3,1,2,-5,-13,-7,1
12.588138,16,1,-1,-1,19,7,-1,6,1
12.590675,-18,-15,-7,-5,4,1,2,1,1
12.590692,1,28,-6,2,-11,-4,-4,5,1
12.610292,10,14,4,2,18,-2,-4,-7,1
12.610312,-7,-29,-1,-4,5,-1,7,35,1
12.611743,27,6,-4,0,-6,1,4,2,1
12.611759,-12,-22,0,6,4,2,0,7,1
12.624088,15,32,4,1,-13,-2,-5,-9,1
12.624120,3,13,0,-5,10,-2,-6,-12,1
12.633370,27,-43,-1,3,-4,-1,2,2,1
12.633377,-30,21,-4,-3,9,3,4,6,1
12.647714,6,-18,-4,-23,-19,-5,1,13,1
12.647741,-12,21,-8,0,2,-3,-3,-19,1
12.649674,-2,19,11,9,-2,-1,-2,0,1
12.649688,-5,-40,-7,-4,-11,-1,-4,-9,1
12.670195,-21,-1,1,-17,8,3,0,2,1
12.670218,14,17,-9,5,-6,0,2,-5,1
12.671885,-10,-11,18,-6,6,1,-1,-3,1
12.671939,-51,-23,-8,-10,-11,-6,0,-3,1
12.683942,24,10,0,22,22,7,-1,6,1
12.683948,-6,-2,1,-10,-10,-2,0,-6,1
12.694038,11,12,-8,-4,-7,-4,-1,1,1
12.694046,11,-14,4,-9,12,-1,1,8,1
12.707697,18,36,7,9,1,-6,2,7,1
12.707721,-14,4,-3,-8,-15,13,-4,-19,1
12.709412,-11,-3,-9,-7,-11,-4,4,5,1
12.709419,29,1,3,7,11,-3,-9,-1,1
12.730714,-2,11,-2,-8,-11,-2,-4,-4,1
12.730722,-8,-20,4,0,-5,-5,-2,-4,1
12.731739,28,24,-4,-5,23,5,0,-3,1
12.731759,-3,-19,-4,-2,-16,-2,4,2,1
12.744088,1,-2,-3,-6,-1,-1,0,-2,1
12.745580,-16,6,2,8,2,-3,1,-7,1
12.752978,26,-5,-1,3,-3,-1,-4,1,1
12.752985,-40,-14,-3,3,6,0,-2,-3,1
12.767620,33,-1,-2,3,3,-1,-1,-3,1
12.767679,-27,38,-1,3,5,-1,4,5,1
12.769799,-35,-36,-6,0,-3,-4,-1,-10,1
12.769804,41,24,-1,3,3,0,-6,-4,1
12.790220,-16,-26,10,-6,6,-2,-2,-5,1
12.790241,9,27,-6,-12,-5,-3,2,36,1
12.792546,-6,13,4,-3,0,1,1,-1,1
12.792571,-6,18,8,0,3,3,0,-1,1
12.804034,-9,-12,-8,-10,-12,0,-3,7,1
12.804059,22,-10,8,-10,7,-6,-4,-10,1
12.812842,-21,-12,-11,-1,0,1,2,6,1
12.812866,-16,-5,-5,2,0,1,2,-2,1
12.827650,-30,19,-10,-6,-11,-1,-1,-4,1
12.827674,3,-37,20,17,1,-1,-2,-4,1
12.829190,-9,24,-8,-11,-9,-2,-3,-7,1
12.829204,19,-18,9,4,-6,-2,0,-2,1
12.850340,27,7,-7,11,4,-3,-3,-1,1
12.850365,-40,7,4,-1,0,1,0,-7,1
12.851542,10,26,1,-6,3,-5,-4,5,1
12.851548,7,-21,2,8,-1,-4,-11,-9,1
12.863836,-29,-46,-7,1,-16,1,6,-2,1
12.863860,18,24,-3,-1,0,-6,-3,-1,1
12.872847,3,-25,-1,3,-1,5,-3,-4,1
12.872867,1,16,-6,-5,2,-3,3,17,1
12.889098,17,29,4,-5,-25,-3,-2,1,1
12.889112,-19,-40,-7,3,37,5,1,2,1
12.889356,-25,-8,-2,-10,-5,-7,1,-11,1
12.889475,9,-11,-5,-2,20,42,5,-6,1
12.910702,19,22,11,6,3,-19,-2,8,1
12.910720,-8,-46,-17,7,-9,-8,-6,3,1
12.912544,-8,-79,-9,-4,-12,-19,2,1,1
12.912552,-14,-21,18,15,4,-17,-1,-1,1
12.923915,-11,45,-9,-6,4,-9,1,-12,1
12.923942,25,-32,-8,-7,-16,51,5,8,1
12.934036,7,127,7,11,12,-34,-11,1,1
12.934043,5,-43,-23,0,40,-2,-7,-1,1
12.950669,-18,-63,-1,-5,-28,25,15,-25,1
12.950677,21,102,4,-15,-18,-33,-33,-15,1
12.950681,16,-76,-5,0,1,35,7,1,1
12.950684,-27,9,0,-10,-28,11,-4,31,1
12.970512,19,9,11,7,24,-18,10,4,1
12.970543,-30,-33,-4,-7,-13,14,9,-5,1
12.971710,47,70,7,3,0,-56,-14,1,1
12.971735,-40,8,-4,-2,-21,-10,4,-18,1
12.983865,-13,-38,-4,1,3,6,-2,5,1
12.983892,12,63,-1,-2,-14,-6,4,0,1
12.994630,-23,-64,-9,0,8,8,-4,-10,1
12.994640,41,43,8,-2,-34,-12,9,-4,1
13.007896,-45,-20,-4,1,24,8,-7,0,1
13.007932,4,-15,12,-1,-24,-5,5,-3,1
13.009742,-2,15,1,1,33,12,5,37,1
13.009749,36,-11,-3,5,47,3,-4,-16,1
13.030229,-79,-2,2,-3,1,2,0,4,1
13.030253,12,-19,-7,-2,-3,-6,-13,-16,1
13.031681,1,12,0,9,-29,7,21,-1,1
13.031750,3,-19,-1,-11,11,-5,-19,-8,1
13.052751,26,23,-10,-2,2,-2,-1,4,1
13.052785,-42,-18,1,0,27,-5,3,-2,1
13.059144,24,-6,-6,1,-4,12,-2,13,1
13.059181,-5,22,1,-11,-19,-5,0,-5,1
13.067946,26,12,-2,1,-34,-6,-22,2,1
13.067970,0,-26,1,-4,39,-2,2,7,1
13.069876,8,2,4,1,-16,14,3,-11,1
13.069882,-47,15,-9,4,-8,-2,3,-10,1
13.091406,47,-3,7,2,5,-1,0,-2,1
13.091417,2,-2,-5,-3,-7,-3,-2,0,1
13.091697,-30,-16,-4,-1,12,3,-1,-9,1
13.091708,15,4,-3,-1,-20,-7,2,2,1
13.112747,21,-12,-2,2,0,1,-3,-1,1
13.112775,-35,-6,-5,-7,-11,-7,-5,-1,1
13.114639,17,5,6,-3,-3,-1,0,-14,1
13.114652,13,-3,-7,-6,-10,-3,2,12,1
13.127702,-20,-1,2,0,6,0,1,5,1
13.127721,44,14,-8,0,10,-1,-2,-3,1
13.129271,-23,-20,5,-1,-3,3,-2,-2,1
13.129288,1,-1,-2,6,1,1,-4,-3,1
13.152519,10,18,8,-6,8,2,-1,1,1
13.152532,0,5,-16,5,-5,-2,7,4,1
13.152539,-47,-79,4,5,-5,1,-5,-6,1
13.152546,26,10,13,1,2,3,1,-9,1
13.173267,-1,18,-13,-5,5,-2,-1,1,1
13.173303,-18,7,5,-4,-6,2,0,0,1
13.175069,-2,10,-19,-8,9,-8,-3,-2,1
13.175079,9,11,9,5,8,8,-8,1,1
13.187649,5,-10,-12,-3,3,-5,1,-10,1
13.187672,11,9,10,6,-1,3,3,-7,1
13.194365,15,26,-3,-3,-9,1,-8,-12,1
13.194393,-23,-24,-8,-5,3,-5,1,1,1
13.210469,-3,-6,3,9,-7,0,0,-10,1
13.210500,0,31,6,-3,-5,-4,-1,-2,1
13.212100,-25,-50,-5,-5,-2,5,1,2,1
13.212107,1,28,1,10,-9,-9,2,-1,1
13.232867,7,2,9,-5,14,5,-3,11,1
13.232917,-9,-19,-1,-4,-24,0,0,-11,1
13.234121,10,30,-4,-5,0,-2,-4,0,1
13.234135,-22,-10,9,-3,-5,-4,-3,-1,1
13.247074,15,32,-11,-1,-6,-5,-2,3,1
13.247109,12,-6,10,-2,10,2,1,3,1
13.254060,-19,-21,-4,0,-5,-2,-4,-6,1
13.254087,25,-3,-13,-4,-19,-4,0,-2,1
13.270109,-2,16,0,-8,5,3,-1,-4,1
13.270134,5,-37,-11,3,1,0,1,-1,1
13.271538,23,45,2,-12,-9,-9,-2,2,1
13.271554,-46,-13,2,-10,3,12,8,21,1
13.292760,19,-12,-2,6,8,-3,-2,5,1
13.292770,20,17,-2,0,-8,-1,-8,8,1
13.294246,-21,11,2,-2,23,0,4,-12,1
13.294283,-25,-37,-10,3,-19,-7,-15,-6,1
13.308201,-5,4,4,0,2,9,7,2,1
13.308211,3,-5,-3,-3,5,-3,1,6,1
13.313802,28,-6,5,5,-7,-5,-3,26,1
13.313826,18,12,-2,-8,8,3,0,-5,1
13.330310,-14,-2,0,4,-16,-9,-6,-2,1
13.330335,9,-10,0,-8,-8,-5,0,-5,1
13.331987,15,27,0,3,7,6,2,4,1
13.331993,8,25,-1,1,-3,-7,0,-6,1
13.352593,6,-72,-1,9,0,4,3,-4,1
13.352610,-10,21,0,-11,-28,1,-3,-1,1
13.354139,1,19,0,1,14,4,-1,-4,1
13.354163,21,-4,-1,0,4,1,7,4,1
13.367012,-6,35,-4,-10,-6,-2,-3,-6,1
13.367030,1,-7,-10,-9,6,-6,-2,0,1
13.373845,-49,-52,-7,8,-16,-2,-9,-13,1
13.373865,0,53,10,2,6,-3,-2,-14,1
13.390182,5,-45,-6,-1,0,2,5,1,1
13.390199,-7,15,-3,-5,0,-5,4,3,1
13.391730,8,8,3,-2,-4,2,0,0,1
13.391763,-11,-8,9,6,8,-4,2,0,1
13.412777,6,24,1,1,-11,0,-8,1,1
13.412802,0,-14,-1,2,-2,-7,-8,-23,1
13.414737,12,2,1,-16,-17,-10,3,-2,1
13.414746,-67,-4,-6,-5,31,7,-4,-4,1
13.426712,14,21,6,-2,1,0,6,1,1
13.426745,-21,-77,-4,8,11,3,-2,0,1
13.436652,-11,25,-7,-4,-14,-2,-4,-3,1
13.436661,14,-16,-10,-7,-12,-10,3,1,1
13.450419,-1,3,-2,-10,0,6,-2,-1,1
13.450440,-31,15,7,3,26,-1,-2,-18,1
13.451631,19,-27,1,11,5,6,8,-6,1
13.451660,2,-15,3,-9,-20,1,1,-3,1
13.472723,-9,25,-3,1,4,-6,-2,-3,1
13.472752,-7,1,1,1,-6,-6,1,1,1
13.474293,-9,-2,4,-5,5,7,-5,-5,1
13.474305,11,-15,-15,6,5,3,0,-3,1
13.487072,-11,10,1,1,-9,-5,-2,1,1
13.487096,26,23,1,16,13,-1,-1,11,1
13.494101,-10,11,7,-2,-4,-1,0,1,1
13.494126,-46,-80,-13,-7,-2,2,2,14,1
13.512234,5,37,0,-6,-12,-14,-2,-1,1
13.512242,-7,-16,-1,5,16,13,-6,-7,1
13.512245,64,21,2,10,1,-6,0,21,1
13.512248,-59,5,-3,-1,-10,-1,-4,-16,1
13.532806,31,-30,1,-1,11,2,-6,-5,1
13.532824,-2,14,-3,-5,-22,-5,2,0,1
13.535225,15,4,5,-3,16,0,-2,7,1
13.535276,38,66,-1,0,-2,-1,3,7,1
13.546352,-26,-70,-2,-1,-2,4,1,-4,1
13.546369,1,67,10,-3,-2,-4,-1,-2,1
13.556942,-7,-51,-20,-12,-9,2,-1,-10,1
13.556950,6,-13,11,6,-1,-2,3,2,1
13.570078,-24,-49,-4,15,4,3,-4,-6,1
13.570094,14,7,-5,-4,-17,1,-2,-4,1
13.572294,-22,63,3,-5,-11,-7,3,-7,1
13.572305,5,-39,5,-1,-11,-3,-7,0,1
13.592850,-11,73,-12,-15,29,-13,0,0,1
13.592878,12,-16,-6,3,22,13,6,2,1
13.594306,-11,-53,3,6,22,-4,-6,-2,1
13.594328,34,72,-1,-5,-6,-6,-18,-12,1
13.607606,-23,-54,10,-7,-24,5,5,1,1
13.607614,7,82,1,4,-5,-16,-6,5,1
13.616656,-8,-47,-5,-18,-11,14,10,-19,1
13.616665,25,9,8,4,-12,-5,1,-4,1
13.630248,14,22,-4,0,7,-3,-16,3,1
13.630273,-4,17,7,-8,-4,-4,6,10,1
13.631975,-31,-48,-14,-4,-8,0,-12,-4,1
13.631982,4,-19,-1,4,24,0,4,21,1
13.652556,21,22,0,5,-14,-7,-3,20,1
13.652590,-36,-24,-4,-8,-16,21,3,-8,1
13.653997,45,43,8,9,13,-29,0,8,1
13.654005,1,-3,-1,-5,-7,13,0,-1,1
13.666712,-9,-18,2,-3,-9,10,0,0,1
13.666719,-1,-54,-2,0,-7,-23,-5,6,1
13.676144,-20,32,-3,8,-2,13,-2,-8,1
13.676154,2,-6,2,-3,-19,0,7,9,1
13.690298,20,-3,-3,8,28,-6,-1,-9,1
13.690320,-37,-54,-9,-8,-11,3,6,-3,1
13.691827,-36,15,-2,3,13,4,-7,-10,1
13.691852,18,9,-2,-1,-7,-2,-10,-5,1
13.713298,-4,4,2,2,16,3,16,0,1
13.713311,-3,-35,-2,4,3,-10,-13,7,1
13.714161,17,53,-3,7,28,-1,0,4,1
13.714168,3,-13,-1,-7,-1,3,2,-6,1
13.726954,-20,-3,-3,1,-11,-1,6,4,1
13.728693,38,6,-1,4,16,-1,-1,-1,1
13.736425,-23,-72,6,-1,-29,-5,2,7,1
13.736431,14,94,-12,-9,0,-3,-7,-2,1
13.750268,-6,-9,2,-5,0,-2,12,-5,1
13.750293,-2,14,6,9,4,-1,-3,3,1
13.751667,-1,2,-9,-9,-22,1,-5,26,1
13.751679,-9,-82,-8,-4,16,3,3,0,1
13.772839,6,0,3,2,-9,-4,-3,-1,1
13.772868,20,14,-7,0,0,2,-3,2,1
13.774867,25,25,7,6,-4,-3,-1,18,1
13.774879,-55,-6,2,-1,3,-5,-2,6,1
13.786651,26,18,-10,-7,-13,-5,-3,5,1
13.786682,-37,2,3,4,-1,1,4,-4,1
13.796578,48,-27,-5,-5,-6,-2,-3,-8,1
13.796585,-23,-2,0,0,-3,-3,4,-6,1
13.810447,-18,15,5,-3,-10,1,-4,-3,1
13.810501,23,-23,-5,0,-1,-4,2,-1,1
13.811644,-28,15,0,1,-3,3,3,-11,1
13.811668,23,3,0,4,12,2,1,-3,1
13.832791,-18,-11,-12,-18,-14,0,-7,-7,1
13.832818,5,-10,10,21,40,6,6,-1,1
13.834080,-7,15,-3,0,11,3,2,-5,1
13.834224,15,-24,-7,-5,-7,-4,-1,-10,1
13.846467,-7,13,5,5,1,4,-6,-6,1
13.846492,-2,4,4,0,-8,-3,-6,-21,1
13.856950,0,-11,-1,-1,-13,3,12,8,1
13.856958,18,22,6,4,16,-7,-2,-15,1
13.869504,-10,-24,-7,-2,-7,0,2,-6,1
13.869527,21,-3,-4,-15,0,-4,-10,-10,1
13.871434,-34,18,5,2,1,4,-8,-13,1
13.871440,9,-8,-4,-1,-5,-12,-30,1,1
13.892244,14,23,-1,1,-3,-3,4,5,1
13.892299,-22,-28,-1,11,4,2,4,5,1
13.893202,16,18,21,-2,10,-4,-1,-4,1
13.893234,-2,-4,-4,-1,-7,2,8,3,1
13.914545,0,37,-18,-9,-4,-2,-3,1,1
13.914570,-15,-44,11,-7,-6,0,-3,7,1
13.915968,1,8,-14,3,2,-6,-3,-5,1
13.915974,-23,-18,6,2,-1,3,6,-6,1
13.929576,-9,5,1,-7,3,0,-6,4,1
13.929596,15,-3,-3,-4,-4,2,8,3,1
13.930426,-1,-14,-5,-5,-8,-1,-4,0,1
13.930441,24,-2,6,0,-5,-4,1,26,1
13.952071,6,-7,-2,9,15,11,1,-5,1
13.952090,-32,-24,-8,-5,-11,-2,-4,-3,1
13.952693,-1,-17,7,11,7,-4,2,2,1
13.952709,1,22,-10,-5,6,1,3,-5,1
13.974593,-4,-10,8,-8,-21,1,-5,-5,1
13.974614,21,20,-1,-12,0,0,1,5,1
13.976092,13,36,-16,-10,2,0,-3,-4,1
13.976110,-37,-90,2,16,9,3,9,-4,1
13.989534,3,-30,-1,9,6,-5,-4,0,1
13.989557,-12,23,0,2,-7,0,-1,-3,1
13.991059,-4,5,-11,-9,-1,9,0,0,1
13.991068,-8,-30,1,-5,5,-2,-2,-2,1
14.011907,-2,50,0,-6,-17,-14,-9,0,1
14.011921,-1,-32,-8,-1,7,8,2,7,1
14.012590,-3,-6,3,0,-2,-9,-4,-4,1
14.012597,-3,28,-1,-3,-18,-3,4,-6,1
14.034544,3,-30,5,11,13,5,1,-5,1
14.034577,22,51,-1,1,1,-5,-4,-7,1
14.036821,-14,-17,-4,-16,-6,-2,-2,-9,1
14.036870,16,12,-4,-4,-4,-1,-3,-3,1
14.049763,-24,3,-1,3,-4,-5,1,3,1
14.049796,16,8,5,-10,-8,-5,-4,1,1
14.051749,-11,-14,24,0,9,-14,-1,0,1
14.051757,7,30,-8,-10,1,13,-2,-1,1
14.072234,-3,-15,-16,-5,-2,-8,-1,-2,1
14.072417,-5,-35,-10,-2,3,14,4,3,1
14.074256,20,62,12,-3,1,-7,-9,0,1
14.074267,-1,-41,-4,-6,-13,-10,8,7,1
14.094503,0,2,9,1,15,9,-1,-3,1
14.094522,-9,-24,-5,-13,-33,-14,-9,-19,1
14.095319,11,16,10,20,34,13,5,-1,1
14.095344,-13,20,-5,0,2,-3,-4,-6,1
14.109782,4,-36,8,-1,-5,-4,0,-12,1
14.109828,-4,31,-6,6,6,-4,3,5,1
14.110325,-25,-32,-17,-5,-24,-4,-9,-4,1
14.110343,11,44,8,-9,13,-5,-8,8,1
14.132043,-40,-50,-4,5,19,6,5,-4,1
14.132068,9,48,-1,4,3,-3,-4,6,1
14.134540,4,-21,6,-7,-11,0,4,-1,1
14.134548,-7,2,0,13,12,5,-2,-6,1
14.154498,0,22,-10,-25,-19,-8,-2,0,1
14.154511,-10,-6,3,6,9,1,-1,-3,1
14.155123,9,2,-2,8,5,4,5,1,1
14.155145,17,32,7,7,-2,-4,-4,1,1
14.170233,-3,-36,-3,-7,-5,1,1,1,1
14.170245,-3,-14,0,0,-6,-7,5,4,1
14.170248,-2,0,-1,3,-5,7,-14,-6,1
14.170251,8,7,-10,-4,3,4,4,-4,1
14.192041,10,20,9,2,0,-9,-1,3,1
14.192069,4,39,-1,-8,13,11,5,1,1
14.193862,-7,-39,-9,0,-9,-5,-1,-9,1
14.193871,4,15,1,-4,-6,2,2,0,1
14.216721,-4,22,-9,-2,-10,-2,-4,-22,1
14.216729,1,-40,-1,8,-6,-7,2,-9,1
14.216733,2,42,5,-9,3,-1,5,2,1
14.216736,-2,-24,-9,-2,-6,0,-1,-11,1
14.229429,-2,-9,8,1,27,1,0,-10,1
14.229454,-15,-10,7,-5,-2,-3,-7,-5,1
14.231678,-8,-1,-16,-18,-13,0,1,2,1
14.231684,14,-10,-4,-6,-12,-2,-3,-3,1
14.251914,-35,5,10,5,-8,-1,5,11,1
14.251933,3,-13,-19,-7,9,10,-3,6,1
14.252925,1,-20,-4,3,-5,-5,2,-1,1
14.254473,0,30,-2,-7,-6,-3,-2,5,1
14.274662,21,-8,-2,13,-4,-2,-5,1,1
14.274701,-10,-4,30,-2,-8,0,-2,3,1
14.276197,-9,16,-13,-6,-12,-3,1,-3,1
14.276227,8,-18,9,10,7,3,-2,-3,1
14.289592,-1,7,-1,6,-7,1,3,7,1
14.290982,3,-10,-7,9,1,-3,-3,-4,1
14.290989,10,-10,5,3,15,-3,-8,11,1
14.290992,7,19,-12,-4,-12,2,3,-6,1
14.311962,17,20,16,7,7,4,-4,0,1
14.311980,29,36,6,-9,-8,-9,-1,-7,1
14.312595,-54,-27,12,13,8,8,11,25,1
14.312621,-21,-107,-16,6,2,-5,1,0,1
14.335078,14,45,-22,-10,-9,-4,-2,-3,1
14.335102,17,-15,7,2,-7,-3,1,-1,1
14.336187,-24,-17,11,1,10,2,-7,-14,1
14.336192,13,-20,-18,-3,-17,-6,-2,0,1
14.349784,12,-11,6,7,-31,-1,9,12,1
14.349808,-43,-59,-11,-10,71,11,-5,2,1
14.351958,34,109,14,4,-20,-15,-6,1,1
14.351973,-49,-37,-33,-16,-2,15,12,3,1
14.373798,24,-68,5,-4,24,-14,-15,-4,1
14.373805,-21,71,-4,-8,-33,0,-9,3,1
14.373809,4,60,2,3,2,0,6,19,1
14.373812,5,-30,2,-6,17,-7,-5,3,1
14.394732,-8,28,-12,-9,-10,-3,-13,-7,1
14.394760,-3,-46,8,9,-25,-13,10,4,1
14.395912,2,4,-18,0,18,0,-7,-11,1
14.395918,-2,6,17,-5,-10,-3,0,9,1
14.408989,-6,-18,-5,-7,9,0,1,3,1
14.409030,-5,12,-8,1,-27,-2,-3,-2,1
14.416986,-4,-45,-6,-8,-57,3,1,-4,1
14.417002,30,26,4,14,34,-5,-6,-2,1
14.432080,-2,6,4,1,6,5,-9,10,1
14.432098,-34,-2,2,-1,8,4,16,-13,1
14.433431,40,-27,-6,-6,-8,-7,-20,1,1
14.433439,-11,40,14,4,-11,-2,0,5,1
14.455112,-18,-18,-8,10,1,4,1,-1,1
14.455138,36,17,-7,1,0,5,-4,-3,1
14.455658,-15,-19,2,3,11,-2,18,21,1
14.455690,24,32,12,7,-14,2,-9,-2,1
14.469550,-27,-25,-6,-10,0,2,2,-21,1
14.469568,17,11,-12,-11,-12,-3,7,-3,1
14.470213,-14,-31,-6,0,4,-2,-3,-19,1
14.470292,19,5,1,-4,-5,-1,-6,-6,1
14.492191,-17,8,1,1,-4,-1,8,6,1
14.492220,16,0,2,4,-3,-4,-4,7,1
14.495208,-34,-4,-7,-11,7,-5,-10,-5,1
14.495220,-15,8,3,-1,7,0,1,-9,1
14.515245,29,7,1,0,-7,-5,-4,-7,1
14.515263,-7,36,0,0,-3,-2,-4,1,1
14.515442,-26,-17,-2,3,3,-1,2,-3,1
14.515570,5,3,-5,-6,-9,-4,5,-11,1
14.537847,16,5,20,23,3,3,4,3,1
14.537879,14,-6,-1,5,9,0,-5,2,1
14.540343,18,9,-4,-5,-12,-4,2,-5,1
14.540400,-36,-12,0,3,3,2,-3,0,1
14.552585,8,8,-5,-7,4,0,-4,4,1
14.552617,-16,2,-4,-10,-6,-4,4,2,1
14.555935,20,-20,0,4,-2,-1,-2,-21,1
14.555956,9,16,7,8,2,-1,-3,-7,1
14.574582,-17,-22,-3,-3,-1,0,4,3,1
14.574592,-7,-14,-16,-12,-20,0,-6,2,1
14.575136,13,8,5,-9,-1,1,-4,-2,1
14.575149,-12,-4,6,7,-1,-7,1,1,1
14.589201,22,15,-11,-5,8,10,-1,-5,1
14.589235,-46,-39,0,-6,-1,1,0,-12,1
14.596994,16,-8,-1,8,5,3,5,7,1
14.597018,0,-13,-2,-8,1,-2,0,3,1
14.612150,19,7,-6,-8,-10,-6,-1,6,1
14.612175,-26,18,-13,5,4,1,-1,-1,1
14.613663,-8,20,34,15,-7,-5,-5,-1,1
14.613675,-17,-49,-3,0,3,-2,-6,4,1
14.635098,-16,7,-7,-6,-3,2,8,-3,1
14.635115,26,1,-9,-4,2,-4,-4,-2,1
14.635426,-12,6,1,-1,-3,3,3,-3,1
14.635448,-2,30,1,4,5,0,-2,-2,1
14.649081,15,11,8,0,6,-2,2,9,1
14.649112,2,-5,6,5,-7,-2,-1,0,1
14.657305,-9,-33,-12,-2,15,4,-2,-1,1
14.657329,4,5,2,0,-10,-3,1,-1,1
14.673257,2,5,0,-6,0,1,-3,20,1
14.673300,17,4,-4,17,7,0,3,-3,1
14.673313,-8,-1,-10,-7,0,-4,-4,-6,1
14.673326,11,9,0,-5,-3,3,2,9,1
14.694558,-30,-8,-2,1,0,-1,-2,-12,1
14.694577,12,0,7,-2,6,-4,-2,1,1
14.696669,6,-4,-16,-11,4,2,3,0,1
14.696678,7,12,-7,1,1,0,-3,-11,1
14.717585,9,-13,37,0,-3,3,0,-9,1
14.717602,-1,2,1,7,-4,1,8,3,1
14.718357,28,65,-5,-8,-8,-6,-14,4,1
14.718369,-24,-64,-8,-3,-3,0,8,0,1
14.731954,-11,-4,-11,-2,-3,1,-4,2,1
14.731977,4,8,-6,-10,1,3,3,-2,1
14.732855,7,-7,4,6,-3,0,2,-20,1
14.732873,1,25,3,2,-7,-5,2,-14,1
14.754613,25,6,-5,2,4,7,-1,-14,1
14.754637,-32,-30,0,-12,-2,-1,-7,-6,1
14.757453,19,5,-14,-18,-1,-4,5,-1,1
14.757462,-62,-23,-3,-8,-5,1,-5,-8,1
14.768778,25,17,18,21,2,-8,-10,-7,1
14.768803,32,44,8,-5,3,-1,-4,6,1
14.777363,-15,-84,-7,-7,-2,4,3,10,1
14.777400,28,30,0,-4,-3,-2,-2,8,1
14.792453,-24,23,-4,-2,-3,-3,2,5,1
14.792466,3,-7,3,15,3,-8,-6,3,1
14.792941,6,16,3,2,-24,-1,0,-1,1
14.793011,-5,14,-5,-3,-7,-4,-3,0,1
14.814658,12,-48,-10,0,5,2,3,18,1
14.814712,-4,-17,0,1,8,-2,-2,-1,1
14.816122,-6,2,-2,2,8,2,5,0,1
14.816128,10,3,2,-4,0,3,-2,2,1
14.828947,10,15,-8,-12,-19,-9,-4,-6,1
14.828966,-39,-5,-1,-6,-6,2,1,-20,1
14.837305,26,28,4,10,14,3,0,-1,1
14.837337,18,8,-4,3,2,-1,1,7,1
14.851962,-36,-7,-2,-25,-12,1,2,-4,1
14.851987,24,-13,-6,2,0,-3,-12,-8,1
14.852969,-7,29,7,5,1,-6,-2,2,1
14.852975,20,15,-1,-1,8,1,-1,3,1
14.874594,-1,-15,-1,3,1,-4,4,-6,1
14.874636,-1,-4,-9,3,10,-1,1,9,1
14.875482,-14,-33,16,5,-8,-5,-4,1,1
14.875582,-14,3,7,2,1,1,-4,1,1
14.889418,-14,8,-6,1,4,0,-5,-2,1
14.889458,8,-18,1,-2,-3,-4,-2,3,1
14.897115,-1,29,-8,3,9,1,0,3,1
14.897135,7,-17,14,0,1,-8,-2,1,1
14.911986,-37,-15,0,6,-4,-3,-2,-13,1
14.912012,23,10,3,-4,-2,5,1,10,1
14.913256,-14,2,-9,-8,3,0,1,-2,1
14.913263,-9,10,-7,0,-1,-1,-1,-4,1
14.934451,8,-12,-5,-2,-13,-1,3,0,1
14.934470,-10,15,0,-8,-11,-11,-1,4,1
14.935171,0,-77,-10,-7,-3,8,1,-2,1
14.935189,18,45,3,11,3,-4,-9,-9,1
14.957713,-11,-14,-2,4,4,-1,3,3,1
14.957736,-18,8,10,3,-6,4,1,-6,1
14.959516,6,-20,-10,3,-2,0,-1,0,1
14.959528,1,10,-14,-9,-5,0,1,-2,1
14.972393,3,-1,-3,0,5,0,-2,0,1
14.972412,-6,14,8,-2,2,1,-1,-1,1
14.974473,-8,19,-20,-11,-9,-4,-3,-7,1
14.974484,-7,-94,54,8,1,0,0,-1,1
14.995017,-4,12,-16,-6,2,2,1,0,1
14.995026,9,33,7,9,1,-3,1,5,1
14.995197,-14,-22,-13,-14,-10,4,-6,1,1
14.995205,1,15,-22,7,8,-2,-1,1,1
15.017615,0,32,13,-2,-5,-2,-5,0,1
15.017634,-8,-67,-11,2,12,-1,3,-5,1
15.018787,10,17,9,2,-5,3,2,-1,1
15.018795,-36,-5,-15,-11,-10,-1,1,3,1
17.043114,-7,12,-4,0,32,1,1,1,0
17.043484,15,55,2,4,2,2,-4,-5,0
17.044867,-26,-86,4,2,-12,30,34,1,0
17.044946,17,30,2,-10,-16,-11,-36,6,0
17.057084,-33,-8,6,-6,-49,-4,11,1,0
17.057107,-4,-18,-3,5,51,7,-7,-6,0
17.063870,34,33,9,-8,-4,-2,-9,2,0
17.063894,-31,-15,5,5,8,0,7,-32,0
17.080229,9,78,-9,-4,-15,3,1,-3,0
17.080251,-5,-18,-1,-1,-16,-4,0,-3,0
17.081885,7,-2,-6,2,6,-14,-10,-4,0
17.081898,13,43,6,4,1,0,4,-3,0
17.102614,-26,27,-15,-4,-6,-7,-7,10,0
17.102651,4,-95,14,-3,-11,2,6,-9,0
17.104240,26,63,-3,0,21,-1,-5,2,0
17.104265,0,-1,2,9,-2,-4,6,-22,0
17.117781,-28,-22,-7,-1,-6,13,-3,8,0
17.117790,1,72,-7,-5,0,1,4,-3,0
17.124008,4,-14,-5,-2,0,-7,-10,1,0
17.124041,15,24,2,5,0,-4,6,3,0
17.140493,-2,-47,7,5,-5,-1,1,1,0
17.140560,-11,-14,-9,-2,14,-9,-6,-4,0
17.142265,14,19,14,4,-13,-11,9,1,0
17.142277,8,45,-33,-9,7,0,-4,44,0
17.162604,-17,-65,53,6,0,11,1,-6,0
17.162614,-2,-24,-6,4,-5,-6,0,-1,0
17.164041,-28,-73,-5,0,6,-5,-8,-4,0
17.164057,5,-11,-9,-13,-4,1,2,-3,0
17.177963,3,-28,-23,-9,-2,-1,2,3,0
17.177969,14,-12,8,0,-10,-6,0,8,0
17.183864,-7,54,9,10,9,3,-1,-2,0
17.183901,13,-1,1,-6,3,-8,-19,6,0
17.200096,6,-34,-1,-4,-7,-4,-1,-10,0
17.200120,11,29,2,2,1,8,-3,-15,0
17.201900,-33,-15,-10,-2,3,-2,-4,-18,0
17.201909,-9,25,9,2,-7,0,10,-12,0
17.222802,-6,-16,-7,3,1,2,1,6,0
17.222833,-8,33,-2,-5,4,-4,0,-4,0
17.224975,21,5,-8,-8,-22,-4,-10,-4,0
17.224984,25,-24,-4,1,0,1,5,5,0
17.237109,-46,30,6,0,3,-3,-7,-8,0
17.237135,-4,-14,0,-3,1,6,-2,-2,0
17.244032,-20,32,1,-9,4,-5,4,7,0
17.246572,6,-45,7,7,-4,0,4,0,0
17.260458,26,53,-9,-3,-4,0,-4,6,0
17.260489,5,12,-7,-5,-4,1,-6,4,0
17.261780,-4,22,-14,-8,9,1,-2,3,0
17.261802,-38,-34,77,16,4,0,2,0,0
17.282817,4,55,-9,-2,-8,-10,-1,-12,0
17.282841,-9,72,1,-5,-1,10,12,29,0
17.284811,13,-21,-1,-1,1,0,32,-4,0
17.284819,-26,23,-19,-10,8,-3,0,-6,0
17.297098,13,-64,6,8,-6,-1,7,-4,0
17.297127,32,-22,5,2,-18,-5,-4,35,0
17.304230,28,55,-1,2,9,8,5,7,0
17.304247,-28,-12,-12,-6,-6,-26,6,-1,0
17.320221,7,14,7,-5,0,-6,0,0,0
17.320293,-50,-16,-16,-2,-9,2,2,-16,0
17.321682,28,15,6,2,-5,-17,-29,3,0
17.321699,2,-17,-6,2,7,15,4,-2,0
17.342871,9,-16,-13,-13,-2,4,-7,-1,0
17.342898,-1,22,1,-4,-5,-9,-1,-12,0
17.344154,-6,-44,0,4,4,12,-8,0,0
17.344167,-17,-14,-2,-2,-3,3,0,-8,0
17.356418,14,-11,-1,-5,-2,4,12,10,0
17.356443,7,3,2,-3,4,-1,-7,-8,0
17.365570,-17,-4,6,2,15,-6,-5,-3,0
17.365576,5,35,-10,1,-1,-2,-4,4,0
17.380722,4,-62,-2,4,12,3,5,-18,0
17.380735,5,-31,-11,-4,-3,-1,-14,-8,0
17.381672,2,23,5,-1,18,-1,13,-6,0
17.381708,-14,-30,-4,-5,-17,1,-8,-23,0
17.403616,10,17,2,1,8,1,-5,-11,0
17.403659,-22,21,3,-2,-12,-2,7,-10,0
17.406057,-5,-59,-3,1,-13,-2,-7,2,0
17.406076,32,47,-5,2,2,-2,-13,6,0
17.416824,-10,-39,-6,-8,-12,5,18,1,0
17.416843,-26,-56,-5,4,-3,-6,-5,-1,0
17.426268,-9,12,-1,0,-3,-6,-11,-4,0
17.426282,11,-18,2,0,4,2,2,10,0
17.440202,12,29,-3,1,3,-4,-11,13,0
17.440220,22,28,4,13,7,-1,1,0,0
17.441899,1,2,5,-4,-7,2,2,-3,0
17.441906,-10,-15,-8,2,-7,-6,-2,0,0
17.462751,-2,13,2,-8,6,5,-7,3,0
17.462778,7,12,0,0,-5,-9,3,-8,0
17.464397,0,9,3,-6,-5,8,-1,1,0
17.464425,9,-9,-2,0,-18,8,12,28,0
17.476783,-26,-59,-11,-3,-4,-1,-4,-4,0
17.476818,-9,-41,-7,-4,12,-1,10,-5,0
17.487217,13,5,-1,-8,-14,-6,-18,1,0
17.487225,-9,9,-2,-2,15,0,7,-10,0
17.500253,8,12,2,9,24,20,-6,8,0
17.500279,3,22,3,-6,-10,-40,10,-5,0
17.501644,-6,-22,-5,-1,1,-5,-5,7,0
17.501746,2,40,-1,-4,-23,0,5,27,0
17.523847,-6,-24,0,-1,-12,-1,0,-1,0
17.523856,1,-23,0,-1,6,11,-5,-5,0
17.524251,-9,20,3,-5,-3,-4,3,-3,0
17.524259,-20,-47,-9,0,5,-7,-4,-7,0
17.538743,0,15,-3,-1,1,-6,0,5,0
17.538757,10,9,3,-8,1,3,-5,7,0
17.546119,19,-33,-9,-6,-5,2,-1,-7,0
17.546242,-22,54,9,7,-3,3,-8,-1,0
17.560404,-19,-28,-13,-5,-10,-5,6,-4,0
17.560431,3,2,-1,-2,-7,14,8,23,0
17.562034,-2,19,-2,3,-19,-11,6,2,0
17.562043,16,15,-3,-6,43,7,-6,-11,0
17.582973,15,50,7,4,-9,-10,3,2,0
17.582998,-11,-18,3,5,2,1,-7,-4,0
17.585771,-4,5,-4,2,3,1,-5,-1,0
17.585780,30,-13,-3,-8,-41,0,9,-2,0
17.596421,-10,26,0,-8,35,-4,-9,-5,0
17.597942,6,-9,4,0,-3,7,-3,-5,0
17.607678,-7,-23,7,0,0,-2,2,3,0
17.607688,-22,-25,-9,-7,-5,0,-9,-20,0
17.620341,-1,6,-5,-4,-13,2,-13,-6,0
17.620365,4,18,2,-1,-18,-4,8,-8,0
17.622426,-5,-22,-1,-1,19,0,-2,6,0
17.622434,-10,-7,1,-2,1,-1,2,-8,0
17.643052,6,-5,3,-1,-7,-1,0,3,0
17.643096,-5,21,-2,6,7,-5,-9,3,0
17.645077,4,-8,4,6,-2,3,-2,-17,0
17.645084,18,8,-4,-4,5,0,-1,-13,0
17.656678,-35,-14,-2,-2,-5,-3,-3,-3,0
17.656718,-1,7,-2,-2,3,3,0,-1,0
17.665773,-5,61,-5,-2,13,1,-4,0,0
17.665780,6,11,3,4,-3,-3,12,-5,0
17.680160,23,27,1,4,16,7,-9,5,0
17.680178,-16,-78,-6,-5,-2,2,1,-2,0
17.681644,-5,-11,-1,2,9,-4,-2,-6,0
17.681659,3,4,0,-5,-15,-3,-6,-12,0
17.702796,47,70,8,4,-8,-2,7,-4,0
17.702820,-55,-10,-4,-1,9,4,-5,-7,0
17.704101,-11,4,-5,-1,-8,2,5,6,0
17.704108,-8,9,-4,-2,2,-4,-9,-8,0
17.716847,13,-23,-1,-1,-9,-5,3,3,0
17.716874,21,29,-3,-1,-11,-1,-6,-7,0
17.726761,-13,26,4,5,0,-2,-2,1,0
17.726774,12,-47,-2,2,4,-3,1,37,0
17.741331,-23,21,-6,-6,-8,-4,1,2,0
17.741340,4,5,1,-5,0,-1,1,-3,0
17.741727,2,17,-7,-14,-75,-5,1,4,0
17.741735,11,35,-1,6,68,1,8,-7,0
17.762616,-13,-37,1,-2,-23,1,-17,-4,0
17.762634,7,-9,-6,-1,-20,-6,13,30,0
17.764600,22,22,5,-2,63,61,5,6,0
17.764617,-13,-52,-14,-18,-10,-81,-60,6,0
17.787214,5,-15,-4,5,-35,-4,-8,-3,0
17.787223,27,30,2,2,32,8,8,-13,0
17.787226,15,-24,8,-7,-41,-14,-7,-6,0
17.787230,-59,1,1,3,-10,26,15,6,0
17.800670,0,-7,2,3,33,0,1,5,0
17.800702,-6,-9,-2,-1,-29,-19,-15,1,0
17.802736,8,-16,-6,3,13,-4,-6,-1,0
17.802749,2,6,10,3,-1,13,3,-14,0
17.822755,6,-22,-10,-4,-7,-14,2,2,0
17.822775,-1,114,22,5,-2,12,3,-8,0
17.824172,-25,-80,-14,-6,2,-12,5,-1,0
17.824198,15,96,-1,9,2,14,5,-4,0
17.845170,2,26,24,6,-11,0,3,-4,0
17.845191,-5,-47,-18,-5,6,0,-2,3,0
17.846650,-21,-43,-17,-1,15,-5,1,-1,0
17.846666,-11,-53,2,-4,-26,-3,0,1,0
17.860405,31,125,-3,-4,6,-1,-1,0,0
17.860433,-14,16,16,6,8,-1,-4,-9,0
17.862802,6,-1,-9,-2,-6,-9,-2,0,0
17.862809,10,-34,-5,-1,-8,8,7,-2,0
17.882732,-5,-66,2,-2,-18,11,9,-1,0
17.882753,-5,-42,-8,-10,68,33,36,-2,0
17.884260,18,32,11,0,-33,-16,-15,-3,0
17.884279,9,12,-2,-5,-5,5,3,0,0
17.905484,-19,-29,-5,-1,7,-5,0,-1,0
17.905519,15,24,-1,11,-15,-3,-4,-1,0
17.907645,-7,41,-5,0,11,-2,0,-1,0
17.907654,-9,-64,0,-4,3,7,6,-6,0
17.919492,-8,-26,-15,4,3,9,0,-2,0
17.919510,9,-32,-2,-13,-15,-7,-12,-2,0
17.926699,-18,-38,2,21,15,-3,6,3,0
17.926732,11,101,64,9,-9,-6,-12,-4,0
17.943103,-39,-93,-23,-10,5,0,8,2,0
17.943151,18,9,-8,-5,-11,-10,-14,-6,0
17.944895,7,4,-23,-7,0,-3,4,0,0
17.944906,12,-25,-16,-5,-6,0,2,0,0
17.965098,17,-1,5,2,2,-4,-1,0,0
17.965125,-14,65,12,2,-2,-4,-3,-4,0
17.967332,-43,30,9,1,-10,1,-9,-1,0
17.967345,0,4,-7,3,1,3,2,-7,0
17.979571,3,46,8,10,7,-1,2,11,0
17.979596,17,-66,-13,-8,-10,-7,-11,8,0
17.986268,-1,17,-1,-9,-2,-3,-3,-15,0
17.986293,22,7,-11,-1,1,1,0,1,0
18.002685,51,-13,-1,-11,-5,-8,-3,-6,0
18.004072,-62,5,-5,-2,-13,2,-1,-6,0
18.004204,18,-8,16,9,15,4,7,6,0
18.004236,-17,3,0,-2,-1,1,3,3,0
18.025409,-9,-4,-17,-7,-1,0,-3,-5,0
18.025458,16,-11,-1,11,-4,-2,-3,0,0
18.026779,18,22,5,-1,4,-1,0,0,0
18.026842,-18,-2,-21,-2,-2,-1,0,-1,0
18.039497,-23,17,31,8,-3,-4,-2,1,0
18.039517,72,80,9,2,-2,-7,-6,-11,0
18.046359,-50,-48,0,-1,4,2,2,1,0
18.046458,25,40,-10,-2,0,-2,-4,-4,0
18.062730,-9,-22,-3,-3,2,0,0,-3,0
18.062755,-51,10,-4,3,0,-2,0,2,0
18.064366,26,1,6,-2,0,3,0,-6,0
18.064408,18,9,-11,-10,-6,-5,-5,0,0
18.086010,-3,53,9,9,1,-2,-1,1,0
18.086019,24,-30,2,-5,3,-1,0,-3,0
18.086535,-12,-3,-11,-7,-8,-1,2,4,0
18.086551,-6,16,7,14,4,0,-4,-6,0
18.102158,1,-58,-2,0,-2,-1,9,-2,0
18.102166,2,37,-6,1,1,-2,-1,5,0
18.106621,13,32,0,-4,-3,-9,-5,1,0
18.106645,-7,-9,3,1,-1,4,-4,1,0
18.122883,-8,0,4,2,0,0,5,0,0
18.122913,23,50,0,-1,5,-2,-3,1,0
18.125043,-1,-62,4,0,5,1,4,1,0
18.125052,-8,12,1,-12,-49,-8,-3,2,0
18.145251,-8,-20,-6,6,77,8,-2,-6,0
18.145278,-6,-18,-1,-4,0,2,1,2,0
18.147434,-8,14,-3,-6,-32,-8,-3,-1,0
18.147445,-3,4,2,1,24,8,0,0,0
18.159685,-2,43,5,-6,-47,-5,-7,0,0
18.159713,-30,-120,-14,-2,-35,2,3,-1,0
18.166351,6,-14,4,-12,7,1,-1,1,0
18.166378,-3,-2,1,10,-9,-1,5,-1,0
18.182636,12,19,-16,-19,-27,-7,-6,5,0
18.182653,-34,-48,-9,-7,18,-14,-8,-6,0
18.184058,9,12,7,-6,-58,4,7,-4,0
18.184081,0,-23,-1,-4,8,-3,0,2,0
18.205309,-17,70,-15,0,-52,-13,-12,-7,0
18.205341,-1,-4,3,-26,-39,2,7,-3,0
18.207167,1,31,-4,-2,-18,-3,-7,2,0
18.207178,1,-76,4,26,120,4,1,-2,0
18.219426,6,34,2,1,-95,5,10,0,0
18.219444,2,-41,2,1,97,2,-6,2,0
18.227582,1,-15,-10,-4,7,15,2,-5,0
18.227590,9,65,10,9,-53,-1,5,1,0
18.243886,-24,-79,-9,-11,-59,-4,-7,5,0
18.243903,7,45,11,43,88,16,12,6,0
18.244230,10,27,5,12,49,-1,-9,0,0
18.244242,-10,-48,-13,-15,-81,-8,11,-6,0
18.265106,22,56,6,15,113,16,-28,25,0
18.265131,5,-20,-7,-14,-45,-9,17,2,0
18.266645,-15,-35,-2,-4,-7,-7,-11,-5,0
18.266655,17,117,6,-3,-19,-3,-5,-7,0
18.278813,-2,-1,-1,-4,9,-5,-4,-6,0
18.278832,-7,62,3,-3,-41,-1,-10,0,0
18.289204,-1,8,-5,8,27,0,7,6,0
18.289233,4,1,4,-6,-3,-2,-4,4,0
18.302784,-25,-94,-2,-5,17,0,10,-10,0
18.302804,10,24,0,1,-6,-4,-8,-6,0
18.304223,-1,27,-1,4,-23,-6,3,-29,0
18.304235,-10,-15,-24,-13,14,4,1,-9,0
18.325334,-5,-18,27,5,12,-4,1,-6,0
18.325362,3,-71,-11,-4,-28,0,-4,-2,0
18.326943,-29,4,-10,-9,-3,0,-7,-9,0
18.326952,-24,-29,-40,-6,3,1,-1,5,0
18.338840,-2,41,38,8,18,0,3,0,0
18.338862,10,-25,11,1,-18,-4,-1,1,0
18.347981,8,68,-2,3,3,-3,1,8,0
18.347988,-31,-25,-9,-2,10,-1,-8,2,0
18.362615,36,-49,-22,-5,-11,-4,4,-4,0
18.362633,-11,53,1,-9,-3,-1,1,2,0
18.364865,-10,-66,-3,-4,-2,0,0,9,0
18.364876,-3,-2,11,4,-3,-1,0,-4,0
18.385323,11,25,-7,-4,1,-6,2,26,0
18.385347,9,15,1,0,-16,-4,-2,-1,0
18.386783,1,2,-2,0,8,-1,0,-22,0
18.386801,32,13,14,-1,-1,-6,6,7,0
18.398839,-20,-35,-9,-5,2,10,1,-14,0
18.398859,17,5,-11,-10,-12,-12,-7,1,0
18.409110,-52,12,7,5,-17,6,10,0,0
18.409120,17,10,9,0,-9,-3,-5,1,0
18.422953,5,11,-8,-1,40,-1,8,-8,0
18.424298,-16,4,5,4,-18,-15,-31,-2,0
18.424308,29,1,11,4,9,3,-2,7,0
18.424311,-17,-50,-11,-1,-6,3,-4,-5,0
18.445352,29,50,-3,-3,-12,-13,2,8,0
18.445372,-61,-56,-9,-8,-1,7,3,0,0
18.446788,20,-24,-2,6,5,-3,3,10,0
18.446807,11,-4,5,-5,0,0,0,3,0
18.459278,3,69,-12,-3,-11,8,0,-10,0
18.459289,3,-19,20,8,7,3,6,-3,0
18.469990,19,8,-4,3,-3,-1,-6,1,0
18.470000,-4,36,5,-10,-1,-1,3,1,0
18.482774,-12,-43,-1,17,1,-2,-7,-2,0
18.482796,15,16,-1,-1,-1,8,2,-3,0
18.484725,-7,37,-11,-8,-6,-7,2,7,0
18.484742,1,-63,6,1,3,-1,-2,0,0
18.507688,-16,12,-16,-11,1,-3,-4,-6,0
18.507705,-7,-9,-8,3,-3,0,3,-3,0
18.507711,6,-6,8,-1,-56,2,4,2,0
18.507715,-12,12,-6,-5,65,-3,-3,2,0
18.518856,0,-3,5,-8,1,24,-4,-5,0
18.518875,6,-6,-3,4,-4,-39,8,0,0
18.528731,-10,9,-2,2,-5,1,-7,2,0
18.528744,-1,19,5,0,-45,-1,3,-4,0
18.543051,-23,-45,-8,-4,-8,-26,1,21,0
18.543097,10,35,10,5,-36,9,-10,-4,0
18.544330,-3,1,-10,-23,-8,-6,-4,2,0
18.544453,0,-68,1,12,-2,-7,1,9,0
18.565369,-1,29,5,1,-14,7,6,-5,0
18.565388,1,-12,-11,-3,3,8,5,2,0
18.567238,12,11,0,-6,-8,-5,-8,4,0
18.567247,-3,-6,-4,-10,-4,6,-1,-8,0
18.578977,4,49,7,8,10,-3,-2,-8,0
18.579003,-2,-75,-3,-3,-7,6,0,-2,0
18.588866,-9,-1,-4,4,22,-3,4,-4,0
18.588891,8,21,3,2,-12,-4,-5,0,0
18.602871,4,1,-2,-5,2,9,0,-7,0
18.602896,-11,20,-3,-4,-11,-5,-3,-1,0
18.604389,20,-17,1,8,12,7,6,1,0
18.604416,-2,30,2,1,-30,6,6,-2,0
18.625564,-11,-25,1,0,9,-5,-9,3,0
18.625601,2,16,2,-2,15,8,4,-2,0
18.627841,1,-91,-9,5,27,0,6,4,0
18.627853,14,73,-2,-10,-19,-7,-7,-3,0
18.639087,-19,-7,4,12,-21,-7,0,-6,0
18.639153,28,30,-3,-15,32,3,-3,1,0
18.647910,-18,11,4,3,-14,-1,-2,-1,0
18.647943,-30,-56,-6,-5,11,0,1,-1,0
18.663647,14,-25,-10,-7,-4,-2,-2,-4,0
18.663659,-7,11,11,8,4,2,3,0,0
18.664344,-8,-2,6,2,-1,-3,-3,1,0
18.664416,6,12,3,6,12,2,-3,-2,0
18.685333,-5,21,-2,-10,0,-5,0,-2,0
18.685359,5,44,-4,-3,-14,0,-2,-1,0
18.687047,10,-38,2,2,9,1,-2,0,0
18.687062,2,31,-4,-7,3,-1,-3,-2,0
18.698932,9,-4,2,3,-5,-1,1,-1,0
18.698955,-4,-18,-3,-4,-44,-2,0,-1,0
18.709450,0,39,4,0,43,1,-2,-1,0
18.709470,7,-10,2,-3,1,0,2,2,0
18.722915,-14,-19,-8,-3,-5,-6,-3,-4,0
18.725190,4,1,1,10,10,-1,-1,-3,0
18.725205,11,26,-2,-6,-9,4,-2,-3,0
18.725211,-9,-4,1,3,-9,-1,-2,-1,0
18.745303,3,1,-1,-6,5,-4,0,-3,0
18.745334,-14,-5,-3,0,4,0,-3,-6,0
18.746958,15,7,20,6,-9,-1,4,22,0
18.746989,4,12,-14,0,15,1,0,4,0
18.767800,-12,-27,13,5,-10,1,3,-1,0
18.767826,-1,-25,-29,-11,7,0,0,-2,0
18.769230,-9,-3,17,8,0,1,-1,-6,0
18.769323,0,-2,-7,1,-5,2,-2,0,0
18.782804,13,17,-1,-5,1,-3,-1,3,0
18.782835,-2,-2,-4,-4,1,1,0,3,0
18.784319,-3,-7,-10,-2,1,-3,-3,-6,0
18.784343,0,12,3,-3,12,-10,-4,-1,0
18.805778,-2,-35,-4,1,-28,7,10,-3,0
18.805816,12,15,0,1,19,5,5,3,0
18.806937,-27,-41,-4,-1,-5,30,6,-3,0
18.806965,1,-24,2,0,1,-17,-28,-5,0
18.827814,24,63,-4,-3,7,-2,-3,2,0
18.827847,-39,-34,9,4,-3,-1,4,21,0
18.829530,18,-46,-10,-2,-6,6,1,-8,0
18.829543,-54,-49,-10,-4,0,-8,-5,2,0
18.843152,-12,7,3,-4,-1,18,11,1,0
18.844693,8,-22,-3,-2,-8,2,-7,-4,0
18.844708,0,47,5,-5,-12,-11,9,-5,0
18.844714,13,7,-4,4,11,2,-20,0,0
18.865257,2,18,6,3,-29,-9,-1,-5,0
18.865284,-34,-15,-13,-5,28,2,-2,-8,0
18.866911,-11,-36,-3,-7,-61,-8,-2,-3,0
18.866937,45,93,3,10,0,5,20,-6,0
18.889433,8,-109,-13,-17,-77,11,-24,3,0
18.889487,-28,1,6,17,76,18,-4,-5,0
18.891048,9,78,-2,0,55,-6,-16,0,0
18.891057,-5,-35,-3,-12,-34,5,-7,1,0
18.902053,3,8,1,6,-16,-17,46,-3,0
18.902077,23,26,13,-4,-58,-1,-18,-2,0
18.909167,-13,13,-8,3,12,-7,-16,-1,0
18.909204,-9,-41,6,3,4,8,24,-24,0
18.925477,-10,-49,-4,5,42,6,-30,-3,0
18.925515,39,94,6,4,41,-11,7,-3,0
18.927070,-11,-46,-8,1,-36,-4,6,-6,0
18.927079,-9,-30,1,-8,-39,2,7,4,0
18.947666,0,48,4,-2,21,-8,-2,3,0
18.947685,-4,-36,-3,-1,4,-15,-5,-10,0
18.949233,1,-2,1,-4,-65,0,1,2,0
18.949253,12,1,-2,0,1,1,-12,25,0
18.962158,-3,-1,0,1,-8,-2,-5,-5,0
18.962165,0,-4,-2,-13,-69,-3,-2,-3,0
18.968834,33,73,2,-1,54,0,3,-2,0
18.968857,-33,-44,-5,-1,6,3,5,-1,0
18.985446,-1,6,0,-2,-11,-9,-4,2,0
18.985469,-8,-4,1,-4,-49,-1,0,10,0
18.987245,8,54,-11,-4,25,-4,-5,-5,0
18.987251,18,16,21,9,-12,-1,10,11,0
19.009365,-29,-6,4,0,31,-3,-10,-5,0
19.009376,-7,13,-20,-8,9,-1,-1,-2,0
19.009380,28,-27,-14,-10,8,-4,1,-4,0
19.009383,-14,46,10,6,23,-6,1,-13,0
19.022067,-4,-32,53,13,13,6,0,3,0
19.022093,-12,45,-16,-5,9,-5,2,4,0
19.031598,-14,-31,-5,-1,-14,-3,1,3,0
19.031605,15,-39,22,-4,-6,3,-4,-4,0
19.045240,20,59,-16,3,10,-4,-5,-1,0
19.045258,-43,-86,23,1,-11,1,3,-1,0
19.046621,-2,-27,2,-6,1,-4,-3,1,0
19.046681,11,59,-53,-2,8,-4,-5,4,0
19.067771,20,-76,28,13,15,4,4,-7,0
19.067795,-50,17,20,3,9,-1,2,-2,0
19.069756,26,-23,8,-1,-6,0,-2,0,0
19.069769,-14,51,-42,-9,0,-6,-4,2,0
19.081439,5,10,6,-8,1,0,-2,1,0
19.081464,25,-10,-12,-5,-9,-2,-1,-25,0
19.091946,-10,67,-73,-7,0,-3,-2,-6,0
19.091956,-5,-19,32,1,2,6,4,-12,0
19.105214,1,8,-26,3,7,-5,-5,8,0
19.105235,4,-4,0,-7,-4,0,0,-3,0
19.106876,-33,13,-51,2,2,-5,-2,-1,0
19.106937,23,5,26,-2,3,1,-1,5,0
19.127897,-17,29,-28,-10,5,0,-3,-2,0
19.127935,23,1,-21,13,19,4,4,1,0
19.129548,-2,16,-64,-21,-20,3,-1,4,0
19.129557,-8,-30,73,24,1,-6,0,0,0
19.141419,-16,-52,-19,2,-4,-1,4,-2,0
19.141447,11,34,3,-8,-12,-11,-5,5,0
19.150630,-9,-12,21,2,4,0,-1,-3,0
19.150646,-9,-8,-20,-1,9,5,2,-7,0
19.167025,-1,60,-36,-13,-3,-1,-3,-9,0
19.167035,43,31,25,2,-1,2,6,32,0
19.167039,-33,-83,44,12,-5,-5,-2,-18,0
19.167132,-5,14,-11,-12,6,8,-1,-6,0
19.187734,-1,11,13,4,10,2,4,-1,0
19.187754,4,23,-3,-4,-13,-7,-11,-3,0
19.189922,18,-9,33,15,14,7,12,5,0
19.189933,-2,31,-19,-8,-14,-11,5,5,0
19.201297,-10,-10,-2,-4,-2,-6,-5,0,0
19.201315,-7,-79,-12,4,-10,39,-3,-5,0
19.211004,19,67,16,-16,4,-24,9,2,0
19.211011,2,6,-12,5,10,5,50,-4,0
19.225455,-1,-51,7,-4,21,-12,-25,3,0
19.225492,0,13,3,-2,-4,3,16,-3,0
19.226983,-5,41,26,-5,-72,9,-4,-2,0
19.226991,2,-12,-8,16,24,7,-17,5,0
19.247705,-15,74,-4,7,101,-11,-17,-24,0
19.247730,-1,-86,-14,-14,13,13,33,8,0
19.249180,-1,37,11,-6,-80,0,-2,-1,0
19.249199,-23,-32,-16,-13,44,-9,-37,-6,0
19.261325,0,8,0,14,29,4,21,-1,0
19.261345,7,34,-3,-4,-8,-12,-28,-4,0
19.270734,-9,-55,10,13,37,1,-23,2,0
19.270747,-19,-28,-14,-15,14,-7,18,-2,0
19.285099,-5,-24,-3,-18,-74,6,-10,10,0
19.285122,9,49,-6,-11,-41,-15,11,-13,0
19.286579,4,-61,11,10,57,10,3,6,0
19.286614,12,1,-1,-2,-30,-4,-4,3,0
19.307642,-33,29,-5,-5,-23,-3,-3,10,0
19.307667,20,25,5,10,-18,-12,-11,-4,0
19.309362,0,11,-7,-12,-9,-6,-3,-9,0
19.309439,8,-2,-3,8,-6,-3,-22,-9,0
19.322747,7,26,7,5,-9,7,18,-7,0
19.322761,-15,-21,2,-4,10,-9,-34,-1,0
19.331787,-7,-1,0,1,27,1,23,6,0
19.331794,14,16,-7,-12,-39,3,9,8,0
19.345160,-5,8,12,-2,-2,-1,2,2,0
19.345184,-22,-22,0,13,41,-3,-8,3,0
19.346587,2,-15,4,-4,21,2,-7,-5,0
19.346609,7,42,-3,-2,-26,-4,-3,3,0
19.369087,-3,-56,-3,-8,-31,-7,4,0,0
19.369093,11,58,-20,3,14,-1,2,-1,0
19.369097,-49,-74,-1,-11,-5,1,-2,-1,0
19.369100,14,0,83,17,0,-1,-2,3,0
19.381603,42,13,-21,-7,-4,1,-6,3,0
19.381638,8,11,7,7,3,-3,9,-3,0
19.391587,18,32,-38,-9,-9,-3,-7,-1,0
19.391596,-1,38,-8,-11,-2,-9,-15,19,0
19.405445,-6,-77,49,14,0,2,8,-22,0
19.405467,8,65,-53,-11,-10,-5,-2,4,0
19.407805,-7,-14,-25,3,0,2,5,5,0
19.407813,-27,-64,5,19,5,3,-1,-10,0
19.427793,6,42,-19,-20,-8,-1,-1,0,0
19.427810,-13,-20,-15,4,0,3,9,0,0
19.430212,-23,8,6,11,4,-6,-14,0,0
19.430224,2,6,-15,-1,0,3,3,-20,0
19.441375,-22,1,-26,-10,-12,-2,-4,-17,0
19.441399,-1,-36,19,1,2,3,1,-1,0
19.452250,9,38,11,0,5,-2,-8,-7,0
19.452258,23,-46,-5,-6,-6,-3,-4,-16,0
19.466109,-28,11,-31,0,-10,-2,3,-4,0
19.466132,12,-2,43,-4,-3,-5,-2,-2,0
19.471577,45,-53,21,20,9,2,5,-1,0
19.471611,-53,-10,57,-3,-5,-2,2,2,0
19.487734,53,10,-7,-2,0,-3,-8,5,0
19.487767,-18,-11,-14,-8,-5,-1,-1,-4,0
19.490100,13,26,-11,-17,-7,-3,1,2,0
19.490109,-22,12,-31,1,4,0,-6,-6,0
19.501316,44,-14,-2,-11,-4,5,2,9,0
19.501334,-20,-17,16,20,-7,-2,2,1,0
19.511161,45,38,18,5,1,-1,-5,2,0
19.511170,-12,-36,-41,-11,-1,2,3,6,0
19.525511,-68,-42,20,9,-2,-2,3,5,0
19.525539,15,63,-12,-8,0,1,-7,-3,0
19.527150,0,-12,-3,-3,-2,5,10,6,0
19.527158,3,20,-7,-1,-2,-14,-25,-4,0
19.547649,1,68,-10,1,-8,4,5,4,0
19.547674,1,-105,12,-3,4,0,3,3,0
19.549035,-28,53,7,-3,4,0,3,-10,0
