timestamp,emg1,emg2,emg3,emg4,emg5,emg6,emg7,emg8,label
2.000722,-21,-4,-5,11,-42,-14,-51,-56,3
2.001002,11,3,-2,-12,64,30,15,35,3
2.021836,3,-2,-2,6,-17,-13,18,22,3
2.021863,-11,-1,2,15,4,-14,-24,4,3
2.023848,3,-2,-5,-53,-71,-33,-10,0,3
2.023854,4,-1,-2,-19,7,9,-53,6,3
2.044240,6,1,5,63,107,12,66,17,3
2.044261,-2,3,-6,-3,21,48,15,3,3
2.045699,0,3,5,-6,-59,-33,60,-22,3
2.045723,-11,-1,-5,2,10,1,29,26,3
2.059055,13,-4,-7,-14,14,36,-1,-42,3
2.059059,-14,0,1,4,-44,-86,-63,-2,3
2.065306,-5,-7,-1,9,25,88,8,18,3
2.065330,-9,-4,1,-10,-112,39,30,-28,3
2.081648,-7,5,1,5,-38,-47,-6,29,3
2.081668,6,-4,-5,-4,20,5,-37,-22,3
2.083181,3,4,0,-15,-54,7,29,-3,3
2.083189,4,2,0,-19,-35,-39,5,23,3
2.106180,-4,-4,-2,-12,-3,28,-16,6,3
2.106192,6,0,-2,-7,-7,-13,-4,0,3
2.106194,-9,2,1,14,31,12,-19,-1,3
2.106196,12,-3,-2,-12,44,-6,14,3,3
2.118696,-11,-8,-5,-28,-128,4,-1,3,3
2.118720,-6,-9,-10,45,16,-7,-78,-27,3
2.125784,-10,-5,-9,-18,-46,5,3,5,3
2.125805,15,3,-1,0,-28,27,-64,58,3
2.141922,18,-1,-2,-6,-19,-22,11,20,3
2.141943,-13,1,2,-2,-13,10,39,33,3
2.143308,-11,-11,-5,-8,14,16,-36,-42,3
2.143469,-8,-4,-1,11,-17,-13,-38,-31,3
2.164589,1,3,3,2,16,-2,9,-15,3
2.164616,14,5,2,-7,-3,-11,21,35,3
2.166109,9,7,1,7,5,-13,7,-6,3
2.166115,5,4,0,-3,-52,-11,23,-5,3
2.178605,0,2,0,36,78,23,43,35,3
2.178632,-2,-4,-1,-18,41,11,-53,-46,3
2.185288,4,1,-2,1,-25,-60,13,29,3
2.185304,-3,-6,-5,10,-17,89,-16,89,3
2.201671,-9,-1,-1,-10,-8,-26,-23,-78,3
2.201682,10,2,3,17,18,24,40,53,3
2.203191,1,-1,-1,-2,26,-45,28,-65,3
2.203207,-6,0,-3,-6,11,-43,-31,12,3
2.224128,-4,1,1,5,-14,-14,20,1,3
2.224149,3,0,1,-6,-13,16,24,-29,3
2.226767,-5,1,2,-3,-50,-37,-18,11,3
2.226777,0,-2,-1,14,27,42,18,-29,3
2.239095,-5,-1,-3,-11,64,89,17,13,3
2.239126,3,5,3,3,-23,44,96,10,3
2.245476,-2,-1,0,2,-78,-17,-37,20,3
2.245503,-11,-3,1,6,100,40,-44,-49,3
2.263396,4,-1,-6,-40,-52,32,-57,12,3
2.263402,-8,-4,-3,0,-22,61,-28,44,3
2.263404,-38,1,2,-5,4,127,12,-96,3
2.263406,19,-2,-1,13,-16,-14,36,66,3
2.284171,8,5,4,-6,-19,-41,-5,20,3
2.284194,-2,-3,-1,-4,7,-10,4,-42,3
2.285769,6,-2,-2,-6,5,1,-4,11,3
2.285785,-4,-2,-1,-8,-28,-53,-8,-21,3
2.298728,-3,-2,2,13,18,14,13,18,3
2.298746,10,-3,-2,-2,-3,-40,1,3,3
2.305281,6,-1,1,11,-3,-18,-4,29,3
2.305303,-10,-1,-1,-3,-9,-27,-10,-27,3
2.322707,5,3,1,13,27,-57,18,34,3
2.322728,-1,-7,-3,-6,-63,40,-19,-54,3
2.324717,-17,1,-2,-7,58,1,16,13,3
2.324722,-3,-2,-1,-10,-10,-33,68,45,3
2.344572,-13,4,1,1,-34,0,-81,-82,3
2.344600,-15,-11,-7,-7,-13,19,30,-14,3
2.345838,11,0,-2,1,13,19,21,16,3
2.345853,-5,-1,1,2,-32,-17,-4,-25,3
2.366691,2,0,0,3,-9,-1,32,19,3
2.366707,6,8,2,-19,-39,-80,-8,1,3
2.368196,1,2,6,7,46,110,31,20,3
2.368212,8,2,-1,0,66,10,-17,4,3
2.381796,-2,-8,-4,8,-35,-13,3,-30,3
2.381813,14,1,0,-8,15,-16,-14,0,3
2.383491,1,-4,-1,-1,-32,-9,12,13,3
2.383496,0,-2,-2,-9,-110,-35,21,-11,3
2.404329,-8,-7,-4,-16,88,-23,29,5,3
2.404344,14,3,-2,8,-28,18,11,19,3
2.405798,-1,-3,-2,2,78,-17,-32,37,3
2.405816,-13,-1,0,-2,-24,-10,-5,-31,3
2.417863,-20,-6,-3,-12,-40,-25,-6,-9,3
2.417880,1,-1,-1,17,-20,-57,-28,-44,3
2.429509,20,4,-3,-5,-36,0,-4,69,3
2.429527,-19,-7,-5,-5,22,2,-54,1,3
2.441855,14,0,0,0,-30,-41,-37,9,3
2.441870,-5,1,2,3,29,-28,17,21,3
2.444092,-1,-2,-4,-7,-11,11,-6,-30,3
2.444099,-24,0,0,3,31,-18,-27,-2,3
2.464618,25,-1,-1,4,-40,85,16,-22,3
2.464676,-24,-4,-3,-8,15,24,-3,60,3
2.465854,-7,2,0,-21,20,-54,-52,-33,3
2.465871,18,6,-1,-9,74,-6,-35,-19,3
2.478354,-2,-2,-1,9,-70,-42,-12,30,3
2.478360,9,1,-1,4,48,26,-23,18,3
2.487834,2,-1,1,1,-17,11,-14,-47,3
2.487841,4,-1,-3,-1,61,28,2,50,3
2.501742,-8,-1,3,8,-10,8,6,25,3
2.501758,5,4,1,-5,2,-13,84,-4,3
2.503374,-3,3,2,14,-43,-16,-2,8,3
2.503681,8,-2,-1,1,-41,-79,10,-16,3
2.525908,-16,-2,-1,-1,38,64,49,-25,3
2.525913,0,-5,-2,2,-10,77,23,-1,3
2.525915,-4,0,-1,-22,9,-82,13,-5,3
2.525917,16,1,3,56,-23,8,68,-5,3
2.538250,1,1,-2,-7,32,19,-20,-61,3
2.538271,-28,-9,-4,-2,-55,-13,-40,28,3
2.548297,4,-2,-3,-11,-25,4,-33,-21,3
2.548302,-6,-2,-1,-13,-20,50,-2,-27,3
2.561809,-21,5,4,-5,-69,-41,13,19,3
2.561829,12,5,2,32,103,3,13,-23,3
2.563748,21,0,-5,7,-5,-5,-6,30,3
2.563763,-23,1,5,-5,-1,54,65,17,3
2.584138,19,-4,-6,-3,-9,-6,-6,34,3
2.584154,-5,2,3,-8,74,-30,-69,-24,3
2.585800,-18,-5,-4,1,9,15,16,-12,3
2.585813,16,0,-3,-6,-4,-30,-34,-47,3
2.598097,-4,0,-4,-5,-25,-56,20,70,3
2.598120,-19,1,0,-20,-25,15,15,-32,3
2.608121,0,-3,-1,8,6,-2,11,-7,3
2.608125,19,4,0,-9,-23,1,-5,-4,3
2.622450,-31,-2,-2,-15,34,23,-3,29,3
2.622480,13,2,3,14,55,30,75,-43,3
2.623415,-10,-4,1,3,16,-22,-18,14,3
2.623431,8,1,-2,-4,36,11,37,-14,3
2.644448,12,-3,-1,-11,21,17,-11,17,3
2.644471,7,2,-1,-7,-37,-6,29,23,3
2.646183,-17,-9,-4,-1,-53,-46,84,17,3
2.646188,-13,1,1,-2,-12,-34,26,-25,3
2.657801,26,-2,-6,3,-48,-19,3,27,3
2.657817,8,-3,-5,-6,32,-40,-27,21,3
2.666779,14,-5,-5,-23,-83,18,17,-13,3
2.666796,-14,1,4,29,21,-8,-22,17,3
2.681982,-10,-4,1,8,-3,-77,-22,-116,3
2.682016,-1,-2,-1,1,-9,-18,14,16,3
2.683391,7,4,0,-15,60,-18,-36,11,3
2.683438,3,-2,-1,0,31,32,7,34,3
2.712767,-14,0,-1,6,8,35,28,-2,3
2.712774,-2,-3,-3,-1,-23,-22,-41,-5,3
2.713449,-12,1,-1,8,18,10,-13,-20,3
2.713481,10,1,-4,-12,-21,-47,-35,7,3
2.717881,14,-1,0,7,-25,82,19,7,3
2.717897,-16,-1,1,0,-56,17,-8,-66,3
2.729488,-2,0,-2,25,18,55,2,4,3
2.729510,18,-6,-4,-1,-71,-26,5,71,3
2.742215,-9,1,-1,-3,32,-2,-20,12,3
2.745245,-24,-2,1,-25,-12,10,-15,-9,3
2.745255,19,-2,-5,-17,69,6,-26,-72,3
2.745257,-2,4,8,43,-13,25,0,-6,3
2.764477,20,-3,-13,-91,71,-89,-85,-61,3
2.766072,-7,4,4,78,-92,55,12,-24,3
2.766076,-8,3,2,-14,106,-5,45,38,3
2.766078,-6,-9,-4,-23,-3,42,-15,7,3
2.777883,9,-2,-1,-9,-21,11,-20,-51,3
2.777908,14,1,-6,-31,7,35,-1,31,3
2.787285,-1,1,4,9,-81,-15,10,-15,3
2.787289,-26,-2,-7,-19,51,19,-69,-16,3
2.801621,-10,-5,0,22,-37,-2,-10,85,3
2.801636,21,1,-2,-17,-80,13,24,71,3
2.803231,5,-11,-6,16,-4,50,-3,-46,3
2.803252,14,1,2,-29,-50,59,-46,-46,3
2.824588,-8,3,-2,-11,37,40,15,36,3
2.824608,-3,6,4,-48,6,86,-101,0,3
2.825664,-1,-12,-9,74,18,-76,-69,1,3
2.825699,8,12,8,16,-85,71,25,32,3
2.847118,-37,-10,-2,4,-13,53,-29,17,3
2.847149,3,-4,-2,2,108,-123,6,4,3
2.848945,-11,10,4,-24,-40,30,6,7,3
2.848952,-10,-7,-6,-38,21,-18,18,-36,3
2.861673,-2,5,7,43,45,-44,28,-43,3
2.861694,21,-3,-7,-55,-32,-14,12,2,3
2.863363,-16,7,7,-4,-64,-15,49,4,3
2.863396,14,-2,2,76,-18,-30,47,23,3
2.884181,2,-7,-1,-13,34,53,28,49,3
2.884195,2,-2,3,9,-49,-83,-4,40,3
2.885647,-18,-7,-7,-83,-63,42,9,-27,3
2.885660,17,18,1,-114,76,-65,-44,-14,3
2.906652,56,-11,-3,65,19,8,92,25,3
2.906675,45,-7,5,74,104,65,40,58,3
2.909304,-17,-15,-4,0,-22,-47,-44,6,3
2.909311,-44,-8,-3,-4,-5,-3,-75,-36,3
2.921055,-3,7,-1,-17,-16,-90,1,-14,3
2.921074,5,8,-2,-34,50,18,1,-6,3
2.927860,17,6,4,11,4,10,26,6,3
2.927885,15,-4,-5,7,-16,-2,11,2,3
2.945343,-6,7,1,-9,-18,-9,1,-32,3
2.945348,-1,0,0,17,-37,-20,19,-27,3
2.945718,-4,2,-1,5,12,11,-22,7,3
2.945733,-8,-1,-2,15,-40,-19,35,-12,3
2.966844,3,3,6,3,-31,79,-21,23,3
2.966860,-30,-10,-6,-26,9,-41,46,20,3
2.968274,10,3,1,24,-32,44,45,40,3
2.968292,4,-11,-3,-1,6,47,-14,56,3
2.981859,0,13,9,3,-22,-19,-45,-58,3
2.981878,-22,-5,-6,21,-99,52,-10,-16,3
2.983315,-7,-2,-6,14,52,-19,72,14,3
2.983334,3,4,8,31,-72,-16,70,30,3
3.004313,12,0,-4,-48,-35,57,-4,-53,3
3.004331,-24,-6,-1,18,53,29,-63,-10,3
3.006319,26,1,1,2,31,-1,-60,15,3
3.006417,-16,-9,-5,3,-79,12,-70,-38,3
3.026685,40,3,-6,-74,127,101,54,37,3
3.026705,-54,2,5,22,-64,-75,-15,-5,3
3.028287,8,-10,-5,-9,2,10,-4,13,3
3.028304,-3,-9,-7,-6,37,-25,-8,-23,3
3.042083,-22,-4,-2,8,-110,-42,5,22,3
3.042087,26,7,2,-12,42,14,-29,1,3
3.047955,-12,-1,0,7,22,10,20,32,3
3.049872,-22,-4,0,0,56,-12,30,-33,3
3.064644,14,-1,-3,20,-25,11,13,19,3
3.064682,-20,-4,-2,0,84,16,68,37,3
3.066708,-10,-5,-6,-56,9,17,-102,-30,3
3.066713,19,4,-5,-27,11,-13,-39,11,3
3.089651,-17,-6,-2,22,10,-5,-11,6,3
3.089657,12,-4,-5,0,-33,-31,38,-16,3
3.089659,-4,2,3,-19,-31,32,-50,-32,3
3.089661,1,0,2,-8,-6,2,56,83,3
3.101180,-22,-4,-4,22,-65,-55,-100,24,3
3.101197,5,1,1,-14,-88,33,7,-33,3
3.108191,-8,1,-3,-2,-75,25,52,8,3
3.108213,9,-8,-8,-32,-16,4,32,29,3
3.124343,-20,-1,-1,18,-58,-71,-20,-3,3
3.124391,25,-3,-4,-10,44,-17,36,0,3
3.125708,-14,3,1,18,-16,90,-62,-18,3
3.125716,33,-4,-5,-19,-20,-85,2,50,3
3.146998,-13,-1,2,24,-53,-5,22,-90,3
3.147084,14,-9,-4,2,69,55,-27,42,3
3.149134,-36,5,4,6,4,-43,54,29,3
3.149147,25,2,-4,-13,-8,19,17,28,3
3.161220,7,6,1,23,15,15,41,20,3
3.161241,-26,1,-2,4,-42,-6,-67,-15,3
3.167812,31,-6,-2,17,103,-64,-13,-33,3
3.167828,-14,5,5,11,9,12,3,-12,3
3.184238,-8,6,2,-11,49,62,26,22,3
3.184252,22,1,0,3,-10,0,9,3,3
3.185693,30,-4,-3,-8,12,-31,-8,18,3
3.185715,-22,1,2,12,-11,5,17,-67,3
3.206622,-10,-4,-1,-6,38,-23,-46,-43,3
3.206644,4,11,2,-27,19,-6,14,-24,3
3.208162,-13,2,4,6,-17,-22,31,9,3
3.208169,12,2,1,19,-1,62,35,-14,3
3.221121,28,3,1,3,5,11,61,55,3
3.221137,-26,-5,-4,-32,22,36,4,-47,3
3.227969,19,2,3,7,-33,7,-21,-40,3
3.228002,-9,-8,-4,5,17,26,10,19,3
3.245795,-22,-5,-4,-12,-30,-39,19,7,3
3.245802,-10,5,1,4,42,83,-29,-82,3
3.245879,32,1,-2,-30,2,-84,33,21,3
3.245885,-14,8,4,6,-18,-12,-33,-1,3
3.266759,-3,-2,-3,12,17,37,-35,23,3
3.266776,6,-13,-4,12,48,-3,40,14,3
3.268293,-15,6,1,-14,-42,-3,-26,-41,3
3.268297,-8,-4,-2,1,11,-25,-28,-29,3
3.281275,-15,-2,-2,-17,-34,-27,-2,-6,3
3.281292,7,-1,2,10,32,21,-22,-1,3
3.287807,-5,1,0,12,18,21,28,26,3
3.287824,-13,-4,-8,-4,13,-65,-47,-61,3
3.304291,3,-10,-7,-16,-64,83,26,-55,3
3.304308,-2,2,0,6,-79,-90,45,23,3
3.305726,-35,7,2,-1,14,-7,68,8,3
3.305733,37,-10,-6,-22,52,127,-1,45,3
3.326673,7,4,3,40,23,-66,23,-42,3
3.326689,-25,-5,-11,-13,-57,-34,-14,5,3
3.328301,6,-4,1,24,50,-43,-18,23,3
3.328320,-17,3,2,-1,-28,-21,21,12,3
3.340542,-18,-5,0,-10,110,10,-29,-22,3
3.340549,8,-1,-1,-10,67,0,-37,-32,3
3.350243,26,1,1,4,-74,80,9,97,3
3.350249,-13,-1,1,15,16,-5,-15,-25,3
3.364632,-10,0,-1,-10,-19,-63,-3,26,3
3.364654,9,2,2,3,-25,-28,-40,13,3
3.366440,-9,-2,-2,-18,13,25,9,1,3
3.366446,-11,-2,6,14,12,-59,1,-47,3
3.387312,18,3,3,-10,-95,-50,72,76,3
3.387370,-32,6,5,15,42,65,56,21,3
3.388269,-4,-15,-6,-7,-39,-52,26,-16,3
3.388284,24,3,-5,3,95,15,-61,-20,3
3.400881,-26,-15,-2,-8,-17,-82,-53,-12,3
3.400885,13,5,4,0,-43,72,-3,-17,3
3.411038,3,3,0,6,-22,32,1,-24,3
3.411045,-18,-3,-1,-8,64,-4,24,2,3
3.424152,56,10,2,8,82,99,-30,-2,3
3.424175,-21,-11,-8,-26,-42,-29,43,38,3
3.425633,17,2,-2,-4,13,41,-15,74,3
3.425641,-4,-1,0,-21,-45,-5,39,-14,3
3.446956,-11,4,1,10,37,-53,-49,8,3
3.446984,-5,-3,-2,8,-98,-50,-23,-30,3
3.448402,-10,-4,-3,-5,25,-2,-20,-16,3
3.448450,-5,3,1,-5,-43,-17,54,14,3
3.462646,3,-4,1,-5,-19,-25,7,1,3
3.462653,-28,-8,0,5,-9,-29,-29,-40,3
3.470924,11,-1,-2,-9,-26,-16,-67,20,3
3.470930,9,-5,0,27,-23,28,-26,48,3
3.484330,-45,-7,-2,-7,11,-16,-22,-42,3
3.484346,29,3,0,4,-28,-27,-33,-2,3
3.485777,-12,-2,-1,7,85,-15,2,-16,3
3.485788,-1,2,-1,-3,-55,44,45,6,3
3.508530,33,9,1,-3,5,27,-20,15,3
3.508538,7,0,3,31,73,-18,29,31,3
3.508543,-21,-1,-4,-9,3,-8,19,-74,3
3.508670,-9,-2,-4,0,38,-63,-26,2,3
3.520444,23,-1,0,-2,-46,3,27,13,3
3.520460,-11,2,-3,-15,4,66,-8,-27,3
3.530628,11,7,2,21,10,-54,49,25,3
3.530639,18,5,4,-7,-81,-4,-14,-35,3
3.544377,-12,-7,-6,8,24,63,-4,-9,3
3.544401,0,2,3,-4,-10,-12,-1,45,3
3.546212,6,0,-1,-7,-37,71,-7,69,3
3.546217,-10,-8,-5,-24,-40,-54,-32,-46,3
3.566638,16,6,4,12,-60,25,6,17,3
3.566655,-5,-11,-7,-26,-14,1,34,-3,3
3.568152,0,0,-1,9,5,4,-15,16,3
3.568166,-8,5,3,2,86,4,62,7,3
3.580678,3,-5,-2,2,127,60,24,28,3
3.580720,38,5,2,8,22,24,24,-27,3
3.590533,-37,-4,-4,-6,-56,0,-12,-23,3
3.590538,6,0,-3,0,16,22,-22,9,3
3.604284,-15,3,3,-1,-71,-22,3,4,3
3.604304,-15,2,1,-7,25,8,-13,47,3
3.605535,-21,-2,0,-13,-25,-98,-72,-72,3
3.605586,62,2,3,70,1,42,-3,36,3
3.626891,-53,-6,-4,-7,20,64,11,-36,3
3.626922,-11,-3,-5,0,-26,-35,-45,-16,3
3.629135,18,3,1,8,1,8,25,-10,3
3.629140,-34,-3,-1,-13,-42,-20,10,15,3
3.640568,13,1,0,-16,-52,-63,-23,17,3
3.640584,-2,1,4,23,50,-19,-24,-5,3
3.649926,13,-1,-2,-6,24,49,102,12,3
3.649932,-35,-5,-3,-9,-38,-4,-36,-71,3
3.666774,-5,-3,-7,-12,13,13,26,-28,3
3.666780,-14,-4,0,-11,-105,-6,-18,-24,3
3.666782,7,-2,2,8,39,13,6,-17,3
3.666784,-4,3,0,-8,21,5,-9,22,3
3.686962,-1,-3,0,-8,-15,26,35,11,3
3.687033,5,-1,-6,3,-94,15,16,-19,3
3.689033,7,-9,-6,-10,-58,-15,5,-20,3
3.689037,30,3,4,9,95,8,80,18,3
3.700271,5,-11,-7,-26,-4,-36,-35,-14,3
3.700292,30,3,2,4,9,-28,82,33,3
3.712029,-32,-4,1,-3,-8,-7,-56,42,3
3.712034,-12,-3,-1,-5,-34,15,1,1,3
3.724849,7,8,3,-44,-30,82,59,11,3
3.724877,5,11,5,33,-9,-63,20,34,3
3.727734,28,2,2,10,22,72,39,-62,3
3.727752,-14,-1,-1,-12,-15,6,-34,-48,3
3.747018,20,-7,-1,21,127,6,-6,127,3
3.747054,6,-1,-3,-14,-20,-13,-52,-28,3
3.748969,-22,-1,-1,1,-9,2,-16,18,3
3.748973,-6,0,-7,-45,68,-35,-3,22,3
3.769363,-9,-1,5,53,29,-1,-17,-14,3
3.769387,24,1,2,-5,24,7,29,1,3
3.771800,-14,-10,-8,3,106,-28,-10,-28,3
3.771809,13,-1,0,-9,-19,30,-2,35,3
3.784162,-1,-1,-2,0,-51,-95,-18,-19,3
3.784179,-11,-3,-4,-10,25,2,2,14,3
3.785687,19,2,4,-3,-26,-2,-10,0,3
3.785699,-13,-1,-3,10,-55,-13,-11,-19,3
3.806583,9,3,0,-1,-7,6,-10,-12,3
3.806590,-13,1,3,-21,-25,29,23,-24,3
3.808035,9,-3,1,20,28,-69,-14,35,3
3.808052,-2,2,2,-4,-15,-2,24,1,3
3.829287,-2,-6,-7,-6,24,52,19,-7,3
3.829353,-23,-3,3,15,7,-9,-39,-9,3
3.831744,10,4,4,-5,53,39,-11,-70,3
3.831756,21,0,2,19,22,-33,-9,75,3
3.844516,18,1,-5,-22,-87,-16,9,2,3
3.844550,-25,2,0,-4,6,-24,-31,19,3
3.846156,-16,2,2,2,-25,17,-2,-58,3
3.846162,10,3,-1,18,-23,12,-45,4,3
3.866643,-8,-3,1,5,35,-11,-3,-15,3
3.866661,14,-7,-5,5,-14,-30,-47,-43,3
3.868160,-5,-1,-1,-2,-2,15,21,-20,3
3.868174,2,6,0,-15,-16,0,20,-11,3
3.889271,3,1,0,12,-28,75,8,1,3
3.889292,-59,0,0,-2,4,37,9,-51,3
3.890570,34,-5,-1,-8,-27,-2,-9,-1,3
3.890577,-5,-1,-2,1,-4,-14,-21,-14,3
3.904392,-13,0,0,2,-40,0,9,-11,3
3.904416,-13,-5,-4,-38,34,-72,-19,-8,3
3.906301,8,0,-7,-5,-71,24,33,18,3
3.906306,-15,-3,0,-12,-59,5,41,31,3
3.927190,-27,-4,-3,40,53,-23,-7,-20,3
3.927222,13,-4,-4,-17,14,6,-7,41,3
3.929059,-69,-7,-3,-7,-25,49,-18,-18,3
3.929066,12,-1,1,7,-7,5,-1,9,3
3.949244,-6,0,1,-22,4,-21,3,11,3
3.949269,25,0,-1,1,-70,-47,-15,-1,3
3.950646,33,5,-3,-1,-19,-52,-38,80,3
3.950663,-81,-12,-5,-14,74,7,-34,-26,3
3.963733,58,-8,-2,1,-3,-21,-35,-30,3
3.963779,12,-5,-7,-4,58,-31,-35,7,3
3.970646,15,7,6,9,3,-23,12,50,3
3.970667,6,1,2,-13,-25,-61,-10,-22,3
3.986669,-8,2,2,23,-83,-42,-6,-22,3
3.986703,18,3,0,6,100,63,61,55,3
3.989306,-53,-2,-2,-14,-63,-25,43,-111,3
3.989317,-5,0,3,12,4,5,-1,45,3
4.009084,-27,0,-1,-15,14,23,15,6,3
4.009093,19,0,2,6,-67,-59,29,-12,3
4.010918,-2,1,1,17,45,23,-28,10,3
4.011008,-6,-4,-6,-5,-10,49,23,-52,3
4.024228,11,9,5,-6,9,-17,17,30,3
4.024233,-7,-1,0,5,-28,88,64,6,3
4.030722,-1,-2,-4,-37,18,-60,-42,-28,3
4.030745,13,-1,0,10,-57,-6,-3,-17,3
4.046813,3,-1,-2,-10,35,-12,5,-44,3
4.046860,17,6,3,2,-33,27,-32,31,3
4.049159,-7,-8,-4,-22,-23,40,45,22,3
4.049171,24,-3,1,30,38,56,-26,17,3
4.069707,-23,-6,-7,-57,14,1,-7,19,3
4.069737,-16,3,7,61,-5,27,-21,-27,3
4.072163,-11,-3,-3,-3,44,-2,10,-3,3
4.072170,19,1,-3,-6,-73,-31,21,59,3
4.083656,11,-4,-5,-45,60,47,-7,49,3
4.083672,-50,-7,-1,66,27,-30,-79,-40,3
4.090958,56,5,1,10,13,-11,-18,48,3
4.090986,-42,-5,-5,-5,-10,60,21,-84,3
4.106638,-12,-4,-2,13,-62,-58,-81,6,3
4.106655,18,-1,-4,-30,31,1,13,8,3
4.108096,21,-1,-1,14,4,10,10,19,3
4.108111,-7,-5,-2,-8,18,-36,-28,27,3
4.129286,-6,0,-3,0,-18,-13,44,-15,3
4.129307,4,-5,-4,-39,-77,-8,-6,12,3
4.131479,-5,0,2,36,68,-38,-1,25,3
4.131487,38,-2,4,0,44,20,92,19,3
4.143822,-29,-3,-4,-42,34,70,3,-42,3
4.143848,9,1,5,40,-65,-61,-4,53,3
4.150578,-4,7,2,-14,-31,34,31,34,3
4.151488,1,2,2,10,-9,-11,2,-12,3
4.167101,-17,-3,-2,17,16,-61,-40,-63,3
4.167105,-1,-6,-5,-29,-2,31,23,17,3
4.168136,-13,1,0,-33,-39,-7,-16,33,3
4.168152,34,-6,-2,33,41,-44,-29,-30,3
4.189450,-22,2,2,14,-46,-1,7,8,3
4.189473,0,-2,-7,-29,-16,59,12,17,3
4.190902,6,-6,-7,-4,-11,-8,-60,-27,3
4.190906,-19,-5,-9,-36,-15,8,23,38,3
4.203883,-2,-2,2,33,66,9,-34,2,3
4.203908,8,0,-2,-2,10,-63,-43,-26,3
4.210619,-4,-3,-2,-3,-2,-27,70,-13,3
4.210644,-8,3,1,-10,-38,-8,12,-7,3
4.227354,20,-2,-3,1,3,4,-4,10,3
4.227387,-15,4,0,-47,-82,-41,-3,-38,3
4.229666,-32,-2,2,24,5,-17,-46,-36,3
4.229674,18,-9,-6,-2,20,-8,9,24,3
4.249298,4,4,4,14,-59,-29,10,21,3
4.249371,39,1,-3,-18,26,46,49,21,3
4.250781,-18,-4,0,13,-64,20,22,-4,3
4.250798,-25,5,3,-2,-15,6,-2,-14,3
4.262992,19,3,0,28,2,-5,-35,29,3
4.263061,7,-1,-3,-5,64,58,14,-6,3
4.272874,0,-2,2,0,-43,-3,11,-10,3
4.272878,-22,3,2,10,118,-17,-23,-8,3
4.287213,11,-3,0,-12,-51,-2,9,1,3
4.287244,22,3,1,9,31,14,7,1,3
4.289325,0,2,2,7,11,-4,-6,7,3
4.289330,0,1,-3,-22,47,-18,-31,-16,3
4.309384,9,8,4,5,-56,-4,78,13,3
4.309402,-53,-7,-1,8,53,34,-15,-67,3
4.310885,36,0,-1,55,21,-14,12,-37,3
4.310955,18,-4,-6,-16,-35,43,8,38,3
4.323664,-38,-2,-4,-59,-20,-10,-5,-12,3
4.323668,15,1,4,86,24,0,0,30,3
4.333385,-8,-2,-3,-31,-54,-8,10,22,3
4.333393,-1,6,4,14,61,-10,7,-30,3
4.347052,27,0,-4,2,-69,-41,-14,21,3
4.347081,-18,-10,-10,-28,31,-40,-22,21,3
4.349143,-30,2,4,-14,15,44,18,57,3
4.349390,15,-10,-4,8,-55,-10,-37,-68,3
4.369272,23,0,1,2,1,7,3,25,3
4.369280,-66,0,-2,-24,13,-22,-13,1,3
4.375621,11,-3,1,36,-70,31,55,66,3
4.375636,-6,2,-2,-7,-37,-11,-33,-12,3
4.382880,-12,4,-2,-7,34,38,-10,-10,3
4.382897,33,-8,-1,-28,-28,46,42,6,3
4.392710,-2,-4,-4,-5,59,1,-9,6,3
4.392716,-8,0,0,-2,-77,5,21,17,3
4.406799,-7,1,2,25,25,1,3,-32,3
4.406817,9,9,-1,-17,-4,9,-18,7,3
4.408168,-23,-2,-3,-23,-14,-29,-23,-10,3
4.408175,10,-4,-3,8,10,-26,4,0,3
4.430839,16,-7,-7,-5,1,44,9,-20,3
4.430848,-22,2,1,0,-63,-37,-22,12,3
4.430950,26,4,0,-10,14,73,-1,-60,3
4.430978,-37,6,5,-3,53,25,-8,25,3
4.443122,27,-2,-1,14,59,31,61,12,3
4.443151,-10,-8,-1,38,-8,-23,8,15,3
4.452805,37,5,1,-13,21,73,60,-9,3
4.452811,-35,1,6,-13,12,48,4,11,3
4.466758,-4,1,1,5,71,48,6,21,3
4.466789,-8,-1,0,-8,18,9,14,-41,3
4.468166,-13,-1,-3,-14,-13,-45,-25,4,3
4.468183,22,4,0,-1,8,-62,15,16,3
4.492115,-28,-5,-2,15,-71,-12,4,-11,3
4.492122,16,0,-1,5,82,33,30,-47,3
4.492124,-12,-3,-4,-38,-60,-104,-38,39,3
4.492126,-4,-2,0,21,-10,10,12,-24,3
4.503023,-15,2,1,2,-3,-73,-93,-31,3
4.503050,9,4,-1,-11,-19,-33,0,65,3
4.512590,-12,-7,-3,-8,-18,-20,-21,-66,3
4.512792,23,0,-2,-3,-16,-13,-5,-12,3
4.526973,-9,-2,-1,-5,4,-38,3,-21,3
4.527009,14,5,2,4,-21,22,56,-25,3
4.529144,7,-1,0,4,-36,-12,-53,41,3
4.529150,12,0,-3,1,-16,-35,-1,7,3
4.549297,-8,-2,2,-5,-53,56,10,-18,3
4.549314,16,-1,2,-3,6,47,-10,44,3
4.550710,-10,-2,-2,-16,38,-46,-31,-42,3
4.550720,-4,6,3,14,17,27,32,2,3
4.563039,-2,-6,-4,-1,-90,-9,-44,36,3
4.563070,4,-3,-2,-10,-6,-56,-8,5,3
4.572965,-3,-1,-3,-19,-14,1,17,45,3
4.572970,21,-3,0,16,-86,28,-7,10,3
4.586752,3,-2,-2,-3,56,-64,-54,-24,3
4.586764,6,-8,-5,-2,7,13,1,-3,3
4.588299,-2,-2,-2,9,26,28,-11,-42,3
4.588322,-19,5,-3,-25,-67,-20,2,-19,3
4.609607,47,7,3,11,61,14,47,8,3
4.609637,-20,-9,-3,4,-17,18,-37,-20,3
4.612348,2,2,0,5,1,-1,-7,-1,3
4.612353,-8,-4,-4,-5,9,-12,-32,-5,3
4.622866,-3,3,-2,-7,-34,7,7,10,3
4.622882,-8,0,1,6,4,-7,-18,-8,3
4.633344,-7,1,-1,13,66,33,5,3,3
4.633349,12,-2,0,-4,-16,12,14,7,3
4.646882,-36,0,-3,-60,78,13,-5,10,3
4.646918,-5,1,1,17,-17,-4,-36,-16,3
4.649250,-7,-4,0,15,-11,22,17,-9,3
4.649254,22,-3,-2,0,3,-6,-1,12,3
4.669176,-14,1,2,-9,51,7,22,-4,3
4.669192,19,10,2,-8,-14,-23,3,9,3
4.670989,-4,-8,-4,-1,-74,55,-15,-14,3
4.671006,-6,3,2,0,77,26,-7,51,3
4.682864,10,-2,-2,15,-48,17,26,-14,3
4.682881,-3,-3,-2,-4,77,-12,-16,-89,3
4.694365,16,0,-2,2,-10,2,-9,17,3
4.694376,-21,-7,-7,-13,-40,-50,23,-18,3
4.707469,4,-3,1,11,-50,-14,-18,32,3
4.707489,-9,7,0,3,-52,10,-30,13,3
4.709311,-16,-3,-4,-12,10,-4,14,-39,3
4.709314,-8,-8,0,-7,34,16,-43,62,3
4.729160,18,-1,-3,7,-59,56,-6,-31,3
4.729184,8,2,-2,-31,-110,-77,11,14,3
4.731051,-2,0,-1,14,20,-21,-14,1,3
4.731084,9,1,3,1,-1,-4,-17,2,3
4.751725,-39,-5,-3,10,-74,-59,4,-20,3
4.751748,-1,-2,2,-16,93,23,4,17,3
4.753615,6,1,-1,1,84,-31,-47,-1,3
4.753626,14,0,1,7,-20,-28,10,-11,3
4.766700,16,-1,0,1,46,-1,22,29,3
4.766718,-3,-1,0,-7,-8,22,23,7,3
4.768274,-5,0,2,12,-58,-49,18,37,3
4.768281,-13,1,-1,13,44,29,10,-51,3
4.789332,-7,-2,0,2,-50,-19,-23,39,3
4.789337,25,-5,-4,-20,7,15,15,8,3
4.790571,1,-7,-3,33,-33,-33,31,20,3
4.790587,-3,-2,-3,-15,35,8,-7,5,3
4.811837,-6,2,1,-1,-17,-90,15,-28,3
4.811855,-28,-5,-7,-2,-39,65,66,-38,3
4.813994,22,1,-1,-36,35,15,-4,8,3
4.814006,2,-2,0,9,-32,-21,12,-23,3
4.827045,-2,1,0,9,-14,-1,9,10,3
4.827074,1,-4,-2,2,42,-18,-1,0,3
4.828722,3,0,-3,-27,-17,-60,-39,27,3
4.828729,-11,-2,0,0,-30,-16,-15,-31,3
4.850808,3,2,0,17,19,34,-2,106,3
4.850820,11,-3,-3,5,-24,-15,-23,-4,3
4.850823,-23,0,1,1,-7,51,7,-9,3
4.850824,8,-3,-4,-36,-50,8,-5,8,3
4.871958,1,-1,-2,17,106,23,31,5,3
4.871983,-20,-1,0,5,-94,-48,36,4,3
4.873326,-16,-1,0,4,22,63,-17,-32,3
4.873335,-3,-2,-3,-9,-10,6,-6,-7,3
4.886113,-12,-1,-1,-11,26,7,12,-36,3
4.886129,12,5,1,9,-1,2,-16,15,3
4.893348,14,-2,4,5,-52,-8,3,-3,3
4.893390,-5,3,-2,2,81,-53,22,-13,3
4.909433,-3,-2,0,-4,-8,22,5,-2,3
4.909457,16,-4,-1,7,14,47,-17,25,3
4.911838,-9,-1,-1,-5,-15,-41,8,4,3
4.911844,1,-1,-1,4,-29,55,-8,13,3
4.931757,1,-8,-3,-5,39,6,-13,-31,3
4.931774,-4,3,1,-3,26,10,10,23,3
4.933199,-2,0,-1,-11,-52,-32,31,-11,3
4.933216,-20,5,2,46,66,30,26,11,3
4.946244,-3,1,-1,-4,-61,31,2,-43,3
4.946274,20,-6,-3,0,42,-12,0,-16,3
4.953233,12,3,0,2,49,7,-8,-11,3
4.953261,2,3,1,-11,-71,42,8,4,3
4.969429,2,-3,-1,-6,-15,45,-81,3,3
4.969450,-20,3,2,10,-9,-20,-21,-14,3
4.971273,-8,-2,-1,0,47,13,5,-23,3
4.971281,15,4,-1,-8,1,-4,3,26,3
4.992174,7,-1,-2,-4,88,-34,-4,-44,3
4.992198,6,-6,-5,-5,-41,-13,-1,36,3
4.993500,-5,-3,-1,4,-6,-6,9,-12,3
4.993531,-8,-5,-2,-2,50,-6,-16,-9,3
7.015940,27,3,-2,-1,0,-1,-2,0,0
7.016169,-4,0,-1,-1,-1,0,-1,1,0
7.016754,7,0,-1,-1,0,0,-2,-2,0
7.016839,-9,-2,-1,0,0,-1,-1,-3,0
7.030610,-9,-2,-1,-1,-1,-1,0,0,0
7.030658,-5,-3,-3,-1,0,-2,-2,-2,0
7.038986,-2,-1,0,-1,-3,-1,-2,1,0
7.039003,7,0,-1,-3,-1,-1,-1,1,0
7.053501,0,-3,-2,-1,-1,1,1,-1,0
7.055948,-8,-3,-2,0,-1,0,-1,0,0
7.055954,1,0,0,0,-1,-2,-2,-1,0
7.055956,4,1,-2,-1,-1,-1,0,-1,0
7.076830,1,0,-1,-2,-1,-1,-1,-1,0
7.076842,-9,-3,-1,-3,-1,-2,-1,1,0
7.076844,-3,-3,-1,-1,0,-2,-1,-4,0
7.076845,6,1,0,0,-2,-2,-2,-1,0
7.092868,-4,-1,-1,-1,-2,-1,-1,-1,0
7.092885,4,-1,-1,0,0,-1,0,-2,0
7.098535,1,2,-1,-1,0,0,-1,0,0
7.098554,-2,0,-1,-1,-1,0,1,0,0
7.113886,-6,-1,-1,-2,-2,-1,-1,-2,0
7.113925,8,-1,0,-1,-1,1,-2,-1,0
7.115512,1,0,-1,-1,0,0,-1,-1,0
7.115524,0,-1,-1,0,-2,-1,-1,-1,0
7.136004,-2,1,-1,-1,-1,-1,-2,0,0
7.136026,-4,-1,-2,0,-2,-1,-1,-1,0
7.137948,-2,0,0,0,-1,0,-1,-1,0
7.137955,5,0,-1,-2,0,0,0,0,0
7.150298,-2,-2,-2,-1,-1,-2,-1,0,0
7.150316,-5,-2,0,-1,0,-1,-1,0,0
7.158795,3,-2,0,-2,0,-1,-1,0,0
7.158816,0,-1,0,-1,-1,-1,-1,-2,0
7.173349,1,0,0,-1,-1,-1,-2,-4,0
7.173363,-1,-2,-1,-1,-2,-1,-1,-1,0
7.174041,-2,1,-2,-1,-1,0,-1,-1,0
7.174054,-2,-2,-2,-3,-1,-1,-1,0,0
7.196291,-4,-1,0,-1,-1,0,-1,-1,0
7.196326,-1,-1,-1,-1,-2,-2,-1,-1,0
7.198300,-1,-2,0,-1,-2,0,-1,-1,0
7.198311,-1,-2,-1,-1,-1,-1,-2,-1,0
7.210670,0,0,-2,0,-2,-2,-1,-1,0
7.210700,-4,-2,-1,-3,-1,-3,0,-1,0
7.218502,1,-1,-2,-1,0,-3,0,0,0
7.218518,-2,-3,-1,-1,0,0,1,0,0
7.233448,-4,-2,0,-2,0,-1,0,-2,0
7.233456,2,0,1,-2,0,0,-1,-1,0
7.234114,-1,0,-1,-1,-1,0,-2,-3,0
7.234122,4,1,0,0,-1,-1,-1,-2,0
7.256187,2,0,-2,-2,-1,-1,-2,-1,0
7.256208,-3,-1,-1,-1,0,1,0,-1,0
7.258035,-1,-1,-1,-2,0,-3,0,-1,0
7.258038,-4,-2,0,-1,-1,-3,-2,-1,0
7.270730,0,-1,1,0,-1,-1,-2,0,0
7.270758,-2,-1,-1,-3,-3,-1,-3,-1,0
7.278124,0,-1,-2,-1,-3,0,-2,-1,0
7.279304,0,-2,-2,1,-2,-1,-1,-1,0
7.296072,0,-3,-1,0,-1,-1,1,-2,0
7.296089,-4,-1,1,-1,-2,-1,-1,-1,0
7.296092,9,2,0,-3,0,-2,1,1,0
7.296096,-17,-3,-2,-2,-2,-1,-2,-1,0
7.316017,-1,-1,-2,0,-2,-2,0,1,0
7.316036,-2,0,-1,0,-1,-1,-1,1,0
7.317067,-1,-1,-1,-1,0,-1,-2,-3,0
7.317072,2,-1,-1,-2,0,0,0,-1,0
7.330861,-2,-1,-3,0,-2,-2,0,-1,0
7.330888,15,6,-2,0,0,-3,0,-1,0
7.339043,-6,-10,-4,-2,-1,-1,-1,-2,0
7.339135,3,0,0,-1,-1,0,0,0,0
7.353677,-5,-4,-2,0,0,0,-3,-1,0
7.353700,1,0,0,0,-2,-1,1,-1,0
7.354795,-1,0,-1,-1,-2,-1,0,0,0
7.354799,-2,-1,-1,-1,-1,-1,-1,-1,0
7.376191,1,-1,-1,-1,-1,0,0,1,0
7.376239,-5,-1,0,0,0,0,-2,-1,0
7.376775,-1,1,-1,-1,0,0,1,0,0
7.376846,0,-1,-2,-2,-1,-1,-1,-2,0
7.390263,2,2,-1,-1,0,-1,-2,-2,0
7.390284,-7,-3,-1,0,0,-1,-2,-2,0
7.398591,-5,-1,-1,1,-1,-1,-1,-1,0
7.398608,6,1,0,0,-2,-1,-2,-1,0
7.413970,0,-1,-2,-2,-1,-1,-1,0,0
7.414035,-6,-3,1,-1,0,0,-2,-2,0
7.416554,2,0,0,1,-2,-2,-2,-1,0
7.416564,-1,0,-2,0,-2,-1,0,-1,0
7.436065,1,0,0,0,-1,-1,-2,-3,0
7.436136,-4,-1,-2,-1,-1,-2,-1,0,0
7.436722,-1,1,0,-1,0,1,0,0,0
7.436735,-2,-2,-1,1,-1,-2,-2,-2,0
7.450338,5,1,0,0,0,-2,0,2,0
7.450366,0,0,-1,-2,-1,-2,0,-1,0
7.458530,-4,-2,-1,-2,-1,-1,-2,1,0
7.458551,4,0,1,-1,0,-1,-2,-1,0
7.473512,-16,-3,-1,-2,0,-1,-3,-4,0
7.473533,-1,-2,-1,0,-1,1,-1,-1,0
7.474561,-4,1,-1,-2,0,-1,-2,0,0
7.474565,-1,-1,-2,-4,0,-1,-1,-1,0
7.498362,4,0,0,0,-2,-1,-1,0,0
7.498370,-1,0,-1,-2,-2,-1,-1,0,0
7.498372,-4,-2,0,-1,0,1,0,-3,0
7.498373,4,1,0,-2,-1,-1,-1,2,0
7.510526,2,0,-1,-1,-1,-2,0,-1,0
7.510552,-3,-2,-1,-2,0,0,-1,-1,0
7.518498,-2,-2,-2,-1,-1,-2,-2,1,0
7.518586,-1,0,0,0,-3,1,0,0,0
7.533465,-3,-3,-1,-2,-1,-2,-1,-2,0
7.533480,-1,0,-2,-1,-1,-1,0,0,0
7.534168,1,1,-1,-1,-1,-1,0,0,0
7.534186,-4,-2,-2,0,0,-1,0,-1,0
7.555937,-1,0,-2,-1,-1,0,0,1,0
7.555954,0,-2,-2,-1,-1,-1,0,0,0
7.556821,-1,-2,-2,-2,-1,0,-1,-3,0
7.556826,0,-3,-1,-1,-2,-1,0,-2,0
7.570352,1,0,1,1,-1,-1,0,0,0
7.570412,-3,-1,-2,-2,-1,-1,-2,-1,0
7.578543,2,-3,-2,-2,-3,-2,-2,-1,0
7.578567,0,0,-2,0,-1,1,0,1,0
7.593440,-2,0,0,-2,-3,-2,-2,-1,0
7.593467,2,-1,-1,-2,-2,-2,0,0,0
7.594281,1,0,0,-2,-1,-2,-1,0,0
7.594298,-4,-1,-1,-1,0,-1,-1,-2,0
7.616053,2,0,-1,-1,0,-1,0,-2,0
7.616070,0,-1,-3,0,-1,0,-3,-1,0
7.618453,-2,0,0,1,0,0,1,-1,0
7.618459,-3,-1,-1,-2,0,-1,-1,0,0
7.640087,0,-2,-1,-2,2,-1,0,-1,0
7.640093,-3,-1,0,0,-1,-2,-1,-1,0
7.640095,3,0,-1,-1,-1,-3,-3,-1,0
7.640096,-2,-1,0,0,0,0,-3,-1,0
7.654668,-2,-1,-1,-2,-1,1,-1,0,0
7.654672,-3,-1,-1,0,-1,-1,-1,-1,0
7.654674,-3,-2,-1,1,0,-1,-1,0,0
7.654676,1,-1,-2,-2,-1,-3,-1,0,0
7.675979,-1,-1,-1,-2,-2,0,-1,-1,0
7.676002,-1,0,0,-3,-3,-1,-1,-1,0
7.678007,0,0,-1,-1,-1,0,0,-1,0
7.678013,-2,-1,-1,-1,0,1,-3,-1,0
7.706640,-3,-1,-1,-1,-2,0,2,0,0
7.706657,0,0,-2,0,0,0,-4,1,0
7.707667,1,-1,-1,-1,-1,-1,0,-1,0
7.707672,-4,-1,0,-1,-1,-2,1,-1,0
7.713860,8,-2,-1,-1,-1,-1,-2,-1,0
7.713906,1,0,-1,-1,-1,0,-1,-3,0
7.715332,-2,-1,-1,0,0,-1,-1,0,0
7.715337,-3,0,-2,0,-2,-1,0,-2,0
7.735987,-2,0,-1,0,-1,-1,-1,-1,0
7.736008,1,-2,0,0,-1,-1,-1,-2,0
7.737014,-1,0,-1,-1,0,1,-1,-1,0
7.737035,8,2,0,-2,0,-1,-3,-2,0
7.759253,-10,-1,-1,-2,0,0,0,1,0
7.761357,0,-3,-2,-1,-2,-2,1,1,0
7.761361,-1,-1,-1,-1,0,-1,0,-1,0
7.761363,-1,-1,0,-1,0,0,-1,0,0
7.773415,4,-1,-1,-1,-1,-3,-2,-1,0
7.773438,-1,0,0,-1,0,0,0,-1,0
7.774264,-1,-1,-1,0,-2,-1,-1,-1,0
7.774269,-4,-1,-2,-1,-1,-2,-1,0,0
7.796014,4,0,-2,0,-1,-1,0,0,0
7.796033,-3,-2,-2,0,1,-2,-1,-1,0
7.797029,0,-1,-1,-1,-1,-3,-1,-1,0
7.797087,2,0,1,0,-1,-2,-3,-2,0
7.819307,-7,-3,-1,-1,0,-1,0,0,0
7.819322,-1,0,0,-1,-2,0,-1,-1,0
7.821299,0,0,-1,0,-2,-1,-1,0,0
7.821305,-4,-2,-2,-1,0,-1,-1,0,0
7.833450,-4,-1,-2,0,-3,0,-3,-3,0
7.833472,3,1,-1,-3,-1,-1,0,-1,0
7.834581,3,-1,-1,-1,-2,-2,-1,0,0
7.834586,-5,-2,-1,0,-3,0,-1,-1,0
7.855927,6,-1,-1,0,0,-2,-1,-1,0
7.855941,-3,-1,-1,-1,0,-1,-2,-2,0
7.856786,-2,0,-1,-3,-2,0,-1,0,0
7.856865,0,0,-1,0,-1,-1,0,-1,0
7.879199,-3,-1,0,-1,0,-1,-1,-1,0
7.879222,-3,0,0,1,-1,1,-3,-1,0
7.881330,-1,0,-1,-1,0,-1,-1,-2,0
7.881337,1,-1,0,-1,-4,-1,0,-1,0
7.893579,-2,-1,0,-2,-1,-1,-1,-1,0
7.893600,1,0,-1,0,-2,-2,-1,1,0
7.895313,-5,-1,-1,0,-2,0,-1,0,0
7.895318,0,-1,-2,-1,-1,0,1,0,0
7.916832,-1,-3,0,-2,0,-1,-2,-1,0
7.916836,-1,-2,0,-1,0,1,2,-1,0
7.916838,-1,-1,-1,-1,-2,-1,-2,-2,0
7.916840,-2,0,-1,-2,1,0,0,0,0
7.939373,-4,-1,-1,0,1,-2,-2,-1,0
7.939397,4,0,1,1,-1,-2,-1,-2,0
7.940683,2,-1,-2,-1,-1,0,-1,-2,0
7.940690,5,0,-2,-1,-1,-2,1,-1,0
7.954009,-2,0,0,0,-3,-2,-1,-1,0
7.954026,-3,-1,-1,-1,-1,-2,-2,-2,0
7.955188,-4,0,-1,0,-2,-1,-1,-1,0
7.955192,-1,-3,-1,0,0,-2,-1,1,0
7.984164,-2,-2,-2,-1,-2,0,-1,0,0
7.984181,-2,-1,-1,-1,1,0,1,-1,0
7.984881,0,-1,-1,-2,0,-2,0,-1,0
7.984923,-2,0,-2,-1,0,-2,-2,-1,0
7.998559,2,0,1,0,-2,0,0,-1,0
7.998577,-2,-3,-3,-1,-2,1,-1,0,0
7.999417,1,-2,-1,-1,0,-1,1,-1,0
7.999435,-2,0,0,0,-1,-1,-2,-1,0
8.013859,-1,1,0,-2,0,0,-1,-1,0
8.013906,-1,-1,1,-2,-2,-1,-2,0,0
8.015908,-1,-1,0,-1,-1,0,-1,0,0
8.015955,0,-1,-1,0,-1,0,-1,0,0
8.036033,-1,0,-2,-2,-2,-1,-1,-1,0
8.036053,1,-1,-3,-1,0,-2,-1,0,0
8.037836,-4,-1,-2,0,-1,-3,-1,-1,0
8.037843,-1,-1,-1,-1,-1,0,-2,-2,0
8.059999,1,0,-2,-1,-1,0,-1,-1,0
8.060015,-1,1,-1,-1,-1,2,-1,-1,0
8.060018,-1,-1,0,-2,-2,1,-1,0,0
8.060020,-1,-2,-1,-1,-2,-1,0,-1,0
8.074909,-2,-2,-2,-1,0,-1,-2,-2,0
8.074913,-9,-2,0,-2,-2,-2,-1,-2,0
8.074915,4,0,-1,1,-1,-1,-2,-1,0
8.074916,4,0,1,-2,-1,-1,-1,-1,0
8.096067,14,2,0,0,0,-2,-1,1,0
8.096098,-45,-10,-1,-3,-1,-2,0,-3,0
8.097703,-3,0,-1,-2,-1,0,-2,-1,0
8.097711,-6,-2,-1,-2,-1,0,-1,-3,0
8.120358,6,0,-2,-1,-1,-3,1,-1,0
8.120366,13,2,-2,1,0,-1,-2,0,0
8.120370,-4,-1,-2,-1,-1,-2,1,0,0
8.120373,2,-1,-2,-2,0,-1,-1,0,0
8.135215,-5,-2,-1,0,-1,0,-1,-1,0
8.135220,6,0,-1,-1,0,-1,-1,1,0
8.135222,-2,-3,0,-1,0,0,-1,-2,0
8.135224,4,-1,-1,-2,-1,0,0,-1,0
8.156772,-10,-1,-2,-2,-1,-1,0,-1,0
8.156790,2,1,-1,0,-2,0,1,-1,0
8.158070,3,1,1,-1,-1,-1,-1,0,0
8.158075,-1,-2,0,-1,-2,-1,1,0,0
8.178440,-5,-1,-1,-2,-2,-1,-1,-1,0
8.178459,8,2,-3,-1,0,0,-1,-1,0
8.179795,-5,-1,-1,-2,0,-1,-1,-1,0
8.179806,1,-1,-2,0,-1,-1,-1,-1,0
8.193397,-3,-1,1,1,0,0,-1,-1,0
8.193425,14,3,-1,-2,-1,-1,-2,1,0
8.201091,-4,-3,-3,0,-1,1,-2,0,0
8.201106,-6,-1,-1,-1,0,0,-1,-1,0
8.215993,4,-2,0,-1,-1,0,-2,-1,0
8.216011,-4,-4,-1,-2,-1,-1,0,0,0
8.216629,0,0,2,0,-2,-3,-2,-2,0
8.216642,-3,-1,-1,-1,-1,-3,-2,-2,0
8.238519,-3,-1,-2,0,0,-1,-1,1,0
8.238534,2,0,-1,0,0,-2,-2,-1,0
8.239784,1,-1,-2,-2,-1,0,1,0,0
8.239788,-1,0,0,-2,-1,-1,-1,0,0
8.252917,-4,-1,-2,-2,-1,-1,-1,-1,0
8.252937,-1,-3,-2,1,0,-1,-2,-1,0
8.261607,1,-1,-2,-1,-1,-1,-2,-2,0
8.261611,0,-1,-1,0,-1,0,0,-2,0
8.277670,-3,-1,-1,-2,0,0,0,-1,0
8.277686,0,-1,-1,-2,-2,-1,1,0,0
8.277690,3,2,-1,-1,0,-2,-2,0,0
8.277693,-2,-2,-2,1,-1,0,0,-1,0
8.298625,-3,-1,-1,-1,-1,-1,-2,0,0
8.298656,5,0,0,0,-1,-2,-2,-2,0
8.299866,-3,-1,-2,-1,0,-1,1,-2,0
8.299870,0,0,-1,-2,-1,-1,-2,0,0
8.313084,-2,0,-1,-1,-1,-2,-1,-2,0
8.313119,-1,0,0,0,-1,-1,-1,-2,0
8.321180,-5,-1,0,-1,-1,-1,-1,-1,0
8.321197,-2,-2,-2,0,-2,0,-1,-1,0
8.336129,6,1,0,-1,-2,-3,-1,-1,0
8.337577,-2,1,0,0,-2,-1,-3,-1,0
8.337585,3,-1,-2,1,-1,0,0,-1,0
8.337589,-4,0,1,0,-1,-1,-2,0,0
8.358739,0,-1,-1,-1,-1,-2,-2,-1,0
8.358755,2,0,0,-3,0,0,0,-2,0
8.359182,-3,-1,0,-2,0,-1,-2,0,0
8.359195,-1,-2,-1,-1,0,-3,0,-1,0
8.373050,-1,-4,-1,0,-1,-1,0,-1,0
8.373071,-5,-1,-1,-3,-4,-1,-1,-3,0
8.381161,0,-1,-1,-1,-2,-1,-1,-2,0
8.381180,2,1,-1,1,-1,-2,-2,-2,0
8.396093,-1,-1,-2,-1,-2,-2,-1,-1,0
8.396117,-3,0,-1,0,1,-1,0,0,0
8.398072,-3,-2,0,-1,-1,0,0,0,0
8.398077,-2,-2,-1,-1,-2,1,-2,0,0
8.418541,-2,-2,-1,-1,0,-1,-2,-1,0
8.418582,1,-2,0,-2,0,-2,0,0,0
8.419219,1,2,1,0,-2,-1,-1,0,0
8.419227,4,-1,-2,-2,-2,-1,-2,0,0
8.432836,-5,-3,0,-1,-1,0,-1,-1,0
8.432854,2,-1,-2,-3,-1,0,-1,-2,0
8.441166,0,-1,-1,-1,-2,-2,-1,0,0
8.441186,-2,0,-2,-2,-1,0,0,-1,0
8.456002,0,-1,1,1,0,-1,-1,-3,0
8.457571,-4,-2,-1,-1,0,0,-1,-1,0
8.457575,-4,-1,-1,-1,-1,1,-2,-1,0
8.457576,7,1,-1,-1,-1,-1,-1,-2,0
8.478808,-3,0,-3,-2,-1,1,0,-1,0
8.478812,-5,-1,0,0,-2,-1,-2,-1,0
8.479395,3,1,0,-2,-1,-1,-2,-1,0
8.479427,-3,-4,0,-1,0,-1,-2,-1,0
8.494848,-2,-1,-2,-2,-1,-2,-2,1,0
8.494860,-2,-2,0,-1,-1,-1,0,0,0
8.500937,-4,-1,-2,1,0,-1,0,0,0
8.500956,-3,-1,0,-1,-1,-1,-1,-1,0
8.516087,1,0,-1,-1,-2,-1,0,-1,0
8.516105,-1,-2,-1,0,0,-1,-3,-1,0
8.516683,0,0,-2,-2,0,-1,-1,0,0
8.516785,2,0,0,-2,-1,-2,1,-1,0
8.539079,-1,-3,-1,-2,0,-1,-2,-1,0
8.539107,0,0,-1,-2,0,0,-2,-1,0
8.541020,0,-3,0,-3,0,-1,-1,-1,0
8.541026,-3,-1,-1,-1,-1,-1,0,-2,0
8.561755,-1,0,-2,-1,0,0,1,1,0
8.561784,2,0,-1,-1,-1,-1,-1,0,0
8.562681,-3,-2,-2,-1,0,-2,-2,-3,0
8.562712,3,-1,-2,-2,-1,-2,-3,-1,0
8.575845,1,-2,-2,-2,-1,-1,-1,-2,0
8.575857,0,1,-2,-1,0,-3,-1,0,0
8.576769,0,0,0,-2,-2,0,-1,-1,0
8.576789,-4,-1,-1,-1,0,-1,-1,-2,0
8.598564,-1,-2,-1,-1,-3,2,0,-2,0
8.598583,0,-1,-1,-1,-1,-3,0,0,0
8.599991,0,-1,1,-1,-2,0,-2,-1,0
8.599995,-5,0,-2,-1,0,-2,-2,-1,0
8.621572,1,1,-2,-1,-1,-1,-1,0,0
8.621581,0,-1,-2,0,-1,1,-1,0,0
8.622196,-5,-1,0,0,-1,-1,-1,1,0
8.622204,2,-1,-2,-1,-3,-2,0,0,0
8.635965,-6,-2,-1,0,-1,-2,-2,-4,0
8.636002,2,0,-1,0,-1,-1,0,1,0
8.636732,7,0,-4,-1,-2,-2,-1,-1,0
8.636740,-2,0,1,0,1,1,-1,0,0
8.658633,0,-1,1,0,0,-1,-1,-1,0
8.658651,1,-1,-1,-1,0,-1,0,-2,0
8.660259,-1,-2,-2,-1,-1,-1,-2,-1,0
8.660268,-3,-2,0,-1,0,0,-1,-1,0
8.682122,-1,0,-1,-2,-1,-3,-2,0,0
8.682174,-2,-2,-1,0,-1,0,-1,-2,0
8.683433,-2,-1,0,-1,-1,0,-1,-2,0
8.683441,0,0,-3,-1,-1,-1,0,-1,0
8.696098,-4,-1,-1,0,1,-1,-1,-3,0
8.696126,1,-1,-1,0,-1,-2,-1,-1,0
8.697250,2,2,-2,-1,-1,-4,-2,-1,0
8.697257,-2,-2,-1,-1,-1,-2,-1,0,0
8.718473,1,-2,-1,-2,-3,1,-1,-1,0
8.718495,-3,0,0,-1,-2,-1,-2,-1,0
8.719221,-4,-1,0,1,-1,2,2,-3,0
8.719244,-1,0,0,-3,0,0,0,-2,0
8.741656,2,-1,-2,-1,-1,0,-1,1,0
8.741676,-1,-1,0,-1,-1,-2,-2,-2,0
8.742992,-1,-1,-2,0,0,-1,0,1,0
8.743013,-3,0,0,0,-2,-1,-2,-3,0
8.756122,-2,-1,1,0,0,0,-1,0,0
8.756154,-1,0,-3,-1,-3,-1,0,0,0
8.757360,0,-2,-1,0,0,-1,-1,1,0
8.757366,-2,-2,-2,0,-2,0,-1,-1,0
8.778713,1,0,-3,0,-1,-2,1,-1,0
8.778717,-1,-1,-1,-3,0,0,-1,-3,0
8.779149,-2,-1,-3,-2,-1,-2,-1,-3,0
8.779158,0,0,0,-2,-2,-1,0,0,0
8.801858,0,0,-1,-1,-1,-1,-2,-1,0
8.801888,-4,-1,-2,-2,-1,-2,0,0,0
8.803494,1,-1,-1,-1,-1,1,-1,0,0
8.803501,4,-1,-1,-1,1,-1,-2,-1,0
8.816020,-1,-2,0,1,-1,-1,0,-1,0
8.816038,0,-1,-1,-1,1,0,0,0,0
8.816814,-4,-1,1,-1,-1,-1,-1,-1,0
8.816818,-3,-1,-1,0,-2,-1,-1,-1,0
8.838536,-1,0,0,-1,-2,-3,-1,0,0
8.839830,0,-2,0,-3,-1,-2,0,0,0
8.839837,-2,-3,-2,0,-1,-1,0,0,0
8.839842,-2,0,0,-3,-1,-1,0,-1,0
8.861702,0,-2,0,-1,-1,-1,-2,-2,0
8.861723,-2,0,0,-2,-1,-1,0,-1,0
8.862479,2,0,-1,0,-1,-1,0,0,0
8.862502,-1,-1,-1,0,-2,0,-1,-1,0
8.876037,-3,0,-1,2,1,1,-1,-3,0
8.876050,0,-2,-1,-2,-1,-1,-3,0,0
8.876884,-1,1,0,-2,0,-1,0,0,0
8.876911,-3,-1,-1,0,1,-1,-2,-2,0
8.898717,2,-1,-1,-2,-2,-3,1,-1,0
8.898741,0,0,-2,-2,1,0,-3,-1,0
8.900122,0,0,-3,-2,-3,0,-2,-1,0
8.900127,-2,-1,-1,-2,-1,1,1,0,0
8.921870,1,0,-1,-2,-1,0,-1,0,0
8.921938,-1,-2,-2,-1,-2,-1,-1,-2,0
8.922706,-2,-1,0,-1,-1,-1,0,0,0
8.922731,0,0,-1,0,-2,-2,-2,-2,0
8.935926,-3,-1,0,-2,0,0,-2,-1,0
8.935965,0,-1,0,0,-1,-1,-1,-1,0
8.936616,-5,-2,-1,0,0,-2,-1,-1,0
8.936649,-4,-2,-2,0,-2,-1,-3,0,0
8.958815,15,2,-2,-3,-1,-2,-1,-2,0
8.958836,-2,-1,-2,0,-2,-3,-1,-1,0
8.961273,1,0,-1,-1,-2,0,0,-1,0
8.961279,-4,-1,0,-2,-1,0,-2,-1,0
8.982623,-7,-2,0,-1,-1,-2,-4,0,0
8.982634,0,0,0,-2,-1,0,0,-1,0
8.982636,-1,-1,-1,-1,-1,-3,-3,-1,0
8.982637,1,-2,-2,0,0,-1,2,-1,0
8.997136,-3,0,0,-1,-3,-1,-1,-2,0
8.997152,1,0,0,0,-1,-1,-1,-2,0
8.997154,-2,-3,1,-1,0,0,0,-1,0
8.997157,0,-1,-1,1,1,-2,-2,-1,0
9.018790,-2,-1,-1,-1,0,-1,-1,0,0
9.018806,-4,0,0,0,-2,0,0,-1,0
9.020751,1,-1,-2,-1,0,0,0,-2,0
9.020850,3,-1,0,-2,-1,0,0,0,0
9.042647,-2,-2,-2,-1,-1,-1,0,0,0
9.042653,0,-3,0,0,-1,-1,-1,-1,0
9.042654,-1,0,-2,-1,0,0,0,0,0
9.042656,-5,-1,0,-1,0,-1,-1,-2,0
9.055402,5,-2,0,0,-2,-2,0,-1,0
9.055425,-1,0,-1,-2,1,-3,-2,-2,0
9.064035,1,-1,0,0,-1,-2,-2,-1,0
9.065967,-2,0,-1,-2,-1,0,0,-1,0
9.078463,-3,1,-1,-1,-2,0,1,0,0
9.078494,1,-1,-2,0,-1,-1,-1,-1,0
9.080320,0,0,-3,-2,-2,0,-1,0,0
9.080336,0,-2,0,0,-2,-1,0,-1,0
9.101807,-1,-4,0,-2,-1,1,0,0,0
9.101824,0,-1,-1,1,-2,0,-2,-2,0
9.103913,-1,0,0,-2,-1,-2,-1,1,0
9.103927,1,-2,-3,-2,0,-1,-2,-2,0
9.115915,-1,-2,-2,0,-1,-2,0,-1,0
9.115933,-5,0,-1,0,0,-2,-1,-1,0
9.118085,7,1,1,-1,-1,0,-2,-2,0
9.118091,1,0,0,-1,0,-1,-2,0,0
9.138471,-2,0,1,-1,0,-2,-3,-1,0
9.138487,-5,-1,-2,-1,-1,-1,-1,0,0
9.139205,5,-1,-3,1,-2,-1,-1,0,0
9.139252,-4,0,-1,1,-2,-1,-1,-2,0
9.161668,-2,-1,-1,-1,-1,0,-1,0,0
9.161692,-3,-1,0,-1,0,-1,-1,-1,0
9.163360,-3,-2,1,0,1,-2,-2,0,0
9.163378,3,-2,-2,-1,1,-2,0,-2,0
9.175372,-1,0,-3,-2,0,1,-2,-1,0
9.175396,1,-1,-2,-2,-2,-1,-1,-3,0
9.183864,-1,-3,-2,-3,0,-2,0,-1,0
9.183868,-2,-1,-1,-2,-1,0,0,0,0
9.198590,-3,-1,0,1,0,2,-3,0,0
9.200015,2,-1,-2,-2,1,-1,0,0,0
9.200020,-2,1,-1,0,-1,0,0,-2,0
9.200022,-1,-1,-1,0,-2,-1,-1,-1,0
9.221919,-1,-1,-2,-2,-2,-1,-1,0,0
9.221970,0,-1,-1,0,-2,0,0,-1,0
9.222368,-7,-1,0,-1,-1,0,-1,-2,0
9.224390,3,0,-1,-1,-1,-2,-2,1,0
9.235372,-1,-1,0,0,-2,-1,0,-1,0
9.235387,-1,0,-2,-1,-1,0,-2,-1,0
9.244165,-1,-1,0,-2,-1,-1,0,-1,0
9.244202,-1,-1,-2,0,-2,-2,-2,0,0
9.258599,-2,0,-1,0,-1,-2,-2,-2,0
9.258620,0,0,-1,-1,0,0,-2,0,0
9.261592,-1,-2,-2,-1,0,-2,-2,-2,0
9.261603,1,2,0,-1,0,-1,-1,-3,0
9.281904,-2,-2,-1,-1,1,0,0,-1,0
9.281920,-1,-3,-1,-1,0,-1,-1,1,0
9.282425,4,1,0,-1,0,-2,-3,0,0
9.282492,-11,-2,0,-1,-1,-1,-1,-2,0
9.295309,4,0,-2,-2,0,-3,0,-2,0
9.295324,1,0,-1,-1,1,0,-1,-1,0
9.303604,-2,0,-1,-1,-1,-1,-1,0,0
9.303634,2,0,1,-1,-1,0,0,-2,0
9.318448,-4,-2,-1,-1,-1,-1,-1,-2,0
9.318464,-3,0,-1,0,0,0,0,-2,0
9.319843,-1,-2,-2,-2,-1,-3,0,-1,0
9.319852,2,-1,-1,-1,-1,0,1,0,0
9.341677,-3,1,0,0,-2,-3,0,-1,0
9.341690,4,0,-2,-3,-2,-2,0,1,0
9.342280,-2,0,-1,-1,0,-1,-1,-2,0
9.342295,-2,-1,-3,-1,-2,-2,-1,1,0
9.374443,-5,0,-2,-2,0,-2,-1,-2,0
9.374449,8,0,-1,-2,-1,0,-1,-1,0
9.374450,-3,-1,-1,1,-1,0,1,0,0
9.374452,1,-2,-1,-1,0,1,0,-1,0
9.378577,-2,1,-3,-1,0,-1,-2,0,0
9.378596,-6,-2,-1,-1,0,-1,-2,-1,0
9.379548,-1,-3,-1,-1,-2,0,0,-1,0
9.379614,0,0,0,-1,0,-1,1,0,0
9.402909,-6,-2,-1,-2,-2,0,-1,-1,0
9.402912,-1,0,-1,-1,-1,-2,1,-1,0
9.402914,-2,2,-1,-1,-1,-3,-2,-1,0
9.402916,4,-2,0,-1,0,0,-2,-1,0
9.415440,2,1,-1,0,0,0,0,0,0
9.415463,-2,-1,1,-1,-2,0,-2,-3,0
9.423951,-2,-3,-1,-1,-2,0,0,1,0
9.423969,-3,-1,-2,0,1,-2,-1,-2,0
9.438850,0,-2,-1,0,-2,-1,-1,1,0
9.438878,3,1,1,1,-1,-2,-1,0,0
9.440507,0,0,-1,-1,-1,-1,0,-1,0
9.440515,-7,-1,-4,-1,-3,-3,-1,-1,0
9.461738,5,-1,-1,-3,0,1,-2,-1,0
9.461761,-4,-2,-1,0,0,0,0,-1,0
9.464441,-2,-1,-1,-2,-1,0,-2,-2,0
9.464466,-3,1,-1,-1,-2,-1,-2,0,0
9.484135,0,1,-2,-1,-1,-1,-3,-1,0
9.484151,1,-2,-1,-1,-2,-1,0,-1,0
9.484856,-2,-1,0,-2,-1,-1,-1,-1,0
9.484894,-2,-2,0,-1,-1,0,-1,-1,0
9.498538,-2,-2,0,-1,-1,-3,0,-2,0
9.498557,4,-2,-1,-1,0,-1,0,0,0
9.499403,-1,-2,-3,-1,1,0,0,0,0
9.499422,4,2,1,-1,0,-2,-2,-1,0
9.521693,-1,0,2,0,-2,-1,0,-2,0
9.521710,-2,0,-1,0,-2,-1,-1,-1,0
9.523019,-3,-3,-1,-1,-1,-1,-1,-1,0
9.523069,0,-2,-2,-3,0,-1,0,-1,0
9.544196,-1,-1,1,-1,0,-1,0,1,0
9.544242,-4,-2,0,-1,-2,0,-1,-1,0
9.544896,-3,-2,-3,0,-1,0,-1,-1,0
9.544910,6,0,-2,-1,-2,-1,-2,-1,0
9.560310,1,0,-1,1,0,-2,-3,0,0
9.560326,-5,0,-1,0,0,-1,-1,0,0
9.560329,-1,0,-1,0,-1,-2,-1,-1,0
9.560331,-5,-2,0,0,-1,-1,0,-1,0
9.581741,2,-1,-2,-4,-1,-2,0,-1,0
9.581762,-3,0,-2,-1,-1,0,-1,0,0
9.583890,0,0,0,0,0,0,-1,-2,0
9.583899,-3,-2,-2,-2,-1,0,2,0,0
9.605754,1,-1,-1,0,-1,-1,-2,-2,0
9.605765,-4,-1,0,0,1,-1,-1,-2,0
9.605769,0,1,1,-1,-1,0,0,-2,0
9.605774,-3,-2,0,-1,-1,-2,-2,-2,0
9.622236,2,-3,-2,-2,-3,1,0,-2,0
9.622239,1,0,-1,-1,-1,-3,-1,0,0
9.622241,-1,-1,-2,-2,-1,-1,-2,0,0
9.622243,-1,-1,-1,1,0,2,-1,0,0
9.641754,-2,0,-1,-2,-2,1,0,-1,0
9.641782,-6,-1,0,-2,-1,-1,-2,0,0
9.642726,6,1,-1,-1,-1,-1,-1,-2,0
9.642753,-1,-1,0,-2,-2,-2,-2,-1,0
9.664373,-1,-2,0,0,-1,-1,-1,-1,0
9.664398,0,0,-3,0,2,-1,0,-1,0
9.666869,1,1,-1,-3,0,-2,-1,-1,0
9.666875,-6,0,0,0,-2,-2,0,-2,0
9.678608,0,-1,-1,0,-1,-1,-2,-1,0
9.678630,-1,-1,-2,-1,-1,0,-2,-1,0
9.679853,1,-2,-2,-1,0,-2,0,0,0
9.679859,1,1,0,-1,1,-2,-1,-1,0
9.701661,-1,-3,0,-1,1,-1,-1,-2,0
9.701681,-1,-1,-1,0,-1,-2,-2,0,0
9.702351,-2,-2,0,0,-1,0,0,-1,0
9.702376,-2,-3,-2,-2,-1,0,0,0,0
9.724597,-2,2,3,1,-1,-1,-4,-1,0
9.724620,0,-2,-1,-3,-1,0,-1,-2,0
9.726776,-2,-1,-1,1,0,-1,-1,-2,0
9.726789,-3,-1,-2,-2,-1,-1,-1,1,0
9.738800,-5,-2,-1,-2,1,-1,0,-2,0
9.738828,6,1,-2,0,-1,-2,0,-1,0
9.741128,-1,0,1,1,-1,0,-2,0,0
9.741132,0,-1,-2,0,-2,0,0,-2,0
9.762828,-4,-1,-1,0,-1,-2,-2,0,0
9.762835,-4,-3,0,-2,-2,-1,-1,-1,0
9.763261,1,-1,-3,-3,0,-3,-1,-2,0
9.763273,0,1,-2,1,-1,0,-2,0,0
9.784336,-1,-1,-2,-2,-1,0,-1,0,0
9.784357,0,-1,-2,0,0,-2,-1,1,0
9.785896,0,-1,0,0,-2,-1,-1,0,0
9.785901,0,-2,-1,-1,-1,-1,0,-1,0
9.797880,2,0,-2,1,-1,-2,1,-1,0
9.797899,-3,1,0,-1,-2,0,-1,-2,0
9.807072,-5,0,-2,0,0,-1,-1,0,0
9.807076,2,-2,0,0,-1,-1,-2,-1,0
9.824113,2,0,0,-1,-1,-2,-2,-1,0
9.824118,0,-1,-2,0,-3,-1,-2,-2,0
9.824121,-2,0,0,-1,-1,-1,-1,-1,0
9.824122,-3,0,-2,-1,-2,-1,-1,-2,0
9.844372,-2,1,-1,0,-1,0,-1,0,0
9.844402,-3,-4,-2,0,0,-2,1,-1,0
9.847712,4,-2,0,0,-1,0,0,0,0
9.847723,1,0,-1,-1,-1,-1,-1,0,0
9.857833,1,-1,-2,-1,1,-1,0,-1,0
9.857854,-4,0,-1,-2,0,-2,-1,-2,0
9.867268,-3,-1,-1,-1,-1,-1,0,-1,0
9.867272,2,-2,-1,-1,-2,-1,0,0,0
9.881736,-2,-3,-2,0,-2,-1,1,-2,0
9.881770,-2,-2,-1,0,1,-2,-1,-2,0
9.884147,-1,-1,-1,-1,-1,-2,-1,-2,0
9.884155,-1,0,0,-1,-1,-1,0,-1,0
9.904433,-2,1,-1,-1,0,0,0,-1,0
9.904509,-1,0,0,-3,-2,0,0,-1,0
9.905649,0,0,-2,-2,-1,-1,-3,-1,0
9.905661,-3,1,-1,-1,0,-3,-2,-1,0
9.917727,-5,-1,0,0,0,-2,-2,-1,0
9.917743,4,1,-1,0,-2,-2,-2,-1,0
9.928316,-3,-1,0,-2,-1,-2,-1,-2,0
9.928321,4,0,-1,-1,0,-2,-2,0,0
9.942021,-2,-3,-1,-1,-1,-1,-2,-1,0
9.942044,-2,-1,1,-1,0,-1,0,0,0
9.944177,-1,0,-2,-3,-1,-1,-2,-1,0
9.944188,-2,-2,-2,0,0,0,-1,-2,0
9.964511,-2,-3,-1,-1,0,0,0,0,0
9.964566,2,0,-1,-2,0,0,-1,0,0
9.965724,-1,0,0,-2,-2,-2,-3,-1,0
9.965742,0,-1,-2,-1,-2,-2,-2,-1,0
9.977950,0,1,-1,-2,-1,-1,-2,-2,0
9.977976,-3,-2,0,-1,-2,0,-1,0,0
9.987590,-2,-1,-2,1,-1,-1,1,-1,0
9.987594,-1,-1,-1,-3,-2,0,0,-2,0
10.001626,-2,0,0,1,-2,-3,-2,-1,0
10.001648,-3,0,0,0,-1,-1,-1,0,0
10.003325,4,-2,0,0,-2,1,1,0,0
10.003330,-7,-1,0,0,0,0,-1,-1,0
12.027735,39,2,0,1,14,-31,3,10,3
12.028197,-4,6,3,2,-6,9,32,-36,3
12.030011,-16,-6,-3,-34,64,-23,-52,-89,3
12.030126,-2,7,4,22,50,-17,28,37,3
12.049162,18,-1,-3,-1,3,0,83,-13,3
12.049349,-8,-7,-2,4,-69,-45,-65,-4,3
12.050610,13,2,-1,-10,-41,4,-2,52,3
12.050623,-25,-3,-2,5,-13,33,38,-72,3
12.064367,-1,-2,-5,-2,20,-19,-12,-19,3
12.064375,-15,-2,-4,0,-3,-17,-13,39,3
12.072973,10,2,2,15,-26,-1,-10,0,3
12.072980,0,-2,-1,-4,-14,5,16,-34,3
12.086818,6,-2,-1,6,-22,23,1,33,3
12.086844,1,-3,-3,-4,54,30,-8,4,3
12.088753,4,3,-1,4,-74,24,-14,41,3
12.088758,-18,2,0,10,51,6,-31,14,3
12.109880,-31,-10,-7,-9,7,26,32,-72,3
12.112078,5,2,0,-5,50,-29,-21,2,3
12.112086,8,6,1,11,3,47,5,-6,3
12.112088,25,4,2,-18,-71,-7,45,16,3
12.123384,4,-5,3,25,47,20,-49,-11,3
12.123411,-19,-5,-4,-14,39,-68,-28,-37,3
12.132591,-5,-4,-4,34,-67,-16,94,47,3
12.132596,19,3,0,26,-19,3,3,-43,3
12.147163,0,-6,-6,-16,-34,-12,-18,18,3
12.147199,-6,-5,-3,-1,14,78,55,17,3
12.148371,16,-1,3,-4,-41,-4,-27,-8,3
12.148389,19,-6,-6,-21,-23,28,26,45,3
12.169442,-19,2,3,5,-8,-25,-21,-15,3
12.169459,0,2,2,-3,17,10,53,37,3
12.171370,0,-2,-4,-8,34,-11,23,4,3
12.171376,-9,-4,0,4,-13,61,8,-63,3
12.182777,20,6,4,-3,-26,31,-31,-20,3
12.182799,-39,-3,0,-1,63,118,36,54,3
12.191607,20,-2,1,4,76,45,-38,-19,3
12.191642,26,0,-2,-5,-85,-24,-17,44,3
12.206557,4,1,0,-4,7,3,34,44,3
12.206572,0,2,-1,1,11,9,-32,-20,3
12.208012,5,0,-3,-1,-1,-40,-3,-3,3
12.208028,-25,-6,-3,-11,-4,10,30,-8,3
12.229389,18,3,3,-8,-51,-43,-86,13,3
12.229435,-10,-7,-7,15,-29,-42,4,24,3
12.231283,-14,2,2,3,54,-18,36,75,3
12.231290,21,1,0,-32,-29,-23,-35,-49,3
12.242855,-26,-12,-8,48,9,26,-11,-39,3
12.242890,26,-5,-1,8,17,-14,35,-9,3
12.251610,-31,0,2,-7,-105,56,29,2,3
12.251625,0,3,2,5,95,4,-3,28,3
12.267199,1,-3,0,-9,-5,-12,4,10,3
12.267206,1,6,3,-20,-77,-1,6,-29,3
12.268171,0,-6,-4,6,18,43,3,-26,3
12.268186,5,-1,-2,-1,-16,-6,7,27,3
12.289117,10,4,1,-13,-7,-15,8,1,3
12.289140,-7,0,0,8,7,-3,-17,-18,3
12.291591,-6,0,0,-9,27,-27,-7,-17,3
12.291596,-10,-4,-3,3,-5,-8,7,8,3
12.303317,6,2,-2,-6,15,12,-13,20,3
12.303345,7,0,-1,-2,11,-1,6,8,3
12.313599,0,-1,-6,-8,-6,-67,29,25,3
12.313620,-6,-6,-4,7,70,75,-25,-51,3
12.326735,0,5,2,-3,4,16,-1,13,3
12.326768,6,-3,-5,-7,-3,-71,-76,-75,3
12.329101,13,1,-1,-14,-34,-4,15,49,3
12.329108,-12,0,-2,9,-15,-25,9,8,3
12.349110,-15,-1,-1,-12,-12,-5,28,9,3
12.349129,-16,1,-4,-8,-39,-8,-30,-24,3
12.350691,1,-3,2,3,26,27,-5,-16,3
12.350708,-6,-3,-6,-21,-57,-20,4,0,3
12.371633,-5,6,3,-33,12,25,-40,27,3
12.371655,18,-7,-3,31,9,-12,16,-63,3
12.373051,2,-5,0,10,-14,-38,-43,-27,3
12.373059,-1,-1,-1,-6,1,-14,16,30,3
12.386838,-19,-1,-3,-1,31,-51,27,-3,3
12.386860,-7,2,3,-9,23,-5,30,22,3
12.388173,8,5,5,4,45,55,41,-4,3
12.388210,-2,0,-1,12,73,75,48,-43,3
12.409249,-24,-4,-1,3,-28,20,4,-12,3
12.409272,-5,2,2,-3,-11,13,-18,-16,3
12.410854,-6,-1,-2,7,61,11,2,-30,3
12.410875,2,2,2,-5,-47,-8,-17,-19,3
12.431720,9,0,0,6,7,-15,22,12,3
12.431740,-1,-6,-2,-3,16,39,33,39,3
12.433061,-10,-6,-4,-10,-98,19,-67,-73,3
12.433070,-2,-6,-5,-9,-15,6,-21,37,3
12.446996,17,-1,1,10,33,-10,35,-5,3
12.447032,-6,-3,-1,1,15,84,0,16,3
12.448873,-9,-4,-2,-5,18,-41,-20,17,3
12.448880,-2,1,2,-1,-13,-57,-24,17,3
12.470273,11,-3,-1,2,-18,1,7,-11,3
12.470281,-7,0,-1,-14,-45,-77,-46,67,3
12.470634,-6,7,6,11,46,67,20,34,3
12.470643,6,0,5,9,-71,-44,-35,-14,3
12.492164,-7,-3,-6,-17,-23,43,-2,0,3
12.492186,23,-6,-1,-18,90,-48,28,-24,3
12.494791,-13,1,0,52,-4,-16,-1,14,3
12.494800,-12,1,0,6,3,-14,-32,16,3
12.505970,3,-2,-3,-3,-64,-9,3,-12,3
12.506775,5,3,-1,4,24,-10,23,13,3
12.513124,14,1,-3,-13,-17,-22,-21,0,3
12.513158,-19,-5,-4,-8,14,-1,40,70,3
12.531819,-2,4,2,6,2,-35,-26,38,3
12.531824,4,-1,-4,-6,23,83,4,-51,3
12.531827,1,-9,-5,7,12,-65,-51,-22,3
12.531880,10,1,1,11,26,60,-2,-16,3
12.551555,0,-4,-3,-3,27,45,10,4,3
12.551572,-20,-4,0,8,-19,4,-11,6,3
12.553091,-10,-2,-4,-17,-33,0,-4,7,3
12.553107,0,3,0,-2,2,-22,18,7,3
12.565982,4,-3,-3,3,5,-2,-21,-54,3
12.565998,7,4,1,-5,-11,4,8,3,3
12.572736,-2,1,-1,-7,-10,-22,9,1,3
12.572753,0,-1,-2,-2,1,9,1,-8,3
12.589599,0,1,2,1,4,-16,6,3,3
12.589629,0,-1,0,4,-19,-7,-5,13,3
12.591257,-2,1,-2,-22,-89,12,12,-23,3
12.591262,-23,-1,6,15,42,22,36,-56,3
12.611656,13,-1,-3,0,-6,-29,6,61,3
12.611677,-4,-4,-4,3,54,-45,-1,-8,3
12.613595,10,-5,-2,-6,-24,-16,1,-7,3
12.613629,-18,-3,-3,-6,-14,-16,2,-24,3
12.627287,-9,1,1,2,-20,50,8,5,3
12.627299,3,4,-2,-6,-14,39,9,18,3
12.632782,6,2,1,3,-19,11,0,19,3
12.632798,12,3,-4,-53,-79,-36,-27,12,3
12.649094,-4,-5,-1,11,-74,64,-39,-15,3
12.649111,23,6,3,3,-5,-73,-5,9,3
12.650569,-15,0,1,2,2,-11,-3,32,3
12.650581,10,-4,-1,-5,-19,-6,11,-66,3
12.672038,4,-5,-2,-12,-20,-16,25,5,3
12.672043,-25,-2,0,4,-29,25,15,-3,3
12.673120,61,6,-1,-4,25,13,-12,54,3
12.673156,-26,-3,-2,10,-12,-45,15,11,3
12.686174,-6,0,-2,-4,40,-41,-66,-57,3
12.686196,7,-7,-2,6,-44,30,10,-29,3
12.693396,8,3,3,-1,43,-48,25,4,3
12.693435,27,1,0,8,2,17,-49,28,3
12.709318,-29,-4,-2,4,26,-16,14,-10,3
12.709344,-45,-9,-6,-11,-24,-1,-23,11,3
12.711178,-15,0,-3,-6,-8,4,0,-23,3
12.711183,-4,-7,-2,7,11,11,-34,6,3
12.731649,9,-1,1,-2,2,9,67,25,3
12.731666,7,4,3,1,5,29,-2,-4,3
12.733149,-13,-8,-6,-5,-17,57,8,-17,3
12.733161,-19,-3,1,7,1,33,37,-17,3
12.746232,32,11,8,7,79,-40,0,95,3
12.746286,7,2,0,1,-3,-13,22,45,3
12.752974,-16,-12,-13,-13,-29,-15,-34,-23,3
12.752990,42,3,-2,-10,13,-19,-72,-76,3
12.769230,-67,-2,1,-3,-31,24,90,80,3
12.769271,33,-4,-4,-1,-32,-43,-30,-39,3
12.770646,-13,-4,-1,0,24,44,-18,9,3
12.770669,6,-1,-2,-2,0,-12,30,22,3
12.792148,5,-1,-4,-7,-14,-42,2,-32,3
12.792177,-6,2,0,8,71,3,-37,-8,3
12.794966,-19,-1,-1,-3,18,-5,40,-13,3
12.794976,-21,-1,-2,3,9,-3,6,-18,3
12.805948,7,-2,-2,-1,-23,-18,25,-75,3
12.805964,20,-3,-1,-3,-23,32,10,21,3
12.815336,32,7,3,2,8,-25,-23,-1,3
12.815343,-32,-5,2,4,-21,11,54,82,3
12.829730,-1,-4,-4,-9,22,-69,-111,-32,3
12.829735,0,3,0,-13,-5,-14,15,7,3
12.831160,-24,1,5,18,1,-41,18,-19,3
12.831208,24,6,1,2,-44,30,23,32,3
12.851764,7,-3,-1,0,-2,-70,-25,6,3
12.851780,-2,-8,-7,-42,-18,-29,-6,39,3
12.853876,-38,-5,0,37,62,-1,-62,-36,3
12.853882,1,6,0,-2,-39,53,80,39,3
12.865331,19,2,1,6,-27,20,-10,-41,3
12.865349,-26,1,1,0,6,35,6,-25,3
12.875757,6,2,2,-10,-9,-5,14,33,3
12.875775,9,-1,-2,-4,23,-2,-22,40,3
12.889475,-9,4,-1,-3,5,33,1,-16,3
12.889498,19,2,-2,10,-16,-14,-5,34,3
12.891193,7,1,4,-8,1,-2,4,58,3
12.891203,-8,-3,-7,0,-17,63,-4,29,3
12.911675,-3,-2,1,-4,-59,49,-17,-22,3
12.911703,4,-2,2,16,60,47,70,4,3
12.914527,-28,-1,-2,-4,3,112,5,-13,3
12.914534,15,-1,-1,-4,12,-19,-26,-30,3
12.925445,10,1,0,4,-4,-2,9,5,3
12.925615,-2,-3,-4,6,-18,-5,-6,27,3
12.934376,8,-6,-2,-11,-14,-39,-14,-29,3
12.934387,-10,3,2,7,29,-20,-20,-19,3
12.949209,4,3,1,0,6,30,17,63,3
12.949226,4,1,1,4,-35,-11,-22,-16,3
12.950664,21,5,-1,-6,38,-22,28,1,3
12.950696,3,-1,2,-2,43,-49,-17,14,3
12.979644,-13,-7,-6,3,71,-1,-6,-9,3
12.979743,12,3,2,-5,-11,9,9,6,3
12.982507,-2,-1,-1,-5,-72,-21,-7,-2,3
12.982515,0,0,-2,5,49,-44,0,-29,3
12.985337,-11,-5,-3,-4,4,-7,58,22,3
12.985353,-12,-2,-3,-1,-10,-1,-50,-84,3
12.996384,12,-1,-3,-4,0,98,52,17,3
12.996397,-14,-5,-3,0,-20,-27,24,-46,3
13.009632,17,4,0,-5,-11,-32,-32,27,3
13.009669,-24,-2,0,3,20,1,12,32,3
13.012059,1,1,-1,2,7,-39,10,0,3
13.012065,2,-2,-2,-9,-25,40,-39,38,3
13.032073,-7,0,-1,4,47,14,-11,-3,3
13.032078,-7,-5,-3,1,16,-8,-4,-79,3
13.033205,22,-1,-1,1,-6,-10,-6,81,3
13.033274,-5,1,3,7,13,-18,1,-30,3
13.046452,-1,-4,-5,-6,15,20,6,-8,3
13.046458,-5,3,3,-13,-26,-17,-56,-19,3
13.054760,27,4,2,17,30,-29,27,23,3
13.054765,-21,-11,-7,-4,-61,-7,-63,-10,3
13.069403,1,-2,-1,0,-17,-33,51,-20,3
13.069426,-20,-6,-1,5,14,-20,-4,16,3
13.071210,-17,-4,-4,-14,-30,-1,-21,-43,3
13.071218,7,5,2,2,17,-9,20,20,3
13.091706,-2,-2,-2,-2,-5,-8,-5,-11,3
13.094462,3,0,-1,3,4,1,10,24,3
13.094468,-13,0,0,-7,-55,-40,-26,3,3
13.094470,3,-9,-6,-8,1,-10,15,-6,3
13.105930,-20,-8,-3,-6,-75,38,-52,19,3
13.105959,4,2,0,1,-36,4,35,8,3
13.115755,-25,3,2,1,5,14,-10,-10,3
13.115764,17,0,-2,-8,-1,7,-2,-23,3
13.129585,22,2,2,7,-20,8,0,54,3
13.129634,-3,-1,1,3,3,14,-1,-27,3
13.130903,-17,-3,1,-9,-4,-13,-26,-21,3
13.130934,3,1,-2,-1,18,-69,10,22,3
13.151687,-16,5,1,-2,22,1,-12,-25,3
13.151708,23,-2,-1,-6,-12,-28,-9,7,3
13.153409,20,4,3,30,59,8,4,38,3
13.153419,0,0,0,1,44,16,8,-15,3
13.165328,-19,-4,-2,-1,-6,49,-52,-26,3
13.165346,-1,6,-1,-1,65,2,12,4,3
13.174364,12,0,1,-7,-18,9,-17,-37,3
13.174368,-9,-2,1,-1,-35,-5,-15,23,3
13.189106,-15,-3,-2,2,6,-32,14,-29,3
13.189122,22,-4,-2,-1,-16,18,3,52,3
13.190792,-26,-3,-2,-4,8,-3,0,-8,3
13.190809,8,4,0,5,0,32,8,-8,3
13.211736,15,0,-3,-6,-11,-20,1,23,3
13.211760,-32,-2,-1,2,-13,3,4,-25,3
13.214411,35,2,-4,-8,-11,-9,37,30,3
13.214418,-18,-10,-1,1,-15,15,-47,-28,3
13.225303,-2,2,3,-2,-19,19,14,4,3
13.225326,8,-9,-5,1,62,11,-7,-14,3
13.235059,-2,1,-2,-4,-8,-8,-5,-22,3
13.235065,-10,-1,-3,-5,39,94,11,26,3
13.250199,9,2,2,3,18,-52,1,8,3
13.250204,-34,1,1,0,-33,-40,3,-84,3
13.255901,27,-7,-5,-12,5,-10,-22,44,3
13.257819,-10,2,2,5,-74,-14,33,-17,3
13.272534,10,-2,-2,1,46,64,-17,-43,3
13.273799,-11,6,0,-3,-6,-20,-37,3,3
13.273804,-17,-10,-5,-3,3,-5,0,-37,3
13.273806,21,5,1,-1,-8,-12,-6,3,3
13.296093,-3,-5,-6,-1,-12,-25,0,-23,3
13.296105,6,0,2,1,-16,4,6,30,3
13.296107,-17,3,-2,-6,51,10,-13,-11,3
13.296109,0,-2,-4,4,10,1,13,-7,3
13.309514,0,-1,-2,-13,-57,-40,-51,-3,3
13.309550,-8,-6,-2,4,2,15,7,17,3
13.312449,1,-1,-1,-5,-89,-16,8,-5,3
13.312457,-14,-5,-2,0,18,-15,-10,22,3
13.331732,12,1,-1,1,-2,7,34,53,3
13.331749,-7,1,0,-4,-18,52,-11,-41,3
13.333205,5,-9,-4,-6,-10,44,23,45,3
13.333255,3,2,-1,-3,-8,-28,8,-36,3
13.361648,-8,0,-2,-4,-53,-7,-3,4,3
13.361670,21,0,-2,3,42,16,11,30,3
13.363634,2,7,4,3,15,17,10,-26,3
13.363681,-5,3,1,1,15,-13,-18,-30,3
13.369291,4,-3,-3,-1,-14,-2,13,40,3
13.369307,10,0,-2,0,-27,-17,18,-29,3
13.370584,-28,-5,-3,-1,-10,-31,-7,10,3
13.370623,-6,0,-2,-7,43,-8,-45,7,3
13.391943,-1,0,0,-3,-12,-15,0,-5,3
13.391949,6,-4,-3,-2,-10,-3,7,67,3
13.393417,9,4,2,7,32,-6,-10,36,3
13.393444,-3,2,4,1,-31,-5,15,0,3
13.414474,-26,-7,-5,-3,-23,71,3,-56,3
13.414491,28,1,-1,0,7,-57,-38,49,3
13.416080,31,0,-1,-2,-4,-25,-5,-66,3
13.416087,1,-1,-1,-1,-41,-14,8,17,3
13.428512,11,5,2,3,40,-3,-22,0,3
13.428534,-12,-1,-2,-4,-7,-49,26,10,3
13.435322,-39,-4,1,-14,-60,79,12,-61,3
13.435340,9,-3,1,25,67,2,-46,6,3
13.451951,12,0,1,3,27,-36,18,-36,3
13.453597,-24,-3,0,-2,-22,1,2,35,3
13.453605,10,3,-2,2,16,13,-16,-12,3
13.453607,-29,1,1,-7,-8,5,32,-17,3
13.474492,17,3,0,1,18,4,-17,31,3
13.474521,-2,-3,2,8,30,-11,5,23,3
13.476871,30,1,-1,0,-48,13,-32,21,3
13.476877,-53,-5,0,3,42,60,36,-36,3
13.488539,25,4,-1,3,17,-40,-14,-12,3
13.488606,-23,-2,-3,-8,-32,16,-9,-21,3
13.495353,-12,-1,-1,5,4,-19,8,-15,3
13.495386,30,7,3,-4,-19,-15,-7,-30,3
13.511900,-12,-3,-2,0,-1,24,21,-7,3
13.511935,0,2,0,-5,-2,-24,8,-28,3
13.513432,-17,-8,-2,0,12,13,4,-40,3
13.513525,24,4,-2,-1,-51,11,-17,48,3
13.534271,-20,-3,0,2,5,-11,9,-6,3
13.534287,1,-1,-2,0,-2,69,0,7,3
13.535661,3,4,1,7,81,43,6,33,3
13.535722,26,-3,-5,-12,-42,-33,-3,4,3
13.548822,-47,-6,1,-2,-5,14,5,-19,3
13.548843,34,4,2,0,-19,48,16,34,3
13.555447,-24,-6,-2,-2,-10,-38,0,-81,3
13.555469,-6,-7,-6,-12,-1,-29,-50,23,3
13.571690,-5,0,0,3,16,-9,5,-19,3
13.571707,-3,1,0,-3,4,-19,-7,-34,3
13.573159,3,3,1,0,14,-39,-3,24,3
13.573165,9,3,1,-7,14,52,34,-7,3
13.594228,-18,-10,-6,-3,-10,2,9,-12,3
13.594248,12,-1,-2,-2,-40,-23,-43,-19,3
13.595880,1,-4,0,-3,-51,-72,20,68,3
13.595915,-3,2,2,5,51,93,-13,1,3
13.608407,20,-1,0,2,38,0,16,34,3
13.608418,-14,-1,-3,-4,-77,-62,-12,-40,3
13.615322,0,2,5,4,77,57,4,-31,3
13.615343,-23,0,0,1,-13,-37,10,-11,3
13.631707,17,2,4,0,-16,-4,-4,15,3
13.633404,4,-1,-2,-5,21,-8,-1,2,3
13.633409,-16,4,3,0,-24,13,19,19,3
13.633412,27,-1,-2,0,-1,-53,4,11,3
13.655449,-6,-7,-4,-13,-50,13,19,8,3
13.655456,-1,2,2,11,33,-36,2,-48,3
13.655608,25,1,-6,-8,-32,-9,4,50,3
13.655616,-6,-6,-2,4,-7,-3,-51,-10,3
13.670142,8,3,3,-1,-15,0,20,43,3
13.670146,-14,-11,-8,-8,-2,2,-39,17,3
13.675310,11,-1,-3,-2,1,0,-16,-1,3
13.675332,0,-4,0,-3,-14,-73,3,-38,3
13.692753,22,2,-1,2,33,21,-14,-56,3
13.692801,-5,1,-1,1,15,76,-1,-14,3
13.694997,-6,2,0,2,13,-34,1,-25,3
13.695001,6,4,2,5,-36,15,1,27,3
13.714641,5,-5,-8,4,102,18,5,17,3
13.715923,-6,-1,-1,-3,-46,57,81,-29,3
13.715932,11,-5,-2,-1,25,-71,-31,10,3
13.715934,2,-1,-1,-3,-29,8,27,25,3
13.728526,-15,0,0,3,12,6,-15,-1,3
13.728552,15,-1,0,-4,-3,-30,2,40,3
13.735302,-20,-7,-2,-2,19,15,-4,-18,3
13.735324,-4,3,-1,1,19,79,9,4,3
13.751601,-20,-5,-2,-6,-38,-94,-98,-98,3
13.751622,25,-1,-3,-13,13,1,63,-4,3
13.753112,-32,3,-2,17,-46,-49,-77,45,3
13.753128,-14,-7,-2,1,18,6,10,-25,3
13.774049,22,10,-2,-6,-30,-1,24,20,3
13.774066,-12,-28,-1,1,22,7,-4,10,3
13.775570,8,2,-2,-7,-13,9,0,-24,3
13.775605,-3,0,1,-1,34,-21,9,59,3
13.787818,14,12,3,-1,-78,-17,17,16,3
13.787837,5,8,1,6,55,-26,-39,54,3
13.798340,7,-3,0,0,59,6,36,-44,3
13.798347,-9,-9,-6,-5,0,8,-6,5,3
13.812197,0,0,-3,-9,-47,-39,-3,28,3
13.812206,-4,-5,0,9,29,87,-11,-63,3
13.813070,-16,-9,-1,-9,-34,17,8,14,3
13.813086,8,-1,-1,0,-7,-31,-10,-13,3
13.834260,-5,-2,2,4,9,-14,3,-7,3
13.834282,-23,8,3,1,-17,-14,-15,-16,3
13.836152,-4,-3,-2,-1,-5,16,5,-73,3
13.836167,-13,-5,-3,-3,39,49,12,-73,3
13.847820,5,-1,0,5,68,113,3,12,3
13.847840,-5,5,1,-2,5,30,-18,10,3
13.856800,1,0,-1,-4,-19,27,23,5,3
13.856805,-3,-2,-1,2,-18,-13,9,35,3
13.873774,6,-6,-5,-3,-16,-9,-3,2,3
13.873781,5,2,-3,-3,4,-2,16,35,3
13.873783,12,-2,0,2,-43,-16,-10,-43,3
13.873785,-6,-4,-5,-20,-52,-97,-48,31,3
13.894552,-3,-2,-3,0,48,-36,32,7,3
13.894580,-16,1,0,5,-65,-49,10,-4,3
13.897049,-4,-2,0,2,84,37,-25,-27,3
13.897059,2,-1,1,0,4,22,11,-17,3
13.907962,7,-4,-2,-6,-29,18,-5,-3,3
13.907986,-15,2,1,-1,7,-10,-16,-4,3
13.918222,2,4,1,-8,-30,-5,9,-1,3
13.918227,-1,3,1,6,11,10,13,-2,3
13.931853,5,-1,0,1,21,-3,-2,7,3
13.931874,-2,-1,1,3,4,12,4,12,3
13.934417,-13,0,1,1,1,-28,-7,28,3
13.934423,16,1,-1,6,1,90,17,27,3
13.954796,7,-2,-1,-2,-11,28,-21,0,3
13.954821,6,3,0,6,15,17,-6,-10,3
13.956485,6,3,-1,-6,2,32,22,25,3
13.956491,14,2,2,3,-35,-72,-25,7,3
13.967774,6,4,5,-2,-73,-10,8,21,3
13.967822,9,-5,-1,5,38,39,-7,-92,3
13.978567,-14,-4,-5,-2,5,15,1,-15,3
13.978576,-8,-3,1,1,-10,-11,8,0,3
13.991586,43,8,2,-1,-8,31,-27,17,3
13.991608,-83,-8,-1,-2,12,-27,-18,-13,3
13.993392,-9,-5,-2,5,-3,-8,5,14,3
13.993426,7,-3,-4,-6,-5,8,0,3,3
14.014613,-24,-4,0,4,17,-12,-14,-89,3
14.014639,25,3,0,-3,9,6,18,46,3
14.015996,-4,4,2,1,-8,-19,-13,9,3
14.016018,-35,-4,-4,-3,16,-32,-6,-44,3
14.028580,5,-2,-1,-4,6,81,72,31,3
14.028586,7,-2,-2,5,70,-30,34,-17,3
14.038726,8,6,2,2,-19,5,8,10,3
14.038789,12,1,-1,-3,-6,-8,-8,9,3
14.051712,-10,0,-2,-5,-5,-8,7,26,3
14.051730,5,1,2,-6,-45,-32,-4,2,3
14.053876,1,-5,-2,2,32,73,-1,57,3
14.053884,1,4,2,1,36,20,7,-7,3
14.074059,-17,-3,-1,3,1,-18,-6,-10,3
14.074104,16,-3,-3,-2,-12,-7,-4,25,3
14.075545,-1,-2,-1,-3,-21,-28,9,-11,3
14.075553,9,-1,-2,-4,-49,2,-11,7,3
14.089239,-15,-4,-3,5,15,-11,2,1,3
14.089244,-11,-1,-2,-5,-33,-16,-20,-28,3
14.098410,12,2,1,-5,-31,53,-15,30,3
14.098432,-20,-3,-3,4,64,42,3,-63,3
14.111646,-41,-15,-9,-8,-27,-60,-38,-7,3
14.111672,42,6,3,6,61,33,17,45,3
14.113572,-14,-3,-1,2,-15,7,-21,7,3
14.113596,-4,-3,-2,-3,-17,11,28,14,3
14.134341,5,0,0,1,13,44,23,33,3
14.134345,-1,2,-2,-6,-21,22,-14,-10,3
14.135603,2,-5,-1,-2,-58,-45,-33,-27,3
14.135618,-6,2,3,8,-52,-4,20,127,3
14.150219,29,0,0,-1,32,6,-14,-3,3
14.150225,-6,5,-2,-5,-19,-5,7,32,3
14.157259,5,-4,0,1,9,-23,4,24,3
14.157263,5,8,-2,-3,-22,-8,5,-18,3
14.171692,-14,-2,-2,1,-17,-9,-22,-11,3
14.171709,-3,-13,-5,-12,-79,-52,16,0,3
14.173309,-3,1,-2,3,34,-36,7,8,3
14.173314,3,-4,-3,-7,14,55,-17,-24,3
14.194271,-7,9,2,-7,25,-32,49,-20,3
14.194291,7,3,1,8,-91,48,-40,-21,3
14.195642,12,-2,-5,-14,3,20,14,-7,3
14.195658,-2,-1,-2,-4,9,-87,-6,-18,3
14.216700,2,2,2,8,-16,5,10,24,3
14.216722,-5,-4,-4,-8,-6,62,76,-29,3
14.218280,2,-4,-1,-2,-4,2,-5,-17,3
14.218284,5,0,0,1,-4,0,13,26,3
14.231691,-1,-12,-7,-16,-69,27,-37,24,3
14.231711,-32,-3,-1,2,84,-5,18,-13,3
14.233271,10,2,-3,0,1,-6,43,-52,3
14.233286,13,0,-1,-1,19,-10,-4,35,3
14.254331,-8,-4,-1,0,-14,-36,7,-5,3
14.254347,9,5,0,0,-1,-4,-26,30,3
14.255609,-8,2,1,3,24,-13,2,-28,3
14.255617,-2,-2,1,-2,-79,-97,-28,-19,3
14.276807,-1,-9,-6,6,102,109,31,-15,3
14.276827,14,0,0,-3,-6,-75,7,17,3
14.278186,-22,2,-1,-2,37,13,-10,-25,3
14.278205,4,-5,-1,-1,-2,17,0,-42,3
14.292011,-9,0,1,5,-13,-22,-16,-32,3
14.292029,6,-3,-2,-7,-1,-23,-19,3,3
14.293310,-13,1,1,5,66,-32,-32,-10,3
14.293332,6,0,-1,-5,10,18,17,-5,3
14.314405,-1,3,0,-7,6,-21,-18,-15,3
14.314426,13,2,1,4,-12,10,-40,37,3
14.316033,-9,-4,-1,-1,-6,11,11,37,3
14.316038,-4,-7,-4,2,17,-2,2,-13,3
14.336877,-2,2,0,-4,-15,-32,-10,-1,3
14.336889,-6,-2,-1,-5,54,63,31,-58,3
14.338262,5,-7,-4,-4,-89,-41,-5,10,3
14.338283,5,6,4,0,20,18,26,96,3
14.351588,18,3,1,8,3,27,27,-74,3
14.351627,-8,-1,-1,-1,-10,77,-34,58,3
14.353079,10,2,-5,-5,-30,-55,-6,5,3
14.353093,5,-3,0,-5,-10,56,-4,0,3
14.374104,1,2,-1,2,-17,-13,-6,5,3
14.374170,3,1,-1,7,-11,-15,-4,5,3
14.375590,9,0,-1,-9,8,22,2,-6,3
14.375626,0,4,1,1,-2,34,-10,-14,3
14.396895,-7,0,4,5,-39,-37,-5,25,3
14.396914,-19,-11,-7,-2,21,-19,-13,-36,3
14.398231,1,-4,-3,0,-26,83,3,61,3
14.398250,5,-6,-1,-2,15,-39,17,-59,3
14.413520,-11,-4,-3,-3,-14,-15,28,-9,3
14.413541,16,8,2,1,17,-37,8,58,3
14.418347,-24,0,3,3,-19,8,-12,-71,3
14.418364,-4,-2,-5,-6,-2,9,-19,29,3
14.434231,9,-3,1,2,20,14,-5,17,3
14.434249,1,1,2,-1,-22,1,-14,7,3
14.435639,-5,2,1,0,-35,-95,64,13,3
14.435651,4,6,1,2,55,63,-45,-16,3
14.456947,-4,0,-1,4,3,-30,-20,-23,3
14.456971,-5,-3,-2,-1,-46,9,5,-18,3
14.459495,9,-6,0,2,8,3,0,-3,3
14.459509,-7,0,1,-12,-43,-37,6,26,3
14.470915,7,-1,1,30,29,11,19,29,3
14.470931,-13,-7,-4,-10,-4,20,-23,-68,3
14.477841,0,4,-1,5,11,-27,-8,-27,3
14.477864,18,2,-1,-3,-26,-60,-23,24,3
14.494124,-27,-10,-4,-9,12,-52,-84,14,3
14.494146,-3,0,0,-1,1,9,23,-2,3
14.495844,0,2,0,-2,-51,32,-16,-16,3
14.495876,-11,-6,-3,4,27,3,2,-20,3
14.516722,4,4,1,-10,-9,-4,-1,4,3
14.516740,-12,0,1,5,-39,-25,18,-22,3
14.518363,15,3,-1,-5,39,32,-13,-2,3
14.518368,-5,-3,-2,5,-9,-17,-10,-31,3
14.531121,-6,-1,-2,-9,-5,13,1,-1,3
14.531142,11,4,0,-1,2,4,3,68,3
14.537961,6,-6,-3,2,8,-22,8,-36,3
14.538024,-19,0,0,-1,38,-2,-3,-18,3
14.554048,21,3,1,1,-2,-3,16,-54,3
14.554058,-8,-1,-2,-3,-48,8,-9,100,3
14.555743,18,-1,0,5,66,-4,66,1,3
14.555759,-9,1,1,0,20,53,-47,-26,3
14.576764,-5,-4,-3,-4,-48,-9,31,2,3
14.576792,10,3,0,2,-23,-7,-10,21,3
14.578267,4,-4,3,-2,-8,12,-21,20,3
14.578280,3,-8,-6,-1,-21,16,27,-57,3
14.591239,-3,2,1,-6,-22,-1,-4,13,3
14.591261,6,-1,-2,-3,33,78,-10,-33,3
14.598744,-16,-3,-3,0,-10,31,-11,38,3
14.598751,4,-2,-2,-2,2,-26,9,-9,3
14.614816,-9,2,0,-2,-7,-58,-9,13,3
14.614825,-6,1,0,-1,31,-56,27,0,3
14.615701,15,0,0,2,-4,84,-11,20,3
14.615717,-2,3,4,5,-1,36,17,69,3
14.636814,13,6,0,-4,43,55,5,-23,3
14.636838,-13,-6,-3,2,-31,-37,-33,-16,3
14.638146,-15,1,-1,-6,11,4,-22,32,3
14.638156,10,-4,-4,-7,-80,-82,22,13,3
14.650991,-1,0,0,0,41,68,10,9,3
14.652501,6,2,3,-1,22,-11,41,-2,3
14.658267,6,4,-1,-4,-3,-15,-27,52,3
14.658296,-31,-7,-2,7,-28,-14,-1,-115,3
14.674544,-2,-3,-3,-6,-11,-55,2,1,3
14.674578,6,-4,-3,-1,22,40,-13,-18,3
14.677010,-5,0,-3,-2,-10,-21,16,8,3
14.677022,-21,2,2,1,29,24,13,33,3
14.697070,31,0,-5,-1,3,13,-10,16,3
14.697104,-16,3,2,0,-2,-12,2,-23,3
14.698907,1,-6,-6,-4,21,21,-3,-86,3
14.698912,-19,0,0,2,-40,8,-4,6,3
14.711013,-1,-1,-2,-2,43,36,1,5,3
14.711055,6,-2,-2,-1,-7,62,4,-15,3
14.719783,5,-10,-2,-13,-2,36,-26,4,3
14.719792,-3,8,4,27,49,30,15,27,3
14.734231,8,-4,-2,-5,-80,-19,18,41,3
14.734247,5,-1,0,10,85,22,59,-3,3
14.735680,-4,-1,-2,3,3,27,1,-16,3
14.735721,2,-5,-4,-10,4,-2,-14,-12,3
14.756834,-6,0,1,0,-4,5,-8,4,3
14.756852,-9,-4,-4,-3,0,-51,-3,-50,3
14.758124,-2,1,2,5,-12,-16,-34,3,3
14.758140,13,1,0,-6,-1,-7,11,13,3
14.770565,-12,4,0,2,-3,4,-15,-14,3
14.770571,15,-9,-3,-8,-12,-19,-13,10,3
14.780812,-46,0,-2,0,-75,-52,33,40,3
14.780822,17,2,-2,0,39,15,-10,-48,3
14.794152,-13,-2,0,1,-15,-8,12,-19,3
14.794173,9,1,-1,-2,9,-5,-11,1,3
14.795764,21,1,-1,0,-24,-21,21,14,3
14.795782,1,2,1,-5,5,-15,4,17,3
14.816604,-3,-4,-5,-5,-26,-72,-6,-14,3
14.816612,6,1,-1,-3,-13,46,5,-15,3
14.818098,-8,-2,-4,-2,14,-14,20,-49,3
14.818113,-2,-7,-3,-7,-14,-20,-16,-17,3
14.833182,-28,0,2,4,28,41,-44,-22,3
14.833190,29,3,1,0,16,-36,-11,28,3
14.841461,-5,3,3,6,15,2,-1,2,3
14.841467,5,-3,-6,-22,-11,16,10,24,3
14.854287,-21,-5,-2,14,8,2,-9,-55,3
14.854304,-14,1,0,1,14,-26,-14,1,3
14.855829,2,3,3,3,8,11,-14,23,3
14.855833,-2,-5,-2,-5,5,-75,-28,39,3
14.876508,15,2,0,-7,-27,67,15,-11,3
14.878172,-22,-1,-2,-3,7,-8,-6,-22,3
14.878177,11,-1,-1,1,22,-21,-14,-4,3
14.878179,-1,-2,-4,-3,-53,78,49,-28,3
14.898627,5,2,1,-5,32,44,16,35,3
14.898644,-5,-2,-2,-4,-33,-6,4,-18,3
14.899221,-43,-7,-6,-7,44,-18,-4,25,3
14.899238,36,1,1,4,3,-71,-44,10,3
14.922261,8,-2,-3,-4,-2,-15,-4,22,3
14.922290,-17,-1,-1,-2,-7,18,-8,-24,3
14.924322,16,3,3,-1,-19,-1,19,56,3
14.924326,-37,-10,-2,4,7,-3,-4,-47,3
14.936034,2,1,-1,-4,16,-4,24,29,3
14.936056,-3,-3,-3,-3,-52,-46,-23,7,3
14.937789,6,0,-1,-3,3,-6,-23,-51,3
14.937793,18,1,0,3,2,10,-2,34,3
14.958312,7,-2,0,-1,4,11,-17,9,3
14.958322,-13,0,-1,-3,-13,1,3,-1,3
14.959126,6,0,0,4,-6,87,35,-16,3
14.959323,-6,4,1,-3,-5,2,-2,5,3
14.973343,-19,0,0,-12,27,-27,2,49,3
14.973356,0,-7,-4,29,86,27,-66,-42,3
14.974160,-12,-3,-3,0,-1,6,12,1,3
14.974235,24,3,0,-1,8,-11,7,46,3
14.996356,-2,-4,-1,6,-3,2,-28,7,3
14.996397,-10,-2,-2,-12,-89,-30,13,9,3
14.999184,10,3,1,1,35,-20,-24,-54,3
14.999192,6,2,0,2,10,20,2,-6,3
15.019367,-10,-6,-1,-1,-27,-15,8,13,3
15.019378,11,-3,0,-3,-2,-36,-23,9,3
15.019380,-13,-2,-4,-1,-32,40,3,-66,3
15.019382,14,2,-4,-11,-95,67,88,23,3
17.044166,9,11,1,-1,-1,-1,-2,-1,0
17.044487,7,7,-1,0,-1,-2,-4,-3,0
17.045008,-20,-3,-1,0,-1,-1,0,2,0
17.045087,8,-11,-3,-1,-1,-1,-1,-1,0
17.058901,-17,2,0,-1,0,-2,0,-3,0
17.058920,3,-9,-1,-2,-1,-2,-1,-2,0
17.059460,-7,4,-1,-3,-3,-2,-5,-8,0
17.059571,4,12,2,-1,1,0,0,1,0
17.081775,10,-12,-1,-1,-1,-2,-2,-3,0
17.081793,-18,-12,-4,-1,1,0,0,1,0
17.083738,52,7,-1,-1,1,-2,-2,-1,0
17.083743,-61,-9,-3,-1,-1,0,-1,-1,0
17.104060,-3,8,-1,-2,-1,-2,1,0,0
17.104074,17,-10,-4,-2,-4,-1,-4,-6,0
17.104972,7,10,3,3,2,1,2,5,0
17.104989,23,3,0,0,-2,-2,0,-1,0
17.120036,-23,-12,-2,-1,-1,0,0,1,0
17.120041,-28,-14,-2,-2,-1,0,-2,-3,0
17.120042,-18,-1,0,-1,0,0,0,-1,0
17.120044,14,7,1,0,0,-1,-2,-2,0
17.141882,4,13,0,0,-2,-2,-2,0,0
17.141904,33,5,1,0,1,0,0,0,0
17.144672,31,7,-3,-2,0,-1,-1,2,0
17.144683,-12,-7,-4,-1,-2,-2,0,-1,0
17.165586,-8,-11,-2,1,1,-3,-2,-2,0
17.165592,-10,-25,-4,0,-1,-2,-1,-3,0
17.165595,8,7,2,0,-1,-3,1,-3,0
17.165597,15,1,-4,-2,-1,0,-1,2,0
17.178523,-5,7,1,-1,-1,1,-1,0,0
17.178542,4,4,1,0,-1,0,-1,-2,0
17.179763,-25,2,1,1,-2,0,-1,-4,0
17.179778,7,-22,-5,-1,0,-2,0,0,0
17.201628,-18,0,-1,-3,-1,-1,-3,-6,0
17.201650,9,5,3,1,0,-1,-2,1,0
17.202420,-20,-3,-2,-1,1,1,1,4,0
17.204437,-7,2,3,-1,-1,-2,-2,0,0
17.224779,5,2,-2,-3,-1,-1,0,1,0
17.224802,31,2,-2,-2,-3,-2,0,0,0
17.224806,-16,-4,-1,0,-2,-1,-1,1,0
17.224810,1,0,0,-1,0,-1,0,1,0
17.238257,-5,15,3,-2,0,-1,-3,1,0
17.238276,25,-23,-3,-2,-1,-1,0,2,0
17.246406,-38,-5,-2,-2,-2,0,-3,-2,0
17.246439,-14,-2,0,-2,0,-1,-1,-4,0
17.261638,13,0,-2,0,-1,0,-2,-2,0
17.261658,13,13,0,-3,-1,-4,-2,1,0
17.262373,1,0,1,0,0,1,1,0,0
17.262385,8,-3,-2,-2,-1,-2,0,0,0
17.284545,8,1,0,0,0,0,1,-2,0
17.284567,-50,2,-1,-1,1,-1,0,2,0
17.286794,66,8,-6,-5,-4,-3,-5,-8,0
17.286801,-43,-23,4,0,0,-2,-2,-2,0
17.298529,4,-1,-3,-2,-1,-3,0,0,0
17.298548,-3,-2,-1,1,1,0,-1,-1,0
17.300396,-13,10,0,-1,-1,-1,-1,0,0
17.300402,16,7,-1,-2,-1,0,-1,1,0
17.323002,0,-10,-4,-2,-3,0,-1,-1,0
17.323008,-9,8,2,1,0,0,-1,-3,0
17.323010,3,12,3,0,2,0,2,2,0
17.323012,2,-19,-4,-2,-2,-5,-3,-4,0
17.344146,-6,-21,-2,-2,0,0,-1,0,0
17.346104,4,7,-1,-2,-2,-1,-1,-3,0
17.346112,16,-7,0,0,0,-1,-2,1,0
17.346114,-13,15,1,-1,-1,0,0,-1,0
17.359146,-6,6,-1,0,-1,-2,-1,0,0
17.359173,-2,-9,-4,-2,-2,0,-3,0,0
17.359180,-1,-4,-2,1,1,0,-1,-1,0
17.361309,22,5,-1,-1,-2,0,-1,0,0
17.381650,-14,-7,-1,0,-2,-1,-1,-2,0
17.381669,32,4,-1,2,-1,-1,-3,-1,0
17.384079,-31,-5,-1,-2,0,-2,0,2,0
17.384085,2,16,-2,-1,-2,0,-2,-4,0
17.404752,-25,-26,-1,-1,0,1,-1,-3,0
17.404782,3,3,-2,-1,-1,-2,-1,0,0
17.406456,-6,-3,1,1,-1,-1,0,-1,0
17.406461,5,4,1,-2,-2,-2,-2,0,0
17.418435,8,13,-1,0,-1,0,1,2,0
17.418456,-17,-1,-2,-3,-3,-2,-3,-11,0
17.419087,-42,-14,-2,-1,-2,-2,-2,-1,0
17.419099,-24,-5,-2,-1,1,1,0,0,0
17.441729,11,7,0,0,0,-1,0,0,0
17.441751,-13,-3,0,-3,-2,0,1,1,0
17.443570,11,4,0,-2,-2,-3,1,-1,0
17.443581,11,-5,-3,0,-2,-1,-3,-2,0
17.464466,-5,5,1,0,0,0,0,2,0
17.464484,5,-9,-3,1,-2,-2,-1,1,0
17.464830,7,0,0,0,-2,0,-1,-2,0
17.464845,3,-1,-2,-1,-1,-1,0,1,0
17.478806,-4,-11,-2,-1,-1,-2,-1,-1,0
17.478813,-2,1,-1,-2,-2,0,-1,-1,0
17.479240,18,1,0,-1,-1,0,-3,0,0
17.479304,1,7,0,0,0,0,1,2,0
17.501747,52,9,-1,-1,0,-2,-2,-1,0
17.501765,-61,-8,-3,-2,-1,-3,-2,-5,0
17.503259,5,-9,-2,-1,-1,-1,0,1,0
17.503280,20,16,1,-1,0,-1,0,0,0
17.526334,14,-15,-4,-3,-1,-3,0,1,0
17.526347,13,2,2,2,1,1,-1,-1,0
17.526349,-5,-2,-2,0,-1,-1,0,-1,0
17.526351,-4,-3,-2,-3,-2,-2,-3,-1,0
17.538603,-11,10,1,2,0,-3,-3,-3,0
17.538628,-6,0,0,-2,0,-1,0,0,0
17.541129,-3,-1,-2,-1,-2,-2,-2,-1,0
17.541227,15,-1,-2,0,0,-1,-2,-3,0
17.561739,-23,-5,-3,0,-2,-1,0,0,0
17.561767,14,-2,0,-1,0,0,0,1,0
17.562455,9,9,0,-1,1,-1,0,-2,0
17.562487,14,0,1,-1,-1,0,0,0,0
17.584121,9,1,0,-1,-1,0,-2,-4,0
17.584141,-41,-13,-3,-2,1,0,0,0,0
17.585155,-4,-1,-2,-3,-1,-1,-2,-4,0
17.585161,-10,2,-1,1,0,-1,-1,-1,0
17.598546,-6,0,1,0,-1,1,-1,-5,0
17.598565,32,10,-1,-2,-1,-2,-1,1,0
17.599688,-8,-2,-2,1,-2,-2,-1,-1,0
17.599694,-2,-4,-1,-2,-1,-1,1,-1,0
17.622090,1,9,0,-2,-1,-2,-1,-1,0
17.622115,13,-1,-2,1,1,0,1,2,0
17.622859,-18,-7,-2,-1,-2,-2,1,-3,0
17.622884,4,-6,-2,-1,-1,0,-1,1,0
17.644314,-7,0,-3,-1,-3,0,-1,0,0
17.644335,0,0,1,-2,1,-1,-1,0,0
17.645535,1,8,1,0,1,-1,1,2,0
17.645541,27,-12,-2,0,-1,0,0,-1,0
17.657784,-85,-10,-1,-1,1,0,-1,0,0
17.657807,31,2,-2,-2,-3,-2,-3,-3,0
17.666036,-13,-5,0,-1,0,0,-1,-2,0
17.666066,-6,-1,1,0,-2,-2,-1,-1,0
17.681576,16,8,-1,1,0,-1,1,-2,0
17.681589,6,-1,-1,1,-1,-1,0,-1,0
17.682451,-1,-1,-1,-1,-1,0,-1,1,0
17.682471,-3,1,-1,0,-1,-1,0,0,0
17.704298,21,2,-1,-1,-1,-1,-3,-1,0
17.704320,-24,1,-2,-1,-1,0,-3,-1,0
17.705474,15,5,-2,-1,-1,-1,-2,-2,0
17.705479,-21,-9,-3,0,0,-1,-2,-1,0
17.717719,16,-6,-2,0,1,-3,1,1,0
17.717742,22,3,1,0,1,-2,-1,-1,0
17.728198,-40,-12,0,-2,-1,0,-2,0,0
17.728207,11,7,-2,-2,-1,-1,-2,2,0
17.744233,3,-2,0,0,-2,-1,0,-3,0
17.744242,0,-3,0,-3,0,0,-1,1,0
17.744246,8,1,-1,-2,0,-1,1,-1,0
17.744250,-14,-3,-2,-1,-1,0,-2,-1,0
17.764441,7,0,0,-1,-2,1,-1,0,0
17.764459,-10,-2,-2,1,-1,-2,-1,0,0
17.766381,8,2,-1,-1,0,0,0,1,0
17.766387,16,4,1,-2,-2,-1,-1,-2,0
17.777770,53,16,2,-1,1,1,0,-2,0
17.777789,-36,-39,-6,-2,-4,-2,-3,-9,0
17.786208,8,0,-3,-2,-1,-1,-1,5,0
17.786282,-5,-7,-1,-3,-2,-1,-1,-7,0
17.801800,10,11,2,0,1,-1,0,2,0
17.801823,10,15,2,-1,0,-1,1,2,0
17.803548,-3,-6,-2,-1,0,-1,-3,-2,0
17.803552,-5,0,0,0,0,0,-1,1,0
17.824292,-15,-2,0,-2,-2,-1,-2,-1,0
17.824314,-2,2,-2,-2,0,-1,-3,-1,0
17.825590,-2,-4,0,-1,0,-1,-3,0,0
17.827757,8,2,-3,-1,-1,-2,-1,0,0
17.837866,-38,-8,-4,-3,-1,0,0,-5,0
17.837910,10,1,-1,-1,-1,-2,-3,2,0
17.848935,12,-1,1,0,-1,-1,-1,-1,0
17.848946,-5,-3,1,-1,-2,-1,0,1,0
17.861660,-10,-5,2,0,-1,-1,-1,-1,0
17.861680,-5,1,2,-1,-2,0,-1,-7,0
17.863498,3,3,1,-1,-1,0,0,0,0
17.863523,-16,-5,0,-1,-1,-2,0,-3,0
17.884160,27,10,-1,-1,-2,-3,-3,-3,0
17.884185,-25,-3,-1,-2,-2,1,1,2,0
17.885603,2,-11,-3,-2,-1,0,-1,1,0
17.885625,-43,-5,-2,-1,1,0,-1,-6,0
17.898832,4,-2,-1,-2,-1,-2,1,1,0
17.898840,14,12,1,0,-1,0,1,0,0
17.906735,2,2,-1,0,-3,-1,0,-3,0
17.906740,7,-3,0,1,0,-1,0,2,0
17.921516,-7,0,-1,-1,-1,0,-2,0,0
17.921533,6,2,-1,0,0,-3,-2,1,0
17.923009,-7,6,-1,-2,-1,0,1,-1,0
17.923018,2,-15,-2,-2,-2,-1,-1,0,0
17.945426,-6,-4,-2,-2,0,1,-1,-3,0
17.945432,-1,-3,0,-1,0,-2,0,-1,0
17.945746,2,-6,-2,0,-1,-1,-1,-1,0
17.945753,1,8,-1,0,-1,-2,-2,0,0
17.974570,-3,-1,-1,1,-1,-1,0,1,0
17.974592,1,-5,-2,-1,1,0,-1,-1,0
17.976803,3,8,0,-2,0,-2,-2,-1,0
17.976817,-1,-3,0,-1,-1,-1,-3,-2,0
17.981719,-5,-5,-2,0,0,-2,0,3,0
17.981740,11,13,-3,0,0,0,-3,-2,0
17.983557,-2,-6,0,0,0,-1,-1,-1,0
17.983562,-3,-17,-2,-2,-2,-3,-3,-8,0
18.004110,-6,-1,0,-3,-2,-2,0,-2,0
18.004127,2,-1,-1,0,-2,0,0,2,0
18.005818,0,6,0,-1,-2,0,0,0,0
18.005823,0,6,-1,3,1,1,1,4,0
18.026718,15,-3,-1,-1,-2,-1,-3,-1,0
18.026815,46,4,-1,-1,-1,-1,-2,4,0
18.028259,-87,-11,-1,0,-1,-1,-1,-7,0
18.028355,25,0,-1,-4,0,-1,-1,-1,0
18.041536,-17,-5,-2,-2,-3,-1,-1,-1,0
18.041552,13,0,-1,-2,-1,-1,-1,0,0
18.043367,28,-2,-3,-2,0,-1,-3,0,0
18.043448,-9,3,-1,-2,-2,-1,1,0,0
18.064436,7,14,0,0,-1,-1,-1,-2,0
18.064460,-36,-18,-1,0,1,0,0,0,0
18.066114,-5,-7,0,-1,0,-2,0,-1,0
18.066119,0,1,-4,-2,-3,-2,-3,-5,0
18.087635,19,-2,-2,-1,2,-2,-2,0,0
18.087640,-39,10,0,0,-2,0,-1,-4,0
18.088109,5,1,0,-2,-1,0,-1,0,0
18.088117,12,1,-2,-3,-1,0,0,0,0
18.103245,1,-2,1,0,-3,-3,-2,0,0
18.103249,1,-6,-1,-2,-2,0,0,-2,0
18.103251,11,0,-2,0,-3,-1,-1,-1,0
18.103253,-4,2,-2,0,-1,1,1,-1,0
18.124571,-1,-3,0,-1,-1,-1,-1,1,0
18.126600,-7,-3,-1,-3,-1,0,-2,-1,0
18.126606,11,-1,0,-2,-1,-2,0,0,0
18.126608,1,4,-1,0,1,-1,-1,-1,0
18.147004,-15,-4,-1,-1,0,-1,-2,0,0
18.147039,6,-2,-3,-2,-2,-2,-2,-2,0
18.148345,19,14,2,1,-1,1,1,1,0
18.148362,-26,-14,-1,-1,-1,-2,-2,-3,0
18.161158,8,-4,-5,-3,-1,0,-4,-3,0
18.161182,-20,-10,-2,1,-2,-2,-2,-4,0
18.167793,13,1,-4,-2,1,0,0,-2,0
18.167809,-7,16,1,0,0,0,0,1,0
18.184090,0,-19,-2,0,-1,0,1,3,0
18.184107,11,3,1,1,-1,0,-1,-3,0
18.185798,3,-1,-1,-1,0,-2,-1,0,0
18.185825,0,3,-1,-2,-2,1,0,-1,0
18.206579,-5,2,-1,-1,-1,-1,0,-2,0
18.206601,4,1,-1,-3,1,-1,1,0,0
18.208015,-4,-5,1,0,-1,0,0,0,0
18.208022,24,2,1,-1,0,0,-2,4,0
18.220962,-42,2,-3,-1,-1,-1,-3,-7,0
18.220986,33,-2,2,-1,0,0,0,4,0
18.228160,-88,-16,-5,-1,-2,-2,-3,-9,0
18.228168,16,-2,-1,-1,0,-1,1,1,0
18.244683,2,-1,1,-1,-2,-1,0,-1,0
18.244688,-8,4,0,-1,0,-2,0,-1,0
18.252645,28,1,0,-2,-1,-2,-1,1,0
18.252651,-7,8,-1,0,-1,-2,-2,-2,0
18.266620,-9,-20,-2,-2,-3,-2,-1,0,0
18.266672,6,3,0,-1,0,0,0,4,0
18.268424,28,4,4,1,-1,0,-1,-1,0
18.268431,-22,-12,-5,-4,-3,-3,-5,-6,0
18.281078,6,10,0,0,0,1,1,0,0
18.281096,3,-3,-2,0,0,-2,0,2,0
18.288111,-5,-1,-2,-2,0,-1,-2,1,0
18.288138,-4,1,2,-1,-1,0,2,1,0
18.306674,-1,3,0,-1,0,-1,-1,-1,0
18.306680,-5,-3,-2,-1,-2,0,-2,-2,0
18.306683,2,2,-1,0,-1,-1,0,0,0
18.306685,8,-4,0,0,-1,0,-1,-2,0
18.326757,-1,-2,-1,-1,-1,0,0,-1,0
18.328444,5,15,1,-1,-2,0,-2,-2,0
18.328450,13,-20,-1,-1,-1,-1,-3,-1,0
18.328452,-6,-2,-1,-1,-1,-1,-1,-1,0
18.341405,0,0,-1,0,-2,-2,2,1,0
18.341439,1,0,-3,-3,-1,-1,-3,-4,0
18.347941,11,5,0,0,0,-1,1,3,0
18.347958,-2,-2,-1,-3,-1,-1,-2,-2,0
18.364641,-10,2,-1,-1,-1,-1,-1,-1,0
18.364660,-1,-2,-1,0,0,-1,-1,-3,0
18.366862,1,1,0,1,-1,0,2,6,0
18.366868,1,-1,-1,-3,-1,-4,-4,-10,0
18.386721,2,13,0,-2,-2,-1,-1,-1,0
18.386763,-22,-27,-3,-1,0,-1,0,0,0
18.388193,31,7,0,-3,-1,0,1,4,0
18.388208,-10,-4,-2,-1,-1,-2,-2,-3,0
18.400951,-11,1,-1,0,-1,0,-2,-1,0
18.400967,15,3,-1,-1,-2,-3,-2,-5,0
18.408003,-81,-9,-2,-1,0,-2,0,-2,0
18.408024,-5,-2,0,-1,-1,1,1,4,0
18.424341,8,-2,0,-3,-1,-3,-2,-2,0
18.424366,-9,1,-1,-1,-1,0,1,1,0
18.427241,13,1,-2,-1,-2,-2,-3,-4,0
18.427247,11,3,3,-1,0,0,0,0,0
18.446894,-9,-5,1,-1,0,-1,-1,-2,0
18.446910,-1,1,0,-1,0,-1,1,-2,0
18.448252,32,13,-2,-3,-1,0,-2,-2,0
18.448271,-7,-28,-3,0,0,0,1,0,0
18.462127,-1,5,0,0,0,1,-1,0,0
18.462133,-1,-5,1,1,0,0,-1,1,0
18.470529,5,-2,-3,-2,-5,-2,-4,-4,0
18.470538,11,7,-1,-1,-1,-2,0,1,0
18.484243,2,-3,0,-1,-1,-1,0,-1,0
18.484258,-3,2,0,0,-2,-3,-2,-1,0
18.485598,1,-2,0,-1,-1,1,0,-1,0
18.485606,-4,0,0,0,1,0,0,2,0
18.507168,20,2,0,0,-1,-1,0,2,0
18.507208,-16,10,0,-1,0,-1,0,0,0
18.510035,-14,-26,-5,-3,0,-2,-1,1,0
18.510048,-6,2,-2,-1,-2,-1,-2,-6,0
18.520708,0,-6,-3,1,-2,0,-1,-2,0
18.520747,10,6,-1,-2,-1,0,-1,-2,0
18.530049,3,6,-1,0,0,-2,-1,0,0
18.530057,-2,1,1,-1,0,-2,-1,2,0
18.544825,1,0,-2,0,0,-1,-2,0,0
18.544849,-2,-3,-2,0,-2,-1,-1,1,0
18.546437,18,10,1,-1,0,0,0,-1,0
18.546575,-18,-20,-2,-1,-1,0,0,1,0
18.566603,-5,-3,-1,-3,0,-1,-1,0,0
18.566625,10,-1,-1,-2,0,-2,-3,-2,0
18.568110,-4,2,-1,-3,-1,-1,0,-3,0
18.568123,14,12,1,1,-1,-1,1,2,0
18.580543,0,-1,-3,2,-1,-2,-2,1,0
18.580562,0,-6,1,0,-2,-1,0,1,0
18.589558,-28,-2,-1,1,0,-3,0,-4,0
18.589562,3,1,-1,-1,-2,0,-1,2,0
18.604080,-8,-4,-1,-2,0,-2,-1,-7,0
18.604096,7,-1,-3,-1,-1,-1,-3,-5,0
18.605601,3,-1,0,-2,-1,-1,0,0,0
18.605618,-4,0,-1,-2,-3,-2,-2,-1,0
18.627035,1,1,0,-1,1,-1,0,2,0
18.627069,-5,-3,-1,-2,0,1,2,2,0
18.628854,6,16,-1,0,-1,-1,-1,0,0
18.628859,-3,-21,-3,-1,0,-1,-1,-1,0
18.640443,3,0,1,0,-1,-1,-1,-2,0
18.640466,-12,-4,-1,-1,-1,0,1,0,0
18.649677,6,-1,0,0,-3,-2,1,-2,0
18.649681,-2,14,0,-3,-1,-1,-2,0,0
18.664455,59,9,-1,-1,1,-1,1,3,0
18.664474,-91,-14,-1,-1,-2,0,-4,-5,0
18.665797,25,-3,-2,-1,-1,-1,-1,0,0
18.665815,11,1,-1,1,0,-1,-1,0,0
18.686649,-14,-6,-2,-1,-1,-1,-2,-6,0
18.686666,29,18,-1,0,-1,0,-1,1,0
18.688159,-7,-19,-2,-1,0,-1,-2,-2,0
18.688170,-9,-2,-2,-2,-3,-1,-1,-4,0
18.700316,-23,-1,0,-2,-1,-1,0,2,0
18.700340,19,2,-1,-2,-2,-4,-1,0,0
18.709171,-3,4,-1,0,1,-1,0,-1,0
18.709280,11,4,-2,0,-1,0,1,0,0
18.724825,6,-2,0,1,-1,0,-1,-5,0
18.724829,-5,-2,-2,-2,-3,-3,-1,-2,0
18.725540,-6,3,0,2,-1,-2,-1,0,0
18.725547,2,-2,-2,-2,1,-3,0,-5,0
18.747089,-13,-24,-3,-3,-1,1,0,1,0
18.747135,-6,-5,-2,-1,1,-1,-2,-2,0
18.748219,18,-3,0,-3,-1,-2,-3,-1,0
18.748223,-8,9,0,-1,0,-1,-1,1,0
18.760310,-8,3,-2,1,-3,-1,-2,-3,0
18.760332,22,-4,-2,-2,0,-1,0,2,0
18.770359,-20,1,-1,0,0,0,0,0,0
18.770363,5,1,-1,1,-1,-2,0,0,0
18.784386,-7,-1,-2,-2,-2,-1,-2,-1,0
18.784402,0,-6,1,1,-1,-2,-2,-2,0
18.786479,22,11,0,-1,-1,-3,-1,2,0
18.786487,-32,-4,-1,-1,-1,-2,0,0,0
18.806526,5,-22,-4,0,-1,-2,-1,-1,0
18.806548,30,8,-1,-1,-1,-3,-1,1,0
18.808000,-29,-7,2,-1,-1,0,-1,-4,0
18.808014,24,8,2,0,0,0,-1,1,0
18.820476,-37,4,-1,-2,0,0,-2,-1,0
18.820493,0,-5,-2,-2,-1,-2,-1,-2,0
18.830870,4,-3,-3,-1,-2,-1,-2,-2,0
18.830884,19,0,-1,0,-1,0,-1,2,0
18.844279,2,5,0,0,0,1,-1,-2,0
18.845531,-2,-2,1,0,-2,-1,-1,-1,0
18.845604,-6,-3,-2,-1,-1,-2,-1,-1,0
18.845680,-7,-3,1,1,-1,-1,-1,-2,0
18.866595,0,4,0,0,0,-2,-2,1,0
18.866619,1,4,-2,0,0,-1,1,2,0
18.868086,7,10,-2,-4,-1,-2,-4,-4,0
18.868102,-5,-23,-1,0,-1,-1,-3,-2,0
18.881261,9,-5,-2,-1,0,-1,1,0,0
18.881268,-17,-2,0,-1,-1,-1,0,1,0
18.889576,-10,-4,-1,1,0,-1,1,1,0
18.889581,10,10,-2,-3,-1,-1,0,1,0
18.904338,8,14,-1,-4,-3,1,0,2,0
18.904357,19,-3,0,0,-2,1,-3,-2,0
18.906409,12,1,-1,0,-2,2,1,-3,0
18.906414,-41,-20,-5,-3,-3,-2,-4,-4,0
18.928320,11,3,0,-1,0,-2,0,2,0
18.928325,-6,0,-2,-2,0,0,-1,-1,0
18.928328,15,5,1,-1,-2,-1,1,3,0
18.928330,10,6,-1,-2,-1,-1,-1,-1,0
18.949234,-10,-3,-2,-2,-2,-2,-1,-2,0
18.949252,-2,2,-1,0,-2,-2,-1,-1,0
18.950617,-7,-12,-1,-1,0,0,-1,1,0
18.950625,-2,9,-1,0,-4,1,-2,-6,0
18.964360,-20,-12,-1,-1,-1,-1,-2,-1,0
18.964385,0,-4,0,1,-2,1,-2,-5,0
18.965670,-7,4,-2,-1,-1,-1,0,-1,0
18.965679,6,-8,0,-2,1,0,0,2,0
18.986646,12,6,3,-2,0,-2,-1,-1,0
18.986666,-7,-2,-2,0,1,-3,1,-2,0
18.988980,-5,-5,0,0,-2,1,-1,1,0
18.988987,10,11,0,-1,-2,-1,-2,-2,0
19.009636,-6,0,-1,-1,-2,-2,1,-3,0
19.009663,-6,-8,-2,-3,0,-1,0,1,0
19.010771,9,1,-4,2,-2,-1,0,0,0
19.010794,-14,1,-1,-1,1,0,-2,-3,0
19.024050,-7,-6,-3,-1,-1,-2,-2,-4,0
19.024071,-3,1,-2,-1,-1,1,0,-3,0
19.025554,-11,-16,0,-1,-1,-2,-4,-3,0
19.025563,16,6,-1,0,0,-2,0,3,0
19.047134,1,5,0,1,-1,0,0,0,0
19.048844,0,-10,-2,0,0,0,0,1,0
19.048849,-9,0,0,1,-1,0,0,-2,0
19.048891,3,-4,1,-2,-2,-1,-1,-2,0
19.069177,54,14,2,-1,0,0,0,6,0
19.069215,-75,-13,-5,-4,-3,-4,-6,-9,0
19.070557,10,-4,0,-2,-1,0,-1,2,0
19.070572,4,1,0,0,0,-1,-1,-1,0
19.084017,7,-1,-1,-1,-1,-1,-1,0,0
19.084030,26,4,1,-1,0,-1,-1,3,0
19.085522,-15,-4,-2,-1,0,-3,-3,-6,0
19.085535,6,6,0,-1,-1,-1,0,0,0
19.106585,-17,4,-2,-1,-2,-1,-1,0,0
19.106603,-5,-19,-2,0,-1,2,0,2,0
19.108046,6,2,-1,-2,-2,-1,-1,2,0
19.108054,18,0,1,-1,-2,-2,-1,1,0
19.130207,5,4,0,-1,0,-1,-1,0,0
19.130216,-7,8,-1,0,-1,-1,-1,-4,0
19.130757,-1,1,1,-2,1,-1,0,2,0
19.130800,-4,1,-1,-1,0,0,-1,1,0
19.143819,-4,-10,-1,-1,-1,-3,-1,-1,0
19.143850,12,6,1,-1,0,-2,0,4,0
19.150430,-1,-2,-3,0,0,-1,-1,-4,0
19.152085,-2,-3,0,1,0,-1,-1,-4,0
19.166773,-12,-1,-3,-1,-1,-1,-1,-3,0
19.166796,34,16,0,0,-1,0,0,1,0
19.168196,-34,-12,-1,0,-1,-1,0,1,0
19.168201,-2,-11,-2,-2,-2,-2,-1,-2,0
19.189301,4,-3,0,-1,0,1,-1,-1,0
19.189316,11,3,1,-1,-1,-1,0,-1,0
19.190825,5,8,0,-3,-3,-1,-2,-3,0
19.190830,-11,2,0,-1,-2,0,-2,2,0
19.204403,-8,-8,-1,-2,-1,0,0,-1,0
19.204428,11,3,0,0,0,-1,-4,-7,0
19.210667,1,2,-1,0,-2,-1,0,1,0
19.210699,-3,6,-2,-1,0,-2,-1,-4,0
19.226819,21,-24,-3,-2,-3,-3,-1,2,0
19.226853,-6,-3,-2,-2,-1,-1,0,0,0
19.228304,2,-3,-1,-1,-1,0,-4,-4,0
19.228337,-5,3,-1,0,1,0,1,2,0
19.249093,3,11,0,0,0,-1,-2,-3,0
19.249111,6,-1,-3,-2,-1,-1,-1,2,0
19.250771,-2,-3,-1,-2,-2,-2,-1,1,0
19.250776,8,1,0,-1,-1,-1,0,1,0
19.263832,-4,3,-1,-1,-2,0,-1,-2,0
19.265125,-12,-6,0,-2,-3,-1,-1,0,0
19.270218,-5,4,1,0,-1,-1,1,0,0
19.270235,-5,-8,-2,-2,-1,0,-2,-3,0
19.286569,31,0,-1,0,-1,-1,0,-1,0
19.286605,8,6,-4,-3,-1,0,-3,-5,0
19.288038,-33,2,-1,0,0,-2,-2,-1,0
19.288046,-4,-25,-5,-1,-2,0,0,-2,0
19.309279,-8,1,1,-1,0,-1,-1,0,0
19.309309,8,0,1,1,-1,0,1,0,0
19.311680,20,9,0,1,0,-2,1,1,0
19.311698,-4,4,-1,-2,-1,-1,-2,0,0
19.323389,-19,-2,-1,0,-2,-1,-3,-5,0
19.323410,-1,1,1,0,0,1,-1,1,0
19.330555,1,-4,-2,-3,-1,-1,-1,-1,0
19.330600,-9,-2,0,0,1,-1,0,-1,0
19.347999,-5,-2,-2,-1,0,-2,-2,2,0
19.348005,-10,-1,1,-1,-1,-2,-1,1,0
19.348130,14,-4,-1,-2,-3,1,-2,0,0
19.348138,8,9,0,0,0,-1,0,3,0
19.369315,-19,0,0,0,-1,0,-1,-1,0
19.369336,1,-14,-2,-1,-2,-2,-1,0,0
19.370792,18,-7,-4,-1,-1,-1,-3,-6,0
19.370805,-12,1,-1,-1,-2,-1,-2,-2,0
19.383617,-9,7,1,2,-1,1,0,-1,0
19.383634,-8,4,-1,-1,-1,0,-1,0,0
19.390738,9,-3,0,-3,-2,-2,-2,-4,0
19.390771,-4,4,-2,0,-1,0,-1,-2,0
19.406860,-1,-6,-3,-1,-1,-2,-1,-2,0
19.406883,-1,-4,-2,-2,-2,0,0,-1,0
19.409880,-3,2,-1,0,-1,0,0,2,0
19.409892,-2,-4,-1,-2,-2,0,0,1,0
19.429584,-8,-3,-1,2,1,1,-1,-1,0
19.431711,4,0,-2,-3,-2,-3,-4,0,0
19.431716,-10,0,0,0,-2,-1,0,-1,0
19.431718,-2,-2,-1,0,-1,0,0,0,0
19.442833,9,-3,-2,0,1,-2,1,2,0
19.442854,-9,11,1,0,-2,-1,-1,-3,0
19.452647,-2,-19,-2,-1,1,0,0,-1,0
19.452656,0,1,0,-1,-3,-2,0,0,0
19.466628,2,2,-2,-3,-1,-1,-1,0,0
19.467710,-1,-2,1,2,-1,0,1,-1,0
19.468131,-5,7,-2,-1,-2,0,-2,-1,0
19.468164,13,-1,0,-1,-1,-1,0,-2,0
19.489197,-13,3,0,-1,0,-1,0,-2,0
19.489215,11,-1,-3,-3,0,-1,-2,-3,0
19.490696,-12,-4,-1,-1,-1,0,0,2,0
19.490714,-7,-1,-1,-2,-1,-3,-3,-2,0
19.504204,18,0,0,-1,0,2,0,0,0
19.504218,-59,5,-1,-1,-2,-1,0,-4,0
19.512405,7,-16,0,0,0,-2,0,-3,0
19.512418,12,6,0,0,-2,-1,0,4,0
19.527027,-46,-18,-1,-2,1,-2,-3,-4,0
19.527064,10,-3,-1,0,1,1,-2,0,0
19.529052,7,11,0,0,-1,-2,-1,5,0
19.529065,-2,11,1,-1,-2,-2,-1,-4,0
19.549612,11,-21,-2,-3,-3,-2,-1,2,0
19.549617,7,-1,-1,0,0,-1,-1,1,0
19.550557,20,10,1,-1,0,0,0,1,0
19.550609,-27,-9,0,0,0,-2,-2,-2,0
19.565493,-7,9,0,-2,-3,-3,-1,-1,0
19.565504,-1,-4,-1,-3,0,-1,-1,-4,0
19.573025,-3,0,1,0,-2,-1,0,-1,0
19.573031,-3,-1,0,-1,-1,0,-1,2,0
19.586699,9,6,0,-2,0,-1,0,0,0
19.586752,9,-4,1,-1,0,-1,1,0,0
19.589403,12,8,0,-1,-1,-1,-1,-1,0
19.589410,-3,-5,-2,-1,-1,-2,0,-1,0
19.609310,-7,1,1,0,-2,-2,0,-1,0
19.611439,11,-1,-2,0,-3,-3,-3,1,0
19.611446,-10,-2,-1,-1,0,-2,-1,-2,0
19.611448,5,-7,-3,0,0,-1,0,3,0
19.622988,-5,3,-4,-1,-3,-2,-3,-3,0
19.623010,8,-1,-2,-1,0,0,-1,2,0
19.632952,-17,-2,-1,0,0,0,-2,-3,0
19.632957,4,-3,-2,-1,-1,1,0,1,0
19.646662,38,8,1,0,-1,-1,1,-2,0
19.646683,-78,-9,-1,-1,-2,-2,-2,-5,0
19.648598,8,0,0,-1,0,1,0,1,0
19.648638,-2,-1,0,-2,0,-2,-2,0,0
19.669345,-3,-2,-1,-3,-1,0,-2,-2,0
19.669361,21,18,1,-1,0,-1,0,-2,0
19.671794,-3,-20,-1,-2,-2,-2,-1,1,0
19.671800,-24,-3,0,0,-1,-1,-2,-7,0
19.682732,7,1,-2,-2,0,-2,-1,-3,0
19.682750,1,-4,-1,-1,-2,-1,0,2,0
19.691625,60,17,-2,0,0,-1,-1,3,0
19.691631,-48,-6,-2,-2,0,0,0,-3,0
19.707046,-4,-4,1,1,1,0,1,-2,0
19.707051,12,-2,-3,-1,0,-2,-2,0,0
19.707974,3,2,0,-2,0,-2,-1,-1,0
19.708008,8,-1,0,-2,0,-1,0,2,0
19.729315,-24,1,-1,0,-2,-1,-2,-1,0
19.729352,27,9,1,0,-1,-1,1,0,0
19.731456,-18,-19,-3,-1,-1,-2,-1,-3,0
19.731462,3,-4,1,0,-2,-1,0,0,0
19.743133,-7,3,-1,-1,-3,-2,-2,-2,0
19.743157,12,-2,-1,-2,-1,-1,-2,-1,0
19.752902,-18,8,0,-1,-1,-1,-1,-2,0
19.752907,1,2,-1,0,-1,-1,-1,-2,0
19.766758,30,-1,-1,0,-1,0,-1,2,0
19.766775,-30,-4,-2,-2,0,-1,0,-3,0
19.768640,-11,1,-1,0,-1,0,-1,-1,0
19.768645,29,2,-3,-1,-3,-2,-2,-4,0
19.789362,-32,-4,0,-1,0,-1,-1,0,0
19.789385,8,-7,-1,0,-1,0,-1,0,0
19.791937,-16,0,0,-2,-1,0,0,-2,0
19.791943,10,15,1,0,0,-1,-2,1,0
19.802937,-5,-21,-2,-3,-1,-2,-1,-2,0
19.802965,34,-3,-1,-1,-2,-2,-2,-3,0
19.812317,-58,-15,-2,-1,-1,-2,-3,-3,0
19.812323,24,4,-1,-2,0,-2,-1,-1,0
19.827192,-1,14,1,-2,0,0,-1,1,0
19.828660,9,1,-1,0,0,0,1,2,0
19.828665,17,-7,-3,-2,-1,0,-2,-3,0
19.828667,-7,-2,-1,-1,1,-1,0,-2,0
19.849067,4,1,-1,0,-1,0,1,0,0
19.849079,-4,1,0,-1,-1,-3,-1,-5,0
19.850624,2,7,-2,-1,-1,-1,-1,2,0
19.850638,6,-6,-1,0,-1,-1,-2,0,0
19.872113,-27,-5,-2,0,0,-1,-2,-4,0
19.872136,3,-3,-1,-2,-2,0,-2,0,0
19.874121,-1,2,0,-1,0,-1,0,0,0
19.874125,5,-5,-2,-1,-1,-1,-1,1,0
19.886704,11,3,-1,0,-1,0,1,2,0
19.886727,-8,-2,-2,-1,0,-1,-1,-4,0
19.888908,-1,1,0,-1,-1,-1,0,0,0
19.888917,-5,-6,-2,-1,0,0,-1,-1,0
19.909486,11,16,1,-1,-1,0,-1,0,0
19.911435,-15,-20,-3,-2,-1,-1,-1,1,0
19.911442,-18,-3,-1,-3,0,-1,-1,-3,0
19.911444,12,3,0,0,-1,0,-1,-1,0
19.931959,20,-1,1,0,0,-1,0,1,0
19.932025,-73,-2,-2,-2,-2,-3,-1,-5,0
19.933261,19,4,-1,1,0,0,-2,-1,0
19.933282,-9,-7,-2,-1,-1,-1,0,-3,0
19.947101,6,0,-1,-1,-1,-1,0,-1,0
19.947129,24,5,1,0,0,-1,0,2,0
19.948440,3,-2,-1,-2,-1,0,0,-1,0
19.948444,-18,-2,-1,-1,-2,0,-1,-2,0
19.969411,8,-3,-3,-2,-1,-1,-1,-1,0
19.969433,0,-1,0,0,-1,-1,0,4,0
19.971132,-15,-1,1,0,-3,-1,-2,-5,0
19.971137,6,0,-3,-2,-2,-3,0,-2,0
19.991764,5,0,0,-1,-1,-1,0,2,0
19.991783,8,6,-2,1,-1,-1,0,-1,0
19.993293,-3,-15,0,-1,-1,0,1,3,0
19.993315,-2,1,0,1,0,0,0,0,0
20.006861,-17,-8,-3,-1,-4,-1,-2,-3,0
20.006884,24,9,0,-1,-1,0,-1,-2,0
20.008131,-12,5,-1,-1,1,0,-1,-1,0
20.008146,12,-3,0,-1,0,0,0,-1,0
20.029476,-17,0,-1,-3,-1,-2,-3,-1,0
20.029527,13,-11,-1,-1,1,0,-1,0,0
20.031684,-5,0,0,0,0,0,-1,-1,0
20.031691,-10,-5,-1,-2,-1,-1,-2,0,0
22.054116,29,7,4,-9,-46,10,93,7,3
22.054523,21,0,-4,-39,36,-76,-42,51,3
22.056176,1,-7,-6,25,-24,67,3,34,3
22.056241,30,0,-8,2,16,-5,8,-9,3
22.077920,-92,-10,5,14,-25,-64,57,47,3
22.077928,21,0,0,-4,-40,-44,0,6,3
22.078217,10,0,1,30,-2,19,36,29,3
22.078258,-17,-1,-2,-10,-3,-39,18,-14,3
22.090918,32,-9,-9,-16,-53,38,54,73,3
22.093026,2,-3,0,12,32,104,-53,-6,3
22.097741,-10,4,2,-13,17,-6,-13,-13,3
22.097763,-16,-7,-3,7,34,90,-10,-21,3
22.114318,5,1,-5,2,54,17,0,-29,3
22.114349,-32,-2,3,-10,-21,-94,22,-6,3
22.115668,35,5,5,12,3,-18,20,-44,3
22.115703,-18,0,-1,1,-40,73,37,-14,3
22.137173,23,12,3,-30,-34,13,-68,41,3
22.137192,-18,-2,0,36,67,96,90,-29,3
22.138531,25,8,3,-26,-128,-20,50,89,3
22.138539,2,-4,-3,28,74,10,45,15,3
22.151281,2,-3,2,-13,-57,-18,-11,-56,3
22.151308,-2,-5,-1,8,-7,10,31,78,3
22.157899,17,-3,-8,-27,-40,-4,-24,-38,3
22.157921,-17,-2,1,-19,28,-83,-25,-8,3
22.174381,20,-2,-2,4,31,-10,-31,-76,3
22.174387,-10,5,1,-9,8,-42,-53,-55,3
22.175528,19,-2,-11,-46,65,-12,6,-60,3
22.175550,-6,3,10,61,67,31,42,39,3
22.197042,-6,-3,-1,-8,30,25,-19,-102,3
22.197082,13,1,-5,-15,-75,-63,-43,-26,3
22.198587,-48,-4,1,13,48,35,-47,30,3
22.198600,19,-3,-5,-12,-106,-17,-2,-30,3
22.211198,12,3,0,12,-8,-21,-46,63,3
22.211219,11,2,-1,-7,26,33,-17,-15,3
22.217748,12,-3,-5,-8,-55,55,32,-4,3
22.217768,-4,4,1,4,-2,-82,-56,18,3
22.234347,26,0,0,11,-6,-32,-12,9,3
22.234679,-55,-3,-2,-38,36,51,-23,-34,3
22.235621,-14,-2,4,49,-6,-4,-5,84,3
22.235654,-10,2,1,24,-32,-6,-6,-37,3
22.256791,57,3,-4,-27,69,66,113,-25,3
22.256813,25,3,5,28,18,-63,55,-19,3
22.258546,-31,-1,0,-13,-17,30,-1,-10,3
22.258550,6,-3,3,1,-4,44,0,14,3
22.271413,-10,-2,0,18,18,-60,-51,3,3
22.271435,-18,-5,-4,-12,-16,-4,-3,5,3
22.277931,-3,2,1,-16,-55,74,14,-33,3
22.277957,44,2,0,-6,63,-5,8,16,3
22.294278,-20,3,-3,-11,-37,-36,-32,-11,3
22.294304,-9,-4,1,7,-12,127,-1,20,3
22.295693,4,-5,1,32,84,-10,72,-11,3
22.295701,-35,-4,-6,-21,22,-17,-17,0,3
22.316745,-9,6,10,21,7,22,43,69,3
22.316762,18,-5,-9,-55,-60,-15,5,12,3
22.318136,-16,3,1,8,74,50,55,38,3
22.318154,29,-2,-3,-24,-31,77,-52,-78,3
22.330637,8,3,-1,14,19,45,38,81,3
22.330676,-40,-9,0,5,18,-60,-28,-52,3
22.340594,-40,-5,-6,-48,12,-58,-57,-46,3
22.340598,8,-2,-3,8,-43,-76,-34,29,3
22.355134,1,3,3,35,-65,-37,37,-4,3
22.355150,6,2,1,-5,44,-31,-17,-65,3
22.357359,39,0,-1,4,-24,-9,-11,34,3
22.357364,-6,-3,-2,6,70,-15,6,-3,3
22.377022,5,1,1,-10,-2,103,-23,-49,3
22.377049,-15,-2,0,13,-31,-71,8,68,3
22.380259,-18,-4,-4,-4,39,-14,-6,-68,3
22.380285,-2,3,0,-11,15,80,-17,19,3
22.390264,2,1,2,12,-42,52,2,-17,3
22.390277,26,2,2,22,58,18,30,65,3
22.399852,-45,3,-2,-34,-41,-47,-37,51,3
22.399856,37,-2,-2,62,-40,-58,-11,-44,3
22.414698,-24,-1,3,13,-74,-23,17,9,3
22.414724,-23,-4,-2,6,4,-51,1,37,3
22.416406,56,7,4,47,-11,18,-18,66,3
22.416413,-14,-3,0,-1,25,-15,-12,-4,3
22.436915,-26,-6,-6,-14,-12,-70,-65,0,3
22.436927,20,0,-4,25,-18,31,3,10,3
22.438136,21,6,1,-9,56,15,33,44,3
22.438157,-78,-2,0,-36,-9,39,66,4,3
22.450196,4,-5,2,34,117,41,-38,-29,3
22.450210,-10,-1,-3,-41,-13,-8,100,-12,3
22.461130,18,-5,-1,21,-74,-43,-61,-51,3
22.461143,33,2,0,33,-41,-17,8,110,3
22.474140,-11,-1,-4,-29,71,33,6,15,3
22.474156,-7,4,1,14,15,62,-7,12,3
22.476133,11,-4,-3,-26,-125,14,21,-29,3
22.476142,-3,-6,-6,-23,-79,-83,-16,-5,3
22.496641,-5,2,0,15,-73,-27,-16,-2,3
22.496670,5,-4,-2,-8,32,13,-16,5,3
22.498812,26,5,2,20,-55,-13,25,-21,3
22.498843,-2,4,7,-5,-32,75,-49,-26,3
22.513132,-12,-8,-8,-47,-19,6,65,32,3
22.513141,-19,2,-4,5,-122,9,17,-41,3
22.519183,-21,-4,3,21,-60,-39,-39,-50,3
22.519200,-7,-4,-5,-17,64,-71,63,-12,3
22.534108,-6,0,4,22,-25,-23,-7,32,3
22.534124,48,2,3,-7,47,4,12,9,3
22.535668,-9,1,1,-14,33,10,23,12,3
22.535690,33,3,1,-7,-48,-2,-4,-1,3
22.558230,-21,-5,-5,-28,-28,39,16,64,3
22.558235,-5,5,6,60,64,11,-99,-31,3
22.558238,-2,-5,-5,-15,15,89,3,-6,3
22.558280,0,5,3,-9,2,61,48,-13,3
22.572054,26,5,-7,4,65,33,58,-26,3
22.572059,21,-2,-2,19,-31,-36,-2,71,3
22.580891,-3,-6,4,20,54,-27,45,-89,3
22.580903,-66,-7,-3,10,-98,-2,-35,11,3
22.594192,37,7,2,22,43,-72,-39,-68,3
22.594215,-8,-2,-4,-64,-51,26,43,50,3
22.595695,33,3,-8,-29,-4,47,-28,49,3
22.595710,-20,-4,-2,10,38,-49,-3,19,3
22.616720,7,-2,1,-20,-76,-43,15,-64,3
22.616738,-3,-8,-6,2,33,-3,-45,-5,3
22.618388,23,13,2,-24,-2,60,27,14,3
22.618395,-8,-11,-7,-1,98,127,8,-19,3
22.630828,-43,-6,-5,-29,18,49,-37,68,3
22.632445,9,2,4,9,-98,-17,8,-98,3
22.640689,-35,-9,-3,1,95,119,-35,59,3
22.640694,-13,-2,1,-6,-66,-124,-82,-32,3
22.654159,26,-1,-1,13,63,103,-23,61,3
22.654183,7,5,0,0,-9,-36,-2,38,3
22.655567,-37,-10,-6,3,-14,-89,-4,-37,3
22.655583,74,7,-6,-96,-47,-19,23,65,3
22.676681,-34,-20,-6,45,64,79,-97,-35,3
22.678093,-25,2,3,-10,-13,3,-8,-38,3
22.678156,17,-4,-4,22,45,-7,-36,2,3
22.678180,-5,9,2,-8,57,46,8,30,3
22.690932,-13,2,2,-22,-1,17,32,36,3
22.690955,52,-8,-6,16,14,38,-24,-28,3
22.699970,-38,-3,2,-8,-73,-30,-5,-48,3
22.699977,20,1,1,-2,41,-7,32,13,3
22.715058,-8,-3,-1,-3,-6,-8,-6,-7,3
22.715063,-22,3,1,36,52,40,8,-26,3
22.715695,40,-6,-9,-32,-5,8,10,-66,3
22.715713,-37,-6,1,39,5,-79,-70,-2,3
22.737501,19,2,-2,-7,-21,72,30,-41,3
22.737521,-33,-2,-1,-46,-59,-12,-12,16,3
22.738655,49,9,6,14,2,100,50,27,3
22.738659,-28,-6,-4,7,-55,-17,-6,-3,3
22.761140,8,-1,0,0,8,-45,48,14,3
22.761152,41,-7,-8,-9,-77,-25,-13,-44,3
22.761154,-89,-11,-4,-6,48,6,12,28,3
22.761156,1,-2,1,14,24,9,15,22,3
22.776575,18,6,-1,-10,-83,-31,29,-16,3
22.776595,21,6,-1,-75,-50,73,46,38,3
22.776598,-32,-9,-7,-10,-90,-51,-48,50,3
22.776600,19,3,2,12,34,-12,12,-51,3
22.797215,-16,-1,-1,-18,34,-44,-48,18,3
22.797234,-12,-15,-12,-18,-80,-15,37,-17,3
22.798699,-14,11,7,26,27,-24,32,-15,3
22.798705,19,1,-1,-1,0,63,2,-52,3
22.819237,-10,0,0,7,-46,-62,-7,-45,3
22.819260,-19,3,2,-5,53,-42,-52,10,3
22.821568,-2,-7,-5,-17,2,-77,-86,43,3
22.821576,-1,-5,-3,13,-5,5,15,-68,3
22.834406,21,3,0,2,-42,-75,-3,22,3
22.834429,-75,-10,1,23,96,61,26,-5,3
22.836818,18,0,-3,-20,-44,-14,27,38,3
22.836824,7,5,5,6,-11,-14,14,32,3
22.856577,28,2,-1,-13,8,-28,102,50,3
22.856600,-5,-1,-2,-13,-69,-46,-6,59,3
22.858070,37,15,7,24,8,127,71,0,3
22.859799,-27,-12,-5,-25,55,93,57,70,3
22.879369,-9,-3,-2,11,-11,71,-35,-31,3
22.879410,5,4,1,9,-11,5,26,-8,3
22.881278,11,-1,0,-1,-57,-9,-47,1,3
22.881288,-4,-5,-5,-4,-17,-2,-16,14,3
22.893537,-4,-2,0,12,-17,59,29,-11,3
22.896078,52,7,3,14,29,24,59,-99,3
22.900275,-76,-9,-3,-12,71,-2,-57,-70,3
22.900291,-20,-8,-4,14,43,-28,-43,65,3
22.916645,21,1,1,-12,1,-11,-57,-62,3
22.916653,-18,-5,-8,-13,-87,-78,-20,30,3
22.918122,52,5,3,13,15,-19,28,52,3
22.918136,-23,-9,-12,-35,-19,15,-74,-16,3
22.939178,-18,-2,-1,-1,-66,12,10,-13,3
22.939194,20,7,1,9,-44,-88,-47,32,3
22.941211,-20,5,4,36,76,-34,-27,5,3
22.941219,2,-8,2,18,-36,59,7,-83,3
22.961878,-45,-4,-2,5,-38,-10,-70,13,3
22.961894,-33,-2,-1,-11,92,99,-1,26,3
22.962649,9,1,-1,-2,43,-40,-35,-28,3
22.962676,15,3,3,13,9,-74,12,-87,3
22.976306,-4,0,-3,-2,-6,80,53,-5,3
22.978185,12,0,1,13,-21,88,-87,2,3
22.978193,1,4,2,-14,23,-10,17,-14,3
22.978195,15,3,-1,-30,-23,31,88,27,3
22.998735,6,-8,-1,16,-3,19,-10,-20,3
22.998753,-17,-2,0,7,25,-13,12,14,3
22.999146,30,2,2,-15,-63,24,49,59,3
22.999160,-23,0,5,30,52,83,7,-28,3
23.013313,22,-3,-3,-10,-41,-5,31,81,3
23.013355,10,3,-1,-38,28,38,22,20,3
23.021468,14,-8,-6,34,-125,-126,-27,-47,3
23.021510,-42,-4,-3,-10,27,-40,10,-39,3
23.036031,-42,4,4,-1,-40,-58,3,19,3
23.036049,46,-6,1,13,42,45,27,64,3
23.037916,3,-4,-10,-44,-34,44,-32,10,3
23.037921,-1,4,2,9,-120,-44,-17,0,3
23.058469,25,1,-2,14,41,-85,-59,-12,3
23.058489,-29,0,3,13,-4,-68,-16,33,3
23.059414,-16,-7,-6,-27,-21,10,12,-15,3
23.059543,36,5,-1,2,-77,-32,-114,29,3
23.072686,-19,-2,1,23,108,33,-16,-89,3
23.072709,15,7,4,13,-17,45,41,8,3
23.081219,-25,-2,-2,-10,-39,123,63,0,3
23.081236,-17,-4,-3,-20,-48,32,-10,-2,3
23.096188,40,-1,-2,-24,38,22,26,37,3
23.096233,-17,-8,-3,13,10,-106,-83,-74,3
23.097967,33,3,-3,-49,-59,-21,31,49,3
23.097974,-40,-2,2,63,96,24,7,-23,3
23.118326,17,-8,-4,-13,-66,-36,36,41,3
23.118353,-15,-1,1,20,112,-34,-49,-19,3
23.119034,3,-10,-13,-56,-58,1,-73,-8,3
23.119042,2,4,6,52,18,-46,11,25,3
23.132804,15,4,0,-4,61,8,17,68,3
23.132826,-4,-3,-1,3,-73,36,71,10,3
23.141239,-23,-1,6,47,26,62,38,-105,3
23.141262,49,6,-3,-16,32,-2,35,85,3
23.155981,-69,-4,1,-5,-109,-37,-40,-98,3
23.156004,7,4,2,11,-17,-7,8,-33,3
23.158511,-9,-4,-2,20,118,-14,27,15,3
23.158517,66,0,1,-8,-5,75,13,17,3
23.178426,-48,-4,-3,-35,32,101,66,-4,3
23.178450,30,2,-2,-29,-80,5,-29,15,3
23.181225,-5,-2,7,15,-36,9,34,34,3
23.181245,-17,-3,-13,-23,27,15,6,-18,3
23.192882,54,0,-1,-3,-18,-62,-23,-14,3
23.192912,-58,-4,-3,-9,17,63,29,-30,3
23.201124,35,1,-1,4,-63,-128,-22,-13,3
23.201148,-30,-7,-2,-19,-44,-33,45,36,3
23.215942,19,9,6,16,-28,-35,-17,-17,3
23.215968,-1,2,0,37,103,57,-2,-4,3
23.216741,-15,-8,-4,-16,-18,-16,-34,-32,3
23.216852,-9,-1,1,-8,54,-40,-58,-18,3
23.238524,9,-2,-3,1,75,73,43,5,3
23.240126,16,1,0,-12,-14,17,30,22,3
23.240135,-11,-2,0,8,51,18,-1,33,3
23.240140,36,1,-1,-7,-27,-11,-14,22,3
23.252792,-81,-5,1,17,28,-31,-18,-87,3
23.252816,10,-2,-3,12,1,-43,-29,45,3
23.262124,12,2,1,9,30,-3,7,31,3
23.262137,13,2,-2,-9,-34,31,14,19,3
23.278284,23,6,1,-1,-5,-8,-24,13,3
23.278292,-16,-15,-11,-48,-22,22,57,-5,3
23.278294,-3,-2,5,29,-64,-35,25,32,3
23.278296,-30,-3,-1,-9,-86,-21,37,-70,3
23.298385,15,-1,-4,-22,-36,20,-41,15,3
23.298403,-2,-1,0,6,-16,-40,26,-30,3
23.299349,15,2,-4,-8,22,38,-22,43,3
23.299355,-4,1,1,-3,8,25,7,-37,3
23.312952,-13,1,-5,-5,-26,5,28,30,3
23.312986,5,-2,0,-44,61,-9,-31,-6,3
23.320684,12,10,5,38,67,-9,16,-88,3
23.320727,-35,-6,-4,-4,-12,23,10,17,3
23.335867,19,-1,-1,1,83,28,-19,17,3
23.335885,-11,0,0,14,-95,60,44,15,3
23.336804,-24,-7,-6,-23,20,70,-15,11,3
23.336809,64,7,4,18,-37,-29,-23,10,3
23.358285,-50,-8,-4,5,58,-77,-8,26,3
23.358293,21,6,4,36,-37,48,22,43,3
23.359203,21,1,0,-7,-43,4,13,-7,3
23.359228,-3,-2,-6,-27,-29,45,0,19,3
23.373459,5,1,3,-8,-98,-11,16,87,3
23.373468,-2,1,-4,-7,10,42,-5,-97,3
23.381178,7,1,2,9,-47,-40,41,20,3
23.381196,-6,1,3,5,-11,18,-21,-25,3
23.396282,-18,-12,-8,2,-28,-20,6,-10,3
23.396299,8,-3,-4,-19,1,-54,-11,-23,3
23.398988,-2,-2,-5,-11,21,-22,-34,-9,3
23.398994,-19,-1,1,6,-32,7,15,7,3
23.419811,38,2,-1,-16,-7,5,13,0,3
23.419817,-21,-3,1,11,-94,-128,14,-21,3
23.419819,-19,-7,1,-6,-6,25,11,-41,3
23.419821,-12,-4,-3,-8,12,-27,-10,33,3
23.432865,7,5,1,1,-21,45,37,-57,3
23.432935,-13,-8,-3,8,83,3,-59,-5,3
23.441540,8,-1,-3,-29,3,3,24,2,3
23.441570,0,2,2,-20,-10,-72,-26,-3,3
23.455904,22,0,-1,30,-30,-24,11,81,3
23.455921,-18,-1,-1,-38,-46,44,-6,48,3
23.456648,-5,8,5,16,-11,-21,-27,26,3
23.456670,-32,-5,0,6,117,84,-30,-68,3
23.478458,38,6,3,12,-82,1,-15,32,3
23.478489,-4,3,2,3,28,-18,-17,-35,3
23.480312,-33,-9,-8,-30,-102,9,-37,-5,3
23.480326,14,-7,-8,-13,-2,-26,4,25,3
23.493278,2,5,4,10,1,37,57,-27,3
23.493309,23,-2,-5,-2,33,64,-72,51,3
23.501070,33,2,0,-3,-22,17,59,36,3
23.501087,1,3,1,14,25,-5,-4,0,3
23.524203,-42,-3,-3,-27,19,63,-18,-37,3
23.524228,8,5,1,24,23,54,60,-12,3
23.525930,-11,-6,1,30,58,42,-15,-9,3
23.525946,20,6,3,8,24,-20,4,53,3
23.538419,22,-7,-5,-9,-18,6,13,66,3
23.538436,-23,1,1,-13,-5,-62,0,-71,3
23.539432,15,8,3,-12,40,62,-31,26,3
23.539436,-1,-3,-4,12,44,83,75,3,3
23.553308,34,5,3,5,92,19,-22,5,3
23.553337,-7,-7,2,-2,78,66,45,13,3
23.560743,-29,-4,-3,1,-69,-85,37,-15,3
23.563079,14,0,-3,-14,-77,-9,24,48,3
23.578150,0,1,-6,-38,-14,-49,-79,-15,3
23.578156,-24,0,5,23,-66,-22,8,37,3
23.578158,29,-3,-2,-1,55,57,-49,-98,3
23.578160,2,5,4,24,52,33,7,33,3
23.598493,24,-1,-4,5,-4,14,1,-26,3
23.598510,19,2,6,1,18,-54,12,44,3
23.599298,-37,-6,-4,-7,-55,-32,7,7,3
23.599314,15,-6,-3,-24,-12,-23,6,-29,3
23.613280,-29,-4,1,29,-37,-50,-20,8,3
23.613316,17,-5,-7,-13,-14,33,-6,17,3
23.621342,23,6,1,9,5,-71,8,51,3
23.621364,0,3,2,2,-29,-43,-29,7,3
23.636189,-15,-4,2,52,35,-18,0,-82,3
23.638461,-35,-1,-2,-8,-91,33,-10,22,3
23.638474,23,-1,0,-1,57,80,-21,-14,3
23.638476,-18,-2,-5,-12,-37,25,53,5,3
23.658911,-16,-2,-3,-26,-62,-20,-73,-49,3
23.658944,25,0,0,32,13,19,-12,3,3
23.659408,-45,-1,-1,6,57,81,-5,0,3
23.659440,13,-6,-2,-34,-67,41,-20,-34,3
23.672686,-12,-3,-1,6,49,97,9,-19,3
23.672702,0,3,1,-9,-56,-2,18,-9,3
23.680401,23,-2,-3,-14,-88,-64,2,-76,3
23.680420,1,-2,-1,-22,-30,-76,-33,1,3
23.696153,4,-3,2,8,-18,-9,-15,61,3
23.696196,-20,-3,0,12,41,-36,9,-80,3
23.697605,-2,4,4,27,45,-23,48,54,3
23.697611,-2,7,3,7,8,90,-16,17,3
23.718391,5,-7,-6,-22,23,-1,44,-43,3
23.718401,-15,-1,-7,-1,6,-49,-35,-5,3
23.719185,15,-3,-5,-15,-15,-85,13,59,3
23.719196,-8,5,5,36,34,87,-4,-40,3
23.741127,5,-5,-3,-7,33,25,64,-51,3
23.741149,10,5,3,-4,64,85,40,46,3
23.744043,-28,-4,-1,7,29,-38,66,-21,3
23.744049,-20,-7,-3,6,-41,14,-53,-25,3
23.755945,16,7,3,-3,58,41,17,75,3
23.755961,31,0,-6,-8,-52,-77,-14,-23,3
23.756806,-24,-4,-2,-48,-54,40,-35,-71,3
23.756811,20,4,3,39,55,-57,30,26,3
23.779872,10,-2,2,2,31,-40,-7,44,3
23.779885,-47,-9,-3,-3,15,19,-41,18,3
23.779888,3,-4,-3,-7,42,35,-68,86,3
23.779890,-48,-10,-4,-5,-7,-40,9,-64,3
23.801151,27,8,1,-5,-78,23,-32,0,3
23.801167,14,-2,0,-23,48,6,8,69,3
23.803163,-9,7,5,26,95,-16,-12,-20,3
23.803172,18,-6,-6,-22,-5,3,52,28,3
23.816022,-4,3,-1,1,26,3,13,-10,3
23.816038,-14,-1,-2,-17,1,-11,16,5,3
23.816618,-11,-8,-3,7,-35,87,-13,-60,3
23.816630,17,-5,-4,-3,-9,-17,20,18,3
23.838541,-2,0,-1,-16,-20,-54,-14,-12,3
23.838566,5,-3,-3,6,-13,13,-22,-81,3
23.840286,6,1,-1,-5,-60,-15,15,44,3
23.840292,-24,3,2,7,5,-39,-48,22,3
23.860939,-7,-9,-5,-36,-39,64,18,-1,3
23.860958,10,2,5,62,-5,-66,-60,18,3
23.861593,54,6,3,-30,-118,-46,16,57,3
23.861608,-2,-2,-3,43,101,73,29,-41,3
23.875947,-22,7,2,22,-76,-26,79,23,3
23.875979,9,-9,-3,-9,-79,0,10,-26,3
23.877613,11,4,-2,-1,22,-2,-2,35,3
23.877619,5,3,2,0,-44,-25,-22,76,3
23.898505,-12,-6,-6,-8,1,-118,-26,-36,3
23.898525,25,3,2,-2,29,-34,8,-46,3
23.899570,-10,-6,-4,5,-22,22,1,-33,3
23.899574,9,-3,0,-40,2,17,71,31,3
23.922730,-54,-3,-1,20,-40,43,-14,12,3
23.922735,-20,-4,-4,-15,-11,-2,15,40,3
23.922737,-15,0,-3,-33,-49,-55,-37,3,3
23.922739,-16,-6,-3,5,-11,-77,-40,-41,3
23.937553,26,5,3,1,46,127,-5,5,3
23.937562,-2,1,0,3,4,43,-14,27,3
23.937566,-6,-1,-1,-5,-13,56,52,-11,3
23.937568,25,7,6,-1,59,-3,-28,27,3
23.958416,-11,-1,-2,-4,-32,-74,-21,-18,3
23.958434,19,-1,-4,-7,-44,74,-26,-96,3
23.960688,23,3,1,12,109,65,19,-50,3
23.960694,-24,-9,-3,-2,-75,-17,51,50,3
23.981188,36,6,8,24,53,5,-15,52,3
23.981216,-7,1,1,2,85,-3,54,-5,3
23.982859,-11,-3,-4,4,-48,-25,-35,-55,3
23.982871,-12,-5,-6,-5,-128,-79,-18,-31,3
23.996395,6,-3,-1,6,71,56,-5,-7,3
23.996426,5,1,1,4,-57,-5,-19,3,3
23.997857,-19,-6,-5,2,76,-65,-24,-50,3
23.997862,4,4,0,-3,-34,-39,-21,-38,3
24.018405,-64,-5,-4,-29,-65,-54,-6,49,3
24.018422,8,-7,-3,13,-62,-128,16,-19,3
24.019224,11,1,1,2,-25,65,20,77,3
24.019242,9,7,2,8,33,40,-13,-13,3
24.040876,1,-11,-6,10,39,65,21,-11,3
24.040899,-19,-1,2,-17,-17,-29,23,4,3
24.041724,-17,-5,-3,19,38,-39,14,-11,3
24.041728,26,2,0,-33,-6,68,-56,-7,3
24.055882,-1,-1,0,22,9,-15,31,-13,3
24.055898,9,-2,-3,3,55,96,-57,77,3
24.056790,-8,0,1,10,-23,-12,3,-28,3
24.056850,15,4,0,-7,54,-54,-26,-20,3
24.079621,-9,-2,-1,-22,-104,-28,-18,-62,3
24.079634,-7,-2,-4,-14,22,-15,-16,-17,3
24.079636,1,6,6,13,-32,-18,-1,63,3
24.079639,9,-8,-5,-18,6,56,10,20,3
24.101140,-6,-2,-1,-1,-19,4,4,40,3
24.101156,-15,1,2,-17,-37,35,-4,36,3
24.101711,41,3,0,-17,-28,-35,47,-35,3
24.103053,-14,-6,2,16,-8,-19,-13,13,3
24.115934,21,-5,-6,-14,-55,68,36,-6,3
24.115957,-17,0,-1,2,2,27,6,-56,3
24.116650,-15,-1,3,6,38,29,14,85,3
24.116667,-1,-2,-4,-15,-38,13,31,-74,3
24.138324,19,2,0,1,-25,-62,-71,-4,3
24.138347,-11,-1,-4,-21,11,79,-18,9,3
24.139438,4,0,0,2,20,9,-18,22,3
24.139447,-4,2,1,18,51,-23,29,-3,3
24.160940,13,2,2,-1,70,-12,-3,70,3
24.160961,28,1,-1,-24,-51,-128,-8,-74,3
24.161633,-69,-13,-1,17,-31,-11,-3,-20,3
24.161648,-1,-1,1,8,-3,18,11,73,3
24.176530,6,0,-1,-3,33,-45,-7,-54,3
24.176563,1,3,-4,-12,-35,-77,23,92,3
24.178603,-12,-3,-6,-5,0,43,-7,-22,3
24.178612,-26,-9,-2,-14,-48,-22,-9,-22,3
24.198507,-2,-2,0,1,23,-1,-44,-9,3
24.198524,10,-11,-5,9,75,52,38,28,3
24.199558,13,3,0,-20,-45,-9,-5,-25,3
24.199562,-15,7,3,34,-42,-26,17,28,3
24.220865,-4,-4,-4,-47,-12,-104,-52,-46,3
24.220878,-2,-1,3,47,103,14,-21,-1,3
24.221604,-2,-3,-3,3,25,35,-16,-3,3
24.221625,16,2,3,-5,-27,-5,2,14,3
24.235882,19,0,1,-6,-51,4,28,19,3
24.235909,-59,-4,-2,-3,-12,-10,-5,-56,3
24.236557,45,1,1,1,-6,-31,23,91,3
24.236592,-64,-6,0,28,36,57,-42,-34,3
24.258494,34,4,-2,-40,-90,-9,30,103,3
24.258515,-29,-8,-4,10,26,-7,-11,-75,3
24.261258,-26,-5,-2,17,23,16,19,2,3
24.261266,19,0,-2,-26,-19,-3,-62,-12,3
24.283494,3,-1,-2,5,111,-24,8,5,3
24.283501,23,7,2,-8,-128,64,45,28,3
24.283503,-1,2,-1,-3,91,79,51,-34,3
24.283505,3,-3,-1,6,12,48,53,6,3
24.295531,-23,0,-2,19,6,-14,-6,-10,3
24.295565,39,5,4,6,10,-6,9,0,3
24.303534,-20,-5,-8,-40,-49,-53,-41,2,3
24.303550,-18,3,2,10,26,19,-1,-14,3
24.318478,34,-3,0,26,-7,-57,23,45,3
24.318501,-40,-3,-4,-10,0,35,-38,-83,3
24.319356,4,-6,0,-15,49,-10,-10,9,3
24.319378,18,0,-2,-1,-42,-49,-23,26,3
24.341163,3,1,2,-3,-13,1,1,-19,3
24.341179,12,-1,1,-2,-65,-21,-11,37,3
24.343805,-15,-4,-6,3,24,-45,-21,-27,3
24.343822,22,2,0,-9,11,39,-4,-22,3
24.355245,-21,2,4,26,22,-7,-20,-7,3
24.356601,27,0,-3,-28,-59,-48,10,18,3
24.363831,12,0,3,51,30,50,-17,-29,3
24.363868,-12,1,-1,-6,25,-30,75,42,3
24.378658,-16,-6,-4,-8,-27,40,3,-66,3
24.378700,-18,-4,-1,-5,24,-3,-32,69,3
24.379506,-6,0,2,-2,-51,-125,-25,-39,3
24.379531,16,2,-2,-15,72,69,-9,25,3
24.401058,-5,7,5,24,50,32,9,-76,3
24.403450,-11,1,-4,11,3,24,25,58,3
24.403456,-11,-4,0,-6,-33,-14,1,-37,3
24.403458,27,-2,-2,8,2,-19,-7,7,3
24.415358,-17,0,-3,-22,-1,23,-11,-13,3
24.415381,2,-1,-6,-33,11,-42,2,28,3
24.423948,49,3,-1,11,-76,77,-71,3,3
24.423953,-32,-4,0,11,14,25,26,21,3
24.439634,-12,-2,0,1,-16,1,-24,-2,3
24.439639,3,-1,2,2,17,-15,7,-19,3
24.439641,41,4,-2,-13,15,3,15,-36,3
24.439643,-18,-6,-5,-15,15,-13,-12,-21,3
24.460965,-16,-5,-2,2,19,32,40,-50,3
24.460985,46,10,1,-4,-61,-58,-20,13,3
24.462385,-22,-5,-1,1,57,19,14,39,3
24.462396,7,0,0,-3,-27,-4,-8,-19,3
24.475405,-22,-1,1,-7,57,17,13,46,3
24.475421,-10,-4,-1,19,93,8,-8,-86,3
24.484651,-5,3,-1,18,-41,-6,25,2,3
24.484656,20,-2,-3,-11,-54,-80,-70,14,3
24.500334,38,4,-4,-32,-33,19,3,-9,3
24.500345,-30,-6,4,19,12,46,12,-78,3
24.500347,-66,-3,0,-10,35,14,1,41,3
24.500349,-7,-1,-1,4,25,15,16,-21,3
24.521218,17,-2,-3,-6,6,-16,-7,16,3
24.521240,9,-2,-5,-24,-12,18,-4,56,3
24.522950,0,3,0,-1,-54,2,6,-15,3
24.522955,-7,-2,-1,-19,-23,59,11,-40,3
24.535684,-5,-1,-3,10,-52,46,-28,-3,3
24.535713,5,-2,-5,-20,-22,-1,10,31,3
24.543718,50,7,2,-2,-2,14,38,54,3
24.543740,-12,-1,0,6,-29,-23,12,2,3
24.558716,4,-8,-4,-15,-6,-13,16,17,3
24.558740,-24,-2,2,24,1,-20,9,-28,3
24.561327,6,0,-1,-21,-49,-2,-21,-3,3
24.561419,16,5,0,18,-19,7,12,-14,3
24.581121,-19,-1,-2,4,3,64,-40,-59,3
24.581196,8,3,3,0,29,3,4,18,3
24.581664,18,-4,-2,-23,48,69,-22,-38,3
24.581684,-71,-6,-1,9,-9,-28,10,-9,3
24.595228,-20,-5,-4,-14,36,19,16,0,3
24.595246,35,4,4,69,-64,-14,-4,11,3
24.603719,-18,1,-2,-9,-35,-76,-15,25,3
24.604952,22,-2,0,-3,35,24,10,-53,3
24.618560,-20,2,4,19,-10,-25,-6,11,3
24.618582,3,-2,-3,-19,38,29,-14,17,3
24.620498,28,2,1,8,52,-32,27,15,3
24.620506,-7,-5,-5,-15,-56,-38,6,47,3
24.641115,-16,-3,-2,4,-18,-38,-9,-54,3
24.641137,-7,-4,1,-10,27,14,-6,-1,3
24.644091,-3,-4,0,6,21,-43,42,-11,3
24.644099,-5,-1,-3,-14,-10,-44,6,73,3
24.664250,37,2,3,43,26,16,4,111,3
24.664268,-9,-5,-2,-5,-21,-21,11,-71,3
24.666394,-26,-5,-7,-16,26,93,-10,-3,3
24.666399,21,6,3,23,12,-57,-13,11,3
24.678507,-6,-3,0,-5,-41,53,25,4,3
24.678528,6,-2,-3,-9,-18,21,21,7,3
24.680218,3,-1,1,22,-78,-56,-47,27,3
24.680230,-10,-4,-5,-41,127,20,-30,-59,3
24.701301,5,-3,-2,1,-17,-11,1,-14,3
24.701306,-11,1,-2,-2,-40,1,-2,22,3
24.701555,21,8,7,8,21,-25,-1,25,3
24.701563,6,-9,-4,-3,27,61,-91,-23,3
24.724057,-41,1,-2,-18,-28,18,2,-15,3
24.724080,36,-4,-5,-21,-27,9,6,-13,3
24.727321,-40,-1,-1,-10,-25,-25,18,-82,3
24.727328,41,2,1,25,-50,10,32,-39,3
24.738461,-69,-2,1,4,39,-28,-5,-25,3
24.739715,0,-3,4,1,-3,-6,-14,13,3
24.739720,-16,-6,-7,-23,18,0,32,-41,3
24.739722,-15,-1,6,14,11,17,-40,-40,3
24.762324,40,-2,-2,18,-30,-5,-10,-39,3
24.762342,-11,5,-1,-8,-30,-20,25,7,3
24.762345,7,-6,-3,7,-25,-82,-44,-3,3
24.762348,-44,-2,-2,-20,-26,-76,-19,-42,3
24.784220,26,2,-1,-2,4,46,34,16,3
24.784245,-21,-1,2,19,-35,8,-27,-86,3
24.785300,-2,-2,-1,-27,13,30,2,57,3
24.785309,17,-3,-8,-14,-51,8,3,-13,3
24.798460,-50,-2,-1,-10,-88,-32,-68,-55,3
24.798479,23,-5,-5,-26,33,91,23,46,3
24.799407,-10,-6,-4,-9,-10,19,1,-12,3
24.799426,10,1,3,-2,4,-5,12,10,3
24.821337,25,4,2,-14,9,-39,13,30,3
24.821354,-1,6,-2,-9,7,9,21,12,3
24.823196,-9,-1,2,21,10,-32,11,26,3
24.823205,21,2,2,14,64,66,8,35,3
24.844487,-5,-5,-1,7,67,15,40,23,3
24.844513,-31,-8,-3,3,19,-78,-42,-23,3
24.844936,22,1,0,11,-36,6,9,14,3
24.844962,-9,4,0,-5,-64,-38,20,24,3
24.858311,32,0,-3,-39,-19,-13,-25,-18,3
24.858320,-21,1,3,49,107,8,-29,-11,3
24.859368,-38,4,3,62,-4,-38,23,94,3
24.859449,-4,-9,-3,-2,23,63,4,-102,3
24.881200,9,-4,-6,-28,-48,-8,13,-38,3
24.881226,7,-4,-1,10,-47,-84,-47,4,3
24.883452,-10,1,-3,-3,110,-27,0,-54,3
24.883457,-11,-6,0,2,4,-9,25,30,3
24.904123,-2,1,0,11,-14,14,24,16,3
24.904132,34,0,-1,-18,-4,9,14,47,3
24.904671,-35,1,-4,-35,17,87,-33,-64,3
24.904687,29,3,-1,-6,11,-44,37,40,3
24.918866,-3,-2,0,22,8,-15,-59,28,3
24.918872,-38,-3,0,-6,-38,-16,-25,-28,3
24.919103,24,-1,-3,12,-15,33,-24,20,3
24.919134,1,0,1,3,-98,-19,-7,18,3
24.941478,10,-2,0,6,15,30,23,30,3
24.941500,2,2,-2,-3,17,81,70,1,3
24.941504,4,-1,4,-2,-60,-11,-28,4,3
24.943928,44,0,-5,-26,-23,21,9,51,3
24.965877,-58,-1,3,19,10,-26,0,-15,3
24.965884,9,0,-4,6,-47,-7,3,25,3
24.965886,-8,-5,-6,-62,45,98,13,-6,3
24.965888,-16,4,4,6,40,-70,2,28,3
24.978479,21,0,0,10,82,69,36,28,3
24.978511,-27,-4,-3,-18,23,-55,-3,-19,3
24.981054,18,1,0,4,-19,6,29,30,3
24.981065,2,6,2,17,-21,-26,-22,-61,3
25.000848,24,-4,-5,-15,10,-4,1,47,3
25.000867,7,-2,-1,-3,-3,-14,41,42,3
25.001592,4,-4,-2,0,-55,-57,-75,-80,3
25.001645,10,-3,-5,-23,47,8,54,90,3
25.024045,-5,0,0,2,-44,-32,1,-79,3
25.024061,7,1,1,17,104,-36,14,22,3
25.024904,13,-2,1,10,-21,-48,-27,-9,3
25.024908,4,4,1,-2,90,76,11,-1,3
25.038478,-51,-4,-2,-16,-24,22,-22,-51,3
25.038501,22,5,4,-6,14,-5,11,23,3
25.039374,29,-5,-4,16,-45,46,40,-20,3
25.039378,-38,-6,-4,-21,-10,-77,-86,3,3
27.063539,16,7,3,-1,-1,1,2,1,0
27.063976,1,3,-1,1,-1,-2,-2,-3,0
27.073346,12,3,-2,-1,-1,-1,-2,1,0
27.073394,-20,4,-1,-1,-1,1,-1,-1,0
27.086834,-1,-5,-2,-2,0,-3,-3,-3,0
27.089126,-24,-5,-1,-1,0,-2,1,-1,0
27.089132,44,19,2,1,2,0,-1,1,0
27.089134,-44,-20,-6,-3,-4,-1,0,-1,0
27.109808,-17,-3,1,-2,0,-2,-2,-6,0
27.109844,2,-3,-2,-2,-4,-3,-1,-4,0
27.110921,-1,-1,-1,-1,-1,-1,-2,0,0
27.110941,31,14,4,-1,0,-1,-1,2,0
27.131948,-4,-3,-1,-2,-4,-2,-1,0,0
27.131966,-3,-1,-3,0,1,-1,-2,-2,0
27.133304,-15,-9,-2,1,-3,-1,0,-4,0
27.133309,10,-19,-2,-4,-7,-2,-2,-4,0
27.146913,0,-5,-2,0,1,0,-1,1,0
27.146957,-13,6,0,-1,0,-1,-2,-3,0
27.148628,-6,-9,-1,-2,-2,1,-1,-3,0
27.148635,7,24,5,1,-1,-2,-1,-1,0
27.169191,-1,0,-5,-4,-6,-3,-1,1,0
27.169235,0,-8,-1,-4,-8,-2,-2,-2,0
27.170604,-6,3,-4,1,-2,-3,-2,-1,0
27.170618,2,-4,-2,-2,-4,-1,-2,-1,0
27.183934,12,7,4,-3,1,-1,0,0,0
27.183940,14,5,2,3,2,-1,-2,-1,0
27.193778,-4,5,-1,-3,-2,0,0,-1,0
27.193788,-7,-14,-2,-1,3,-1,0,0,0
27.206535,14,2,-3,1,-1,1,0,1,0
27.206557,-11,-7,-2,-1,1,-1,-2,-2,0
27.208026,4,-11,0,2,0,0,-1,1,0
27.208060,-4,8,-2,-1,0,-1,0,-3,0
27.229135,-14,1,3,0,0,0,0,-1,0
27.229158,20,9,-4,-1,-3,1,-1,3,0
27.230812,-22,-7,-2,-1,0,1,1,1,0
27.230836,13,-2,-4,-4,-5,-1,-2,-3,0
27.243179,-11,1,-1,-1,0,-2,-3,-2,0
27.243210,22,-2,2,-2,16,0,-1,-4,0
27.251705,-7,5,1,1,-20,-2,-1,2,0
27.251722,-4,-3,3,1,-2,1,-1,-2,0
27.266613,-7,-1,1,1,1,-2,0,-2,0
27.266631,4,-4,-3,-3,-1,-1,0,1,0
27.268594,46,18,-2,-3,5,-2,-1,-2,0
27.268602,-81,-31,-4,0,1,-1,-1,-3,0
27.289060,0,0,0,0,-4,-1,-2,-1,0
27.289082,-42,-6,1,-1,-2,1,1,0,0
27.290513,12,6,-2,-6,-9,-2,-4,-5,0
27.290528,16,-1,-1,2,-4,-1,-2,0,0
27.302991,19,-2,-2,-1,3,-2,-2,1,0
27.303007,-10,-8,-2,-4,-4,0,0,-1,0
27.312743,-14,-2,1,2,6,-1,0,-2,0
27.312759,29,17,-2,0,3,-3,-2,-2,0
27.326662,-20,-7,-2,-1,-3,0,-1,-2,0
27.326685,30,4,-3,-1,-4,-2,-2,-1,0
27.328225,24,-3,1,-2,2,0,0,4,0
27.328248,-41,20,5,-3,0,0,0,2,0
27.349087,-40,-12,-3,0,1,-3,-1,-5,0
27.349103,2,-9,-1,2,-3,-2,-1,-2,0
27.351102,-12,-19,-4,-4,4,-1,-3,-5,0
27.351109,35,12,0,2,-2,0,1,3,0
27.363088,11,10,-3,0,-1,0,0,2,0
27.363120,-13,9,5,-1,0,-1,0,-1,0
27.373110,-1,-3,-2,-2,-2,-2,1,3,0
27.373114,3,-4,-5,-2,-1,-1,-2,-6,0
27.387185,8,18,0,0,0,-1,0,0,0
27.387192,11,-13,-2,-2,-3,0,1,2,0
27.388166,-36,-29,0,-1,1,-3,-1,-3,0
27.388212,10,3,-1,0,-2,-1,0,1,0
27.409983,-14,-7,-3,-1,0,0,-1,-2,0
27.411943,24,15,0,0,-2,-1,0,2,0
27.411952,-31,7,2,0,6,2,0,-2,0
27.411954,-1,-13,-2,-4,-9,-2,-1,-2,0
27.422978,15,-5,-1,-3,-6,0,-1,2,0
27.422999,-11,-16,-2,-2,-3,-1,-1,-1,0
27.433505,14,10,-2,2,1,-1,-2,0,0
27.433511,-4,10,-2,-3,1,-1,-1,-2,0
27.447129,5,-6,1,-1,10,0,-1,1,0
27.447152,-9,6,-2,0,-27,-2,-2,-2,0
27.449680,1,-6,-3,-2,0,-1,1,1,0
27.449686,-5,7,6,1,0,-2,-3,-3,0
27.469250,-2,3,-1,-1,-4,-2,-1,-3,0
27.469273,-3,-13,-3,-5,3,-1,-2,0,0
27.470777,0,10,0,2,3,-1,-2,-2,0
27.470799,3,-25,-3,-1,-2,-2,-1,2,0
27.492284,8,13,0,3,-1,0,-1,1,0
27.492323,-1,-23,-3,-6,23,-2,-2,-3,0
27.494385,-18,3,0,4,-42,-3,-2,-3,0
27.494391,10,4,-1,-2,-1,0,1,0,0
27.506582,-10,-6,0,0,-1,-1,-1,-3,0
27.506598,8,5,-5,-2,-3,-2,0,1,0
27.507988,41,3,-1,-2,10,0,-2,1,0
27.507996,-84,-8,-3,-3,2,-2,0,1,0
27.529385,-9,-12,-2,-2,-4,-3,-2,-4,0
27.529392,20,11,2,3,1,-1,-1,2,0
27.530968,3,-3,-2,-1,7,0,-2,-3,0
27.531019,15,-2,-1,1,-3,0,-1,-1,0
27.551653,0,-7,-3,0,3,0,-3,-1,0
27.551677,-18,3,-1,0,0,-2,-1,0,0
27.553683,12,2,1,-6,3,0,0,2,0
27.553688,3,0,-4,3,1,1,-2,-2,0
27.566025,-9,-9,-4,-2,-4,-2,-1,-1,0
27.566045,-3,1,0,-2,7,0,-1,-5,0
27.572839,-6,-6,-2,4,-20,-2,0,1,0
27.572919,22,17,-1,-4,0,-1,-3,-4,0
27.589807,-3,-19,1,1,0,1,-1,1,0
27.589836,-9,0,-2,3,1,0,-2,-4,0
27.592974,-4,0,-4,-6,-4,-1,1,2,0
27.592985,7,15,-1,-2,-2,0,-2,-2,0
27.611677,1,-19,-4,-1,-4,-1,-1,-3,0
27.611699,-7,8,0,-2,-4,-1,1,2,0
27.614263,-7,-5,-1,-4,9,-1,-3,-4,0
27.614268,45,9,3,3,0,-1,1,4,0
27.626946,-14,19,1,-3,-1,-2,-2,-3,0
27.626969,-4,-14,-3,-2,-3,-2,-3,0,0
27.628322,-31,-4,-1,-1,5,-1,-1,0,0
27.628345,32,-8,1,-3,-1,-2,0,0,0
27.649187,20,11,2,2,1,0,1,1,0
27.649204,-25,7,-1,0,-3,1,0,0,0
27.650644,13,8,1,0,2,-2,0,-1,0
27.650655,-7,-13,-1,-2,0,0,-1,0,0
27.671619,18,10,0,-1,0,0,-1,2,0
27.671634,-12,4,-1,0,-3,-2,-1,-2,0
27.673068,-6,-23,-5,-3,-2,-4,-1,-1,0
27.673081,-16,2,-1,0,1,-1,1,-3,0
27.686285,4,6,-3,-3,-1,-1,-1,2,0
27.686295,6,4,1,-1,-1,-1,1,0,0
27.692971,-4,1,-2,-9,-7,-2,-3,-3,0
27.693000,24,6,1,4,2,-1,-1,1,0
27.709897,-22,-12,0,-1,-2,-1,-4,-6,0
27.709927,12,-3,-2,1,-3,-1,-1,1,0
27.711251,-10,3,1,0,5,0,-1,-5,0
27.711256,10,5,-2,-1,-1,0,-2,3,0
27.731969,-3,-3,1,0,-2,0,-2,-2,0
27.731976,-13,-23,-1,-4,1,-1,0,0,0
27.733069,17,1,2,1,0,0,1,4,0
27.733084,-2,4,5,1,-4,-2,-1,0,0
27.747101,-19,7,-1,1,-1,-2,-1,2,0
27.747127,3,8,0,-2,-3,-1,-1,-2,0
27.752917,1,-3,-2,3,3,0,-1,0,0
27.752940,-9,-11,-2,0,-3,-2,-1,-5,0
27.769097,31,5,-2,-5,-2,-1,1,1,0
27.769113,16,16,4,2,0,0,-1,-2,0
27.771560,-17,-22,-4,-1,2,-1,1,-1,0
27.771566,5,-13,-5,-4,-1,-2,-3,-1,0
27.792024,-18,-12,-3,-4,-3,-1,-1,-3,0
27.792046,10,2,-2,-1,-1,-1,-2,-3,0
27.793855,11,16,3,1,2,-2,-2,-1,0
27.793863,-23,3,-2,-2,0,-2,-1,0,0
27.806321,14,-5,-1,-1,13,0,1,2,0
27.806345,14,1,-2,0,-18,-3,-1,-2,0
27.813245,-27,3,4,-5,-4,-2,-3,0,0
27.813284,0,-10,-5,3,2,2,-1,-1,0
27.829578,-7,16,1,-3,-1,-1,-2,-2,0
27.829617,-13,-17,0,2,6,0,0,0,0
27.831273,10,6,-1,0,0,-3,-2,-2,0
27.831284,-6,-18,-2,-2,-4,-2,-2,-2,0
27.851681,8,4,-1,0,-2,-1,2,2,0
27.851704,-12,10,5,1,0,-2,-2,3,0
27.853794,22,2,-6,-1,-3,0,-1,-6,0
27.853800,15,-5,-3,-4,1,0,-1,0,0
27.866104,-53,-5,-3,1,-4,-1,-2,-5,0
27.866122,-43,-18,0,-3,0,0,-3,-3,0
27.872676,11,17,3,2,2,-1,-1,2,0
27.872699,-20,-15,0,0,-2,-2,-2,-1,0
27.889021,25,-2,2,0,-7,-1,-1,2,0
27.889031,9,3,-3,1,0,-1,-1,-3,0
27.890547,-9,-2,-3,0,0,-1,0,0,0
27.890562,5,9,-2,-1,-1,-1,0,1,0
27.911646,8,-5,-3,-3,-2,0,-1,0,0
27.911664,6,5,-4,-2,1,0,-2,0,0
27.913392,9,7,-1,-1,0,1,0,1,0
27.913498,-31,-25,1,-2,1,-2,-1,-5,0
27.926324,41,0,1,3,-3,-2,-2,1,0
27.926355,-55,-15,-7,-4,1,-1,-2,-8,0
27.932929,-2,-7,-2,0,-2,0,0,3,0
27.932954,-5,17,1,-3,-3,-1,-1,-4,0
27.950316,1,4,-2,-1,0,0,0,-1,0
27.950323,27,3,5,3,0,-1,0,1,0
27.950590,-5,-7,-3,-1,0,-2,-1,-1,0
27.950598,-3,6,-3,-1,0,-2,-1,0,0
27.971054,-3,-3,-2,-1,-1,-2,0,-1,0
27.971084,19,7,-1,-3,-1,-3,-1,1,0
27.980367,-14,-12,0,-3,0,-1,-1,-1,0
27.980376,6,6,-1,1,-2,-1,-2,-1,0
27.985249,3,3,-3,-1,-1,1,-1,2,0
27.985268,-16,-5,-1,-1,-2,-2,-1,-3,0
27.995121,3,-9,2,-1,-2,0,0,2,0
27.995127,0,-5,-6,-3,-4,-2,-3,-5,0
28.009842,24,-1,4,-1,-1,-2,-2,-4,0
28.009880,8,9,-2,-3,1,0,-1,0,0
28.012188,-11,10,0,2,1,-2,-1,-2,0
28.012201,-1,-3,2,-1,1,1,0,5,0
28.031765,-10,-5,-3,-2,0,0,-1,-6,0
28.031782,9,-6,-3,-2,2,0,-2,-2,0
28.033104,-11,-6,0,-10,-14,-3,-3,-5,0
28.033120,-5,11,-1,2,-2,-1,-1,-1,0
28.045471,11,7,-1,-2,0,-2,0,-1,0
28.045483,1,-5,0,-2,-2,0,0,2,0
28.054859,0,-2,-2,2,4,-1,0,1,0
28.054864,-1,7,1,-1,-1,-1,-1,-1,0
28.069678,-5,-10,0,-2,-3,-1,-2,-1,0
28.069702,20,-1,-3,-2,-2,0,-2,-5,0
28.071021,-11,18,0,1,-1,-1,-3,-4,0
28.071071,-9,-40,-4,-4,-1,-1,0,0,0
28.093109,-17,-4,0,3,1,-1,0,-2,0
28.093128,11,6,2,2,0,-1,1,2,0
28.093218,13,-2,-2,1,0,1,0,-1,0
28.093253,8,13,-1,1,-1,0,1,0,0
28.105541,-12,0,-2,-5,-1,-3,-2,-2,0
28.105563,1,-1,-2,-1,-2,0,1,2,0
28.115193,-2,-3,-3,-1,-3,-1,-3,-3,0
28.115198,26,8,1,0,0,-2,0,-1,0
28.129519,-58,-6,0,-1,-1,-1,-1,-4,0
28.129566,-21,-3,-5,0,-2,-1,0,-1,0
28.130656,-24,-26,-1,1,1,-1,-1,1,0
28.130664,0,-3,-1,-3,-2,-2,-2,-2,0
28.151712,26,11,-2,-1,-1,-1,-1,1,0
28.151733,12,6,2,1,-1,-2,0,-1,0
28.153358,0,-2,-3,-3,4,-2,1,-1,0
28.153364,2,10,1,0,-4,-1,0,1,0
28.165529,-1,2,-2,0,0,-1,-1,0,0
28.165546,-1,16,-1,-4,-1,-1,-2,-2,0
28.175529,0,-60,-4,-2,-1,-2,-2,-2,0
28.175538,-4,9,1,1,0,0,-1,-3,0
28.189217,-3,-6,-2,-1,-2,-2,0,-4,0
28.190053,-5,4,-1,0,-1,-2,0,0,0
28.190504,10,22,-1,1,-1,0,0,-1,0
28.190511,3,-1,0,-2,0,-2,0,1,0
28.211666,-11,-5,0,0,-2,1,0,1,0
28.211730,9,-4,-3,-4,0,-3,-1,-1,0
28.213524,20,20,1,-1,-3,-1,1,5,0
28.213529,5,-4,1,1,1,-1,-2,-4,0
28.225869,-62,-7,-2,-3,-1,-2,-3,-2,0
28.225900,6,-30,-4,-2,-2,-1,-4,-5,0
28.234926,-2,3,-2,-2,0,-1,-1,-2,0
28.234932,5,11,-2,-1,-1,0,-1,1,0
28.249165,26,11,-1,0,0,1,-1,0,0
28.249185,-9,-9,0,0,-1,-1,-1,0,0
28.250570,16,8,-1,0,7,0,0,1,0
28.250586,-21,7,0,5,-5,0,-1,-2,0
28.271759,12,-15,-2,-2,-3,-4,-2,1,0
28.271782,-14,-6,1,-2,-3,-2,-2,-1,0
28.273338,8,6,-2,-1,0,-2,0,-6,0
28.273347,1,0,-1,-1,3,-1,0,2,0
28.285443,7,8,2,0,1,1,0,1,0
28.285459,4,14,-2,-1,-3,-2,-1,1,0
28.295934,-8,-23,-3,-2,-2,-2,-2,1,0
28.295940,-3,-3,-4,-6,-2,-1,-1,-2,0
28.311911,4,-2,0,0,-2,0,-1,-2,0
28.311920,31,21,3,-1,0,1,0,0,0
28.311923,-25,-9,-1,3,1,1,0,2,0
28.311925,4,-17,-4,-5,-2,-1,0,2,0
28.331854,4,-3,-3,-1,-2,-2,-1,-5,0
28.331958,14,3,3,-2,0,0,0,-3,0
28.333179,5,17,3,1,-2,-1,-1,-2,0
28.333198,-6,1,1,-2,1,-1,-2,2,0
28.345342,9,-3,-2,-1,-2,-2,0,3,0
28.345360,5,3,0,0,-1,-1,1,-1,0
28.354961,-6,-1,-1,-1,-5,-1,-2,-2,0
28.354969,-6,-5,-1,-2,-1,-2,-2,-1,0
28.369275,17,16,2,0,0,-1,1,1,0
28.369305,-31,-32,-3,-1,0,-1,-2,0,0
28.371309,-3,4,0,-4,-3,-1,1,-4,0
28.371313,0,2,0,4,1,0,-2,-4,0
28.391681,1,-2,-1,-3,-3,0,-3,-1,0
28.391696,-12,4,-1,2,1,0,0,-1,0
28.393324,-1,-2,1,-1,-1,-1,-1,1,0
28.393351,6,6,0,-1,-2,-1,-1,0,0
28.405353,1,-2,-6,0,8,1,-1,-2,0
28.405368,-5,-2,1,1,-4,0,0,0,0
28.415332,24,8,-3,-4,-2,-2,-1,-2,0
28.415344,16,-11,2,0,-1,0,0,3,0
28.429184,-15,-7,0,0,0,-2,-1,-5,0
28.429212,-15,6,0,-2,1,-1,-2,-1,0
28.431316,-2,-18,-4,-2,0,-1,-1,-2,0
28.431324,12,10,1,0,0,0,-1,-1,0
28.451830,24,4,0,-3,-3,-1,1,2,0
28.451839,-20,-4,0,-1,0,-1,-2,1,0
28.453254,15,9,3,-1,-3,1,-1,4,0
28.453277,-21,-10,-6,-4,-3,-3,-3,-15,0
28.474077,-11,-3,-1,-1,-2,0,-2,-1,0
28.474099,11,10,0,3,1,-1,0,-1,0
28.475658,-10,-15,-2,0,1,-2,-2,-3,0
28.475682,-17,-5,0,-3,0,-2,-1,0,0
28.489125,-13,0,-1,-1,-4,0,-1,0,0
28.489140,31,7,0,-5,-2,-2,-1,-1,0
28.490679,16,16,2,1,-2,0,0,2,0
28.490696,-26,-23,-3,-2,-1,-1,-1,-1,0
28.511391,13,-8,-2,-3,-3,-3,-2,-1,0
28.511412,-12,-7,-1,-2,1,-1,0,0,0
28.518292,19,13,-1,0,-2,-2,-2,0,0
28.518309,-2,1,1,-1,-3,0,0,-1,0
28.534187,-10,-4,-3,1,0,0,-2,0,0
28.534210,3,-6,0,-2,-2,0,-2,1,0
28.535681,-13,1,-3,-3,-2,-2,-2,-6,0
28.535742,9,2,-4,-3,-2,-1,0,1,0
28.549115,-1,8,2,1,-5,-1,-2,2,0
28.549132,-17,-32,-7,-2,-1,-1,0,-4,0
28.550592,-8,5,-1,-2,-3,-1,-2,-3,0
28.550608,-4,4,-2,-2,1,0,-1,3,0
28.572547,10,-3,-2,-2,0,-1,-1,-2,0
28.572569,4,-5,0,0,-2,0,0,1,0
28.574032,-4,-2,0,1,1,-1,0,0,0
28.574079,5,-3,-1,-1,-1,-2,-2,-3,0
28.594605,4,9,2,-1,1,1,0,1,0
28.594634,-63,-3,-2,1,-2,-2,-4,-2,0
28.597063,-6,-12,0,-4,-1,-2,-1,-2,0
28.597071,-1,5,2,1,-1,-1,-1,-2,0
28.608571,-1,12,-2,-2,-2,-2,-2,-6,0
28.608592,20,3,2,-1,0,-1,-1,0,0
28.615243,-4,-23,-7,-1,1,-1,-1,-1,0
28.615261,-18,3,1,0,-1,-1,-3,0,0
28.631744,9,-2,-2,-2,1,-2,-1,-1,0
28.631763,2,6,0,0,-3,1,-1,-2,0
28.633143,2,8,2,0,1,0,0,1,0
28.633159,11,13,4,1,1,1,1,1,0
28.654157,-30,-23,-2,-2,-1,-1,-2,-1,0
28.654178,7,-1,-2,-2,-1,-2,0,-1,0
28.655489,-17,-17,-4,-1,-4,-1,-1,-6,0
28.655508,-2,-1,-3,-5,-1,0,1,-1,0
28.668460,3,7,5,3,-1,0,-1,-1,0
28.668470,4,-7,-3,-1,-1,-1,0,-1,0
28.675354,-1,7,2,0,0,-1,-1,2,0
28.675379,-1,-4,-2,-1,-3,-1,-1,-3,0
28.692277,20,-2,-3,-1,6,-1,-1,-4,0
28.692307,1,10,0,2,-3,0,-1,3,0
28.694715,3,-4,-2,-2,-1,-3,-4,-7,0
28.694726,2,-7,-1,0,-3,-1,-1,1,0
28.715615,-12,1,-1,-2,0,0,0,0,0
28.715620,25,-6,1,-3,1,-2,-1,1,0
28.715713,-7,4,-2,-1,-2,-1,0,1,0
28.715719,-7,1,1,3,2,0,0,1,0
28.728493,9,-4,-2,-1,-3,-2,0,-1,0
28.728517,-5,9,-1,-1,2,-1,-1,1,0
28.735469,18,-6,5,1,-3,-2,-1,-2,0
28.735486,-1,9,1,-4,-2,-3,-2,-5,0
28.751741,4,16,0,0,-4,-2,-1,1,0
28.751761,-14,-25,-1,1,-1,1,-1,-3,0
28.753270,-6,6,0,0,1,0,-2,-3,0
28.753292,-2,-6,-3,1,-1,-1,1,-1,0
28.774137,-5,-5,-2,0,-3,-2,-2,-3,0
28.774158,2,9,-2,-3,-1,-1,0,0,0
28.777429,-2,-2,-1,-1,0,-1,1,3,0
28.777442,27,2,-1,-1,-1,-1,-1,2,0
28.788453,-36,-8,-3,0,-3,0,-1,-2,0
28.788471,17,3,-2,0,0,-1,-1,-4,0
28.795250,-1,0,0,0,0,1,1,2,0
28.795269,-12,18,-2,-2,-2,-2,-1,-1,0
28.811706,-5,-26,1,-2,1,0,-1,0,0
28.811754,0,-1,-3,-2,-1,-2,-2,1,0
28.813566,16,-1,-1,-1,-2,0,-1,-3,0
28.813606,-9,6,1,-1,-1,0,-2,-1,0
28.834409,-12,1,-6,0,-1,0,1,1,0
28.834432,32,6,1,0,-2,-1,0,1,0
28.836108,18,3,0,-2,0,-1,-1,0,0
28.836117,-61,-11,-1,0,1,-1,0,0,0
28.848052,-6,-24,-2,-2,-2,-3,-1,-3,0
28.848079,-7,3,0,-4,-1,-1,0,-3,0
28.857238,-11,8,1,3,0,-1,1,2,0
28.857242,7,-5,-2,-3,9,0,-1,-2,0
28.873123,35,10,-1,3,-4,-1,-2,3,0
28.873130,-65,-1,-1,0,0,1,0,-3,0
28.873175,10,7,1,-2,-1,-2,-3,0,0
28.873196,14,-4,0,0,-1,1,-1,0,0
28.894303,-15,-10,0,-1,2,1,-1,2,0
28.894326,17,16,-1,-2,-2,-3,-2,-7,0
28.896261,-21,-14,-1,-2,0,0,-2,0,0
28.896269,20,-14,-5,-1,-4,-2,0,1,0
28.908615,-13,12,5,-2,-1,-3,0,-2,0
28.908638,8,1,0,-1,-2,-1,-1,1,0
28.915365,-14,0,0,-1,-1,0,0,-2,0
28.915385,22,5,-2,-1,-3,-2,-3,0,0
28.931702,-6,-5,0,-3,-2,-1,0,-1,0
28.931721,0,-5,-2,-2,0,-3,-3,-2,0
28.933730,-9,2,-2,-1,-1,-2,-2,-2,0
28.933738,8,-2,-1,-1,-1,-1,0,0,0
28.954572,20,9,-3,0,-1,-1,-2,-1,0
28.954593,-1,-17,-3,-1,0,-1,1,0,0
28.956196,-1,3,0,1,-1,-2,1,-2,0
28.956202,-7,-4,1,-1,-3,-1,0,-1,0
28.967705,-5,4,-1,-1,0,-1,0,2,0
28.967721,10,1,-1,0,0,1,-2,-3,0
28.977884,-6,-1,-1,-3,-1,-1,-2,0,0
28.977889,35,6,0,0,-1,-2,-2,-2,0
28.991786,-52,-14,0,-1,0,0,0,-1,0
28.991803,-10,-9,-1,-1,-1,-1,-2,-1,0
28.993971,-3,1,-4,0,0,-1,0,-1,0
28.993978,-26,-16,2,-2,-3,-2,-4,-4,0
29.014352,34,6,-4,-3,-2,-1,-4,-4,0
29.014385,13,4,2,0,4,0,0,2,0
29.015633,-22,1,1,0,-4,-1,-2,-3,0
29.015652,15,6,-1,-1,-1,0,0,1,0
29.030059,16,1,0,-1,-2,-3,0,0,0
29.030084,-12,3,-1,-2,-1,0,0,-2,0
29.037983,-6,-7,-3,0,1,0,-2,1,0
29.037987,-11,-2,-1,0,1,-3,-1,0,0
29.051753,2,0,-1,1,1,-1,0,-1,0
29.051776,-4,3,-2,-2,-4,0,0,3,0
29.054426,21,14,1,0,-2,-2,1,3,0
29.054438,-7,-6,1,-3,-3,-1,-2,-5,0
29.076942,-29,-21,-4,1,1,-1,-1,-4,0
29.076959,37,4,1,3,0,-1,-1,0,0
29.076964,-14,-3,-6,-5,-4,-1,0,-3,0
29.077043,-26,1,0,-1,-2,-1,-1,-4,0
29.088075,19,7,2,-2,-2,0,0,-2,0
29.089624,3,-3,0,0,-2,-1,-1,1,0
29.098315,8,-2,-3,-3,1,0,0,-1,0
29.098326,1,8,0,2,-1,-1,1,2,0
29.111704,15,7,0,-1,-2,0,-2,2,0
29.111731,-26,-13,-3,1,-3,-1,-1,2,0
29.113500,-10,-10,3,-1,1,-1,-2,-3,0
29.113526,4,-12,-5,-5,-4,-2,-1,-4,0
29.134227,15,8,-2,-1,-3,-1,-1,-1,0
29.136114,-9,5,0,-1,-2,-1,2,0,0
29.136126,6,2,-1,-1,-1,-2,0,2,0
29.136128,26,1,-1,0,0,0,0,0,0
29.147945,-56,5,2,-4,-2,0,-1,-3,0
29.147963,5,-9,0,0,0,-2,-2,-6,0
29.157751,7,-1,-1,1,0,-1,0,1,0
29.157759,-15,-3,-1,-1,0,0,0,-1,0
29.170964,10,2,-2,-1,-1,0,0,2,0
29.170980,-2,5,0,-2,0,0,-1,1,0
29.177827,-6,8,2,0,-1,0,-2,-4,0
29.177846,7,-27,-6,-1,-2,-1,-2,3,0
29.194143,6,2,-1,-1,0,0,-2,0,0
29.194165,-13,-7,-4,-1,-1,-1,-3,-5,0
29.195995,27,-2,2,-2,0,-1,-1,0,0
29.196025,-16,16,-3,-4,-1,-3,0,1,0
29.208124,-3,-5,-1,-1,-3,0,0,-4,0
29.208157,12,-10,-1,-3,-2,-1,-3,-3,0
29.216714,-11,0,-4,2,0,0,-1,1,0
29.217796,-5,0,-1,-1,-2,-1,0,-2,0
29.231815,10,1,0,-1,-2,-2,-2,-1,0
29.231833,-3,11,1,1,-3,-1,-1,-2,0
29.233169,29,4,1,-4,-2,-1,0,1,0
29.233186,-55,-15,1,1,-1,0,-2,-2,0
29.254222,-26,-11,0,0,-1,0,-1,-4,0
29.254246,-5,-6,-1,-2,-1,-2,-1,2,0
29.255578,0,3,0,-5,-2,-1,-1,0,0
29.255590,19,-9,-3,2,-1,-1,-3,-2,0
29.267801,12,8,0,1,0,-2,-2,1,0
29.267824,-11,-2,-2,-2,0,-1,-3,-7,0
29.278127,-16,0,-4,0,-1,-1,-1,-1,0
29.278134,13,12,0,-5,0,-1,0,3,0
29.294856,-1,-9,-1,-2,-2,0,-2,-2,0
29.294863,17,9,-4,-2,5,-2,0,5,0
29.297939,-8,-8,4,1,-2,-1,-1,-4,0
29.297956,2,6,0,2,-1,0,1,1,0
29.314391,9,1,1,-2,-1,-1,-1,-1,0
29.314409,0,8,-1,1,0,-1,-1,-1,0
29.315652,-23,-25,-1,-2,-1,-2,-1,-3,0
29.315669,0,-3,-2,-2,-1,-2,-1,1,0
29.327672,9,4,-3,-2,0,-3,-1,-2,0
29.327689,-2,4,1,-4,-3,-1,0,0,0
29.337928,-4,2,1,1,0,-2,0,2,0
29.337939,33,8,0,1,-1,0,-1,0,0
29.351580,-42,-10,-2,-1,-1,-3,-1,-2,0
29.351597,-9,4,1,0,-4,0,-2,1,0
29.353965,4,-9,-5,-1,-1,0,1,1,0
29.353971,11,-16,2,-1,-1,1,-1,-1,0
29.374127,11,3,-2,-1,-1,0,-1,1,0
29.374151,12,-4,-1,2,-1,1,-1,-2,0
29.375673,-9,14,-1,-3,-1,-1,-3,-3,0
29.375696,-16,5,-1,0,-2,-2,-2,-2,0
29.397165,40,-4,2,1,1,-1,1,3,0
29.397194,-25,-5,-4,-3,-4,-2,-4,-7,0
29.398369,12,-1,-1,-1,-1,0,0,-1,0
29.398375,-4,3,-6,-1,-1,0,-1,0,0
29.411586,0,9,3,-1,-1,-1,0,0,0
29.411604,4,-11,-1,-2,0,-2,-1,-1,0
29.413175,12,-1,-3,1,-2,-1,0,-1,0
29.413190,-15,1,4,1,-1,1,0,1,0
29.434238,-6,-3,-3,-2,-4,-2,-2,-2,0
29.434262,-53,-5,1,-1,-1,-1,0,-3,0
29.435674,2,-3,1,-1,-1,-1,-1,-2,0
29.435691,14,3,-4,-3,0,0,-1,1,0
29.456764,20,6,1,0,-1,-2,-1,1,0
29.456790,5,-4,-2,-2,0,-1,0,-2,0
