timestamp,emg1,emg2,emg3,emg4,emg5,emg6,emg7,emg8,label
2.009827,-5,-4,2,22,0,63,45,-83,3
2.010239,-23,1,3,12,-32,-53,-62,-44,3
2.011467,-7,0,2,2,-64,-44,11,-1,3
2.011471,-5,-2,-4,-17,75,2,-12,-20,3
2.033221,11,2,-1,6,52,-17,-9,45,3
2.033256,-3,-6,-8,31,63,-11,39,-33,3
2.034820,7,-5,-2,-14,-22,-26,48,-59,3
2.034832,-47,-10,-4,0,-32,31,-35,-36,3
2.046667,-34,-5,-1,6,19,101,57,31,3
2.046700,38,1,-2,-25,17,27,-4,33,3
2.054751,6,11,0,-5,-23,4,-43,27,3
2.054770,15,1,2,3,-1,43,12,5,3
2.069741,-8,-11,-9,-14,90,-20,-13,-40,3
2.069776,-10,2,1,-11,-103,0,37,-30,3
2.070831,5,2,2,8,16,-63,20,40,3
2.070835,1,5,2,-17,72,75,64,15,3
2.092925,0,-4,3,6,36,43,-30,-47,3
2.092946,12,1,-1,1,-10,37,-32,-56,3
2.093661,-17,4,4,18,-36,-12,12,5,3
2.093720,-17,-6,-5,-10,-1,55,52,-47,3
2.106616,-21,-9,-4,-3,-34,-31,-61,23,3
2.106635,14,5,-5,-4,71,-27,-29,45,3
2.114768,-26,-14,-8,-33,-56,15,4,0,3
2.114791,3,5,9,38,66,23,-88,-20,3
2.129821,27,10,3,-21,-27,-2,35,57,3
2.129844,-11,6,3,-1,-48,-13,28,-21,3
2.131244,16,-6,-1,-5,39,-27,20,36,3
2.131253,6,5,-1,-1,-32,-67,19,39,3
2.153421,-47,-11,-3,8,18,-15,24,-23,3
2.153427,22,2,-1,-15,-51,-51,-37,27,3
2.153685,-1,8,3,7,22,-3,71,-30,3
2.153729,-7,-8,-1,-3,-46,-84,-47,26,3
2.168253,9,5,1,-1,11,54,-17,19,3
2.168259,-34,-3,-1,8,-127,-57,42,-62,3
2.174782,6,5,2,22,-47,63,-20,33,3
2.174804,-14,-15,-8,-4,-47,-13,55,4,3
2.189710,17,6,2,4,67,36,31,52,3
2.189727,-10,-4,3,40,16,63,31,48,3
2.190984,14,-1,0,1,80,3,-69,5,3
2.190989,8,0,-3,-38,-33,26,-17,7,3
2.213166,-8,3,1,19,-76,-90,10,-50,3
2.213183,2,-5,-3,-24,-19,-32,-3,55,3
2.214752,0,0,-2,-7,-43,41,57,7,3
2.214757,28,8,-4,7,81,61,2,-24,3
2.226537,2,-6,-2,-12,63,9,57,18,3
2.226557,16,3,2,-7,74,67,-61,31,3
2.235029,-5,-1,1,5,41,-48,-38,-42,3
2.235057,19,3,4,2,3,-31,-12,86,3
2.250105,4,-4,-6,52,-20,-34,-72,-79,3
2.250130,-11,0,2,-15,2,-17,1,12,3
2.250889,-5,-2,0,18,42,2,19,-20,3
2.250923,8,4,-1,0,16,4,-58,-61,3
2.280521,-11,-8,-7,-27,30,37,11,13,3
2.280550,-7,-4,2,10,27,0,34,17,3
2.281188,1,8,3,-12,13,-52,-52,13,3
2.281204,-28,-8,1,12,-21,16,111,2,3
2.295316,20,14,6,12,1,33,-17,24,3
2.295347,-35,-15,-7,-6,-32,2,-42,-116,3
2.296187,-7,-3,-1,21,-86,38,63,11,3
2.296259,-2,1,1,14,31,-45,-74,39,3
2.310367,12,6,2,-18,1,21,49,-46,3
2.310373,0,-3,0,9,55,88,45,10,3
2.310374,28,6,2,-15,80,5,-41,33,3
2.310412,-10,0,-1,-3,-91,32,-3,5,3
2.333194,-15,-9,2,17,-40,-12,-39,9,3
2.333241,3,11,0,-18,-40,9,-17,8,3
2.334802,11,-7,-7,-11,-4,39,36,-60,3
2.334809,9,-5,-4,9,60,72,-35,-23,3
2.357473,6,-6,-3,-36,67,-97,-7,-24,3
2.357478,3,6,3,-5,16,-83,-23,68,3
2.357480,-42,-3,-1,-27,50,-28,61,-33,3
2.357482,-45,-7,-1,4,-61,-41,52,-41,3
2.369728,13,-6,-5,-15,-67,-21,11,-26,3
2.369749,-20,-8,-2,29,2,-14,-41,1,3
2.371152,17,-1,-4,-15,-121,-67,-69,8,3
2.371156,1,-1,2,7,12,-40,-24,-1,3
2.392979,-2,1,1,1,-11,-7,17,7,3
2.393004,12,-3,-3,-29,-65,-16,31,-15,3
2.394629,-18,3,-2,-11,63,21,34,99,3
2.394644,5,0,2,29,-128,-121,46,18,3
2.415402,6,-4,4,19,9,83,-7,36,3
2.415450,39,9,-1,-1,-34,10,64,14,3
2.416504,-7,-14,-3,2,26,33,3,-26,3
2.416509,7,0,-3,-24,16,-34,-63,9,3
2.429766,-2,0,-6,-32,-107,-4,3,5,3
2.429790,-40,3,3,-15,-55,0,45,-9,3
2.431592,2,1,4,31,39,79,-24,-15,3
2.431599,-5,0,3,-4,-2,-3,71,3,3
2.452989,33,6,1,16,14,-12,-5,89,3
2.453010,11,-13,-11,-22,-20,-14,-65,-9,3
2.453740,-24,5,3,4,22,-56,37,-21,3
2.453800,-13,-3,-9,-9,-14,112,-47,-92,3
2.475407,17,-5,4,6,-1,-3,-30,53,3
2.475424,-18,-3,-3,38,-7,76,41,25,3
2.476445,10,-6,-4,-2,-65,-9,36,-57,3
2.476449,22,10,1,4,63,26,22,49,3
2.489749,-22,-6,-4,-3,-18,-9,-6,-13,3
2.489771,16,3,1,-29,23,-20,-2,-14,3
2.491339,-20,-5,0,60,-52,64,-85,-33,3
2.491344,8,2,2,1,61,-17,41,26,3
2.512963,-30,0,0,-1,-39,-57,43,19,3
2.513319,10,3,0,1,43,21,25,-29,3
2.514920,7,0,-3,-23,-5,-8,-30,24,3
2.514924,-16,-5,1,-6,1,72,64,-30,3
2.535369,-15,-3,-2,14,15,-31,5,33,3
2.535388,-7,-4,-4,3,-59,-68,-24,17,3
2.536253,3,2,-6,-24,25,-98,6,3,3
2.536275,15,7,4,4,-51,90,0,5,3
2.550146,7,0,0,-7,-16,13,-71,-51,3
2.550170,-9,4,3,19,9,8,-13,6,3
2.550612,-1,-11,-6,-18,-15,98,17,-37,3
2.550629,1,3,3,-3,-120,-120,-38,19,3
2.572925,-7,-4,-3,-12,-35,-11,-14,25,3
2.572947,-2,3,5,-6,111,-53,37,-7,3
2.574887,22,8,8,44,54,13,36,-2,3
2.574894,1,-2,-5,-5,-37,-52,-32,-26,3
2.595363,-7,-1,-1,-1,-20,-22,42,8,3
2.595379,-17,0,1,18,-32,38,-26,-33,3
2.596273,25,-1,-2,-18,-37,11,29,10,3
2.596297,9,-9,-4,-10,65,7,-17,24,3
2.609901,1,4,-1,25,24,-33,-33,-46,3
2.609920,4,-2,-1,-4,-25,-7,-14,11,3
2.610589,-3,0,0,-13,76,-93,-25,20,3
2.610609,-4,2,-1,3,-60,-27,-30,-2,3
2.633276,5,0,-2,-26,82,79,59,-20,3
2.633313,-15,-15,-7,42,38,38,-37,-85,3
2.634757,15,4,2,-2,-28,-21,7,120,3
2.634762,-9,-1,-2,0,5,-58,-22,4,3
2.655428,18,9,3,-24,25,24,11,-7,3
2.655452,1,-14,-8,13,-19,14,-8,12,3
2.656131,-4,-4,-1,-10,-40,37,47,65,3
2.656182,-13,-3,-8,-46,47,-49,-76,-88,3
2.669798,-5,4,4,13,-72,35,89,5,3
2.669820,27,6,0,-15,75,-70,-23,-5,3
2.671639,6,1,1,23,67,33,8,-23,3
2.671644,-19,-10,-2,-3,20,18,34,25,3
2.692956,14,23,7,-37,9,-16,-65,18,3
2.692978,4,-16,-7,5,-68,-23,-9,31,3
2.693964,-7,2,-1,-15,-33,26,41,-20,3
2.693968,-25,0,2,16,44,20,13,42,3
2.715410,12,-3,-2,3,11,-40,-24,-82,3
2.715427,30,7,2,-7,-24,17,12,53,3
2.717038,-73,-4,-10,-66,7,-17,44,-16,3
2.717056,-2,0,1,26,60,19,12,-4,3
2.730196,-14,-3,-3,10,-49,-15,39,-8,3
2.730229,-4,-5,-3,-9,-83,-2,11,7,3
2.731850,12,-5,-1,-4,13,-17,-8,-70,3
2.731865,9,2,-2,-8,-21,32,21,13,3
2.753028,-13,0,0,4,-7,-10,-42,-17,3
2.753063,-34,-20,-14,-15,20,-21,40,-23,3
2.753653,13,9,2,5,-44,40,-2,50,3
2.753672,7,-6,-3,4,0,25,-57,17,3
2.775413,26,-5,-1,22,40,4,-37,51,3
2.775430,-3,4,1,-13,-5,-18,3,-1,3
2.776565,7,-1,-1,11,-24,-7,-37,28,3
2.776569,-10,-2,-1,-46,-34,-9,30,-47,3
2.790134,-4,-4,-3,65,-65,-68,92,24,3
2.790156,16,14,11,2,-10,-37,13,34,3
2.792171,-79,-5,-5,2,-34,48,-31,-69,3
2.792175,31,5,7,15,-33,-37,-63,-51,3
2.812893,2,-16,-13,-37,18,-61,-46,25,3
2.812914,-4,-5,-1,-4,-11,52,9,-38,3
2.813915,11,-3,3,19,12,2,-12,-55,3
2.813943,0,5,1,-5,-16,3,19,30,3
2.835513,-16,3,0,-7,15,46,-22,-6,3
2.835569,11,9,5,-1,40,-22,-12,14,3
2.836635,5,1,1,-8,-11,-59,-26,1,3
2.836640,28,1,-4,-18,67,54,42,-6,3
2.849366,-22,-18,-6,26,75,-23,2,47,3
2.849396,-2,0,-3,-18,-52,20,24,3,3
2.859379,21,-1,5,24,8,12,-34,88,3
2.859385,-4,-3,-5,-82,-85,5,17,3,3
2.876250,0,5,9,52,112,103,-93,-13,3
2.876261,-11,1,0,2,-24,79,44,-2,3
2.876265,-4,-7,-3,-1,-58,-19,-1,-7,3
2.876269,2,0,2,21,-15,-17,-1,0,3
2.895706,-5,9,6,-40,-35,-52,18,17,3
2.895733,6,2,-2,1,2,-12,-4,-14,3
2.896403,16,-4,-4,-2,20,69,-21,-31,3
2.896427,1,-3,-5,13,9,16,26,20,3
2.909265,-6,0,-1,-14,-23,-2,3,-47,3
2.909278,7,-4,-1,9,14,4,-5,-9,3
2.917789,-7,1,-3,-21,76,-47,-59,51,3
2.917831,3,-2,0,39,67,-44,55,26,3
2.934007,32,3,3,-7,-70,38,29,-17,3
2.936005,-39,-8,0,2,-51,-81,-23,28,3
2.936020,-7,5,1,-39,-7,-17,-20,11,3
2.936022,55,-3,-1,41,19,3,10,1,3
2.955460,-4,-1,-3,-4,-24,74,10,-2,3
2.955475,-1,3,0,-19,3,-32,-19,7,3
2.956163,12,3,0,14,-71,71,40,-8,3
2.956248,-65,-10,-1,8,-20,83,16,-79,3
2.969365,-1,4,-1,-8,72,34,12,67,3
2.969515,7,2,-2,-14,10,84,-36,-87,3
2.977218,2,-6,-7,4,31,89,33,16,3
2.977235,-4,3,1,1,-75,-53,-97,56,3
2.992889,-43,-6,-4,-13,-66,-46,38,-79,3
2.992912,12,2,-1,-7,-4,17,-11,17,3
2.993946,10,1,2,30,77,8,48,-15,3
2.993949,7,-2,-4,-1,73,11,-53,-52,3
3.016337,-18,-12,-6,-29,-22,-83,-49,-16,3
3.016488,14,3,0,14,4,88,19,40,3
3.016491,-2,1,0,-1,-46,-33,14,-17,3
3.016493,-11,-5,-3,-3,30,35,0,44,3
3.030057,6,3,3,7,16,-2,68,-5,3
3.032853,0,2,-4,10,-55,-104,-63,1,3
3.037206,2,-3,1,-3,85,-78,17,-52,3
3.037222,7,4,0,6,-48,-18,7,68,3
3.052935,6,-5,-2,15,-45,-25,-47,-27,3
3.052958,-4,-1,-1,-19,14,37,-18,28,3
3.053667,4,-4,3,10,6,54,30,1,3
3.053683,-8,0,-1,-9,-51,-27,17,37,3
3.076003,3,-4,-6,0,-11,17,-32,-97,3
3.076032,-8,-6,-5,-8,-36,2,6,8,3
3.078072,-2,3,1,2,-12,-45,6,51,3
3.078078,1,0,-4,-23,27,4,11,-34,3
3.089452,-6,0,3,4,25,9,16,62,3
3.089468,4,2,3,7,-10,127,72,-24,3
3.097391,5,0,-4,-5,-98,-37,9,-13,3
3.097412,-10,-5,0,8,78,47,20,-15,3
3.113671,10,9,0,-30,1,-3,-10,8,3
3.113701,-3,-5,-2,81,59,-50,12,-14,3
3.113812,-8,-7,-5,8,-28,65,-100,-20,3
3.113921,-10,0,4,16,15,-9,-5,14,3
3.135495,-9,-4,-5,-4,-64,1,41,31,3
3.135522,1,10,6,-11,127,-35,6,4,3
3.137856,13,3,-3,-13,79,-19,-38,-6,3
3.137862,-23,-10,-4,8,-61,-5,25,-34,3
3.149154,4,6,5,9,100,62,-13,21,3
3.149179,-21,-5,-5,-25,-40,-20,9,-50,3
3.157289,-5,4,4,-4,-91,-56,-5,17,3
3.157305,24,3,0,7,-3,-9,-35,31,3
3.172951,-21,-7,-3,-1,-31,66,-5,-21,3
3.172958,11,1,0,-8,32,-8,-24,26,3
3.173633,-8,-4,-3,-10,-14,-93,83,-52,3
3.173716,14,1,0,13,-44,-26,-11,-8,3
3.195435,0,-5,-5,1,6,11,3,23,3
3.195449,4,7,9,15,-85,14,47,-26,3
3.198302,16,-8,1,11,108,86,-18,16,3
3.198308,-12,-4,-4,-20,-42,-47,35,8,3
3.220534,12,-4,-5,-7,46,-71,-18,22,3
3.220540,2,-1,-1,-17,2,-24,9,20,3
3.220541,-17,0,-1,-7,-43,-17,-15,5,3
3.220543,7,7,4,1,52,37,-2,-21,3
3.233431,6,4,-5,-24,-16,21,-24,21,3
3.233474,-22,-5,1,22,35,18,-96,96,3
3.235810,11,-3,-6,-10,68,-21,36,-58,3
3.235816,3,2,0,3,50,-68,-71,-28,3
3.255561,-3,-3,1,-5,-57,51,19,-31,3
3.255584,3,-2,-2,-8,-33,5,31,-9,3
3.256445,-9,-2,-2,1,-28,13,-11,5,3
3.256466,-4,1,-2,-13,-24,4,10,12,3
3.278118,13,4,3,4,60,-11,2,5,3
3.278147,-5,3,-1,2,18,-25,4,-28,3
3.280124,6,8,6,19,-18,64,-24,-47,3
3.280133,-15,-8,-6,-19,-8,9,59,60,3
3.291556,27,9,1,19,-31,74,47,55,3
3.291573,-24,-8,0,-1,109,65,29,-85,3
3.302154,-10,3,-2,7,-57,-3,-41,55,3
3.302160,13,-11,-4,-4,2,34,14,6,3
3.315381,-9,0,0,5,-54,-96,-26,-30,3
3.315398,3,-4,-3,-9,-20,-1,20,-18,3
3.317379,-7,-1,-2,-22,-40,19,-6,7,3
3.317423,-14,4,2,1,8,24,0,-35,3
3.338218,-11,-3,3,-3,9,3,-25,-13,3
3.338247,22,4,-2,-15,-17,-4,0,43,3
3.341083,-10,-1,2,-5,-16,56,5,29,3
3.341086,-9,9,2,-4,-36,46,-52,-13,3
3.351988,-1,-1,1,8,-25,28,47,7,3
3.352020,-29,-14,-1,22,63,48,75,113,3
3.362236,-2,-2,0,-10,15,23,-31,13,3
3.362243,-13,-9,-1,60,-88,-61,-5,-23,3
3.375991,1,-1,1,-10,6,-5,45,-26,3
3.375996,13,4,-2,-17,-29,29,2,32,3
3.376816,5,-1,-1,8,-21,-34,-18,2,3
3.376822,7,4,0,-26,17,14,10,10,3
3.398189,2,0,-3,-1,17,-14,-13,9,3
3.398208,6,-2,-2,5,-33,-69,-44,-32,3
3.400905,-15,-3,0,-3,23,14,31,16,3
3.400917,13,8,4,-32,-38,72,-13,-36,3
3.411796,1,-1,-2,28,96,33,-82,48,3
3.411827,-13,-7,0,-2,-119,0,-11,-59,3
3.420539,10,-1,-2,7,20,-50,-23,6,3
3.420555,-14,-1,-3,-13,-21,-13,-12,14,3
3.437515,-2,-13,-5,-10,-48,-79,23,2,3
3.437520,17,-2,-4,16,-19,-51,-35,61,3
3.437522,-2,1,-3,-3,21,-44,-29,13,3
3.437524,41,3,-2,-18,-63,1,67,21,3
3.458073,-32,-6,-2,14,48,-5,24,-82,3
3.458087,-20,0,-5,-38,42,-21,-111,21,3
3.460575,5,-8,-5,0,66,109,60,37,3
3.460578,46,5,3,20,3,-40,19,-1,3
3.472249,-13,2,1,-45,-45,25,-3,34,3
3.472266,-2,1,2,17,13,-58,19,-59,3
3.479218,9,6,4,7,-5,7,38,17,3
3.479242,-32,-4,-3,-3,34,8,-18,26,3
3.495665,22,1,-3,-14,24,11,-13,21,3
3.495693,-2,2,4,17,0,7,21,-2,3
3.498781,-2,-7,-2,-1,58,-16,-15,-24,3
3.498787,-3,-2,-1,9,37,-40,7,-1,3
3.517983,-1,-1,-2,-27,-17,-32,36,-19,3
3.518105,20,2,-1,17,-63,42,-29,21,3
3.519437,-2,-4,-4,-9,31,-1,17,-26,3
3.519456,-5,-13,-6,-2,18,-14,-42,42,3
3.532520,15,2,-6,2,47,-8,12,-39,3
3.532611,-9,4,5,-4,-10,57,75,11,3
3.539311,8,-4,-5,-10,-34,-2,-5,47,3
3.539364,-7,-1,-1,5,-9,-46,29,-33,3
3.555787,27,10,4,-11,-70,49,37,-5,3
3.555804,12,5,-1,20,26,18,60,17,3
3.557835,-10,0,2,7,-56,6,-2,-6,3
3.557839,-7,-3,-4,-29,-1,112,-17,14,3
3.578330,1,3,3,17,-119,7,4,25,3
3.578351,2,-5,-2,-11,101,10,12,-18,3
3.579444,13,0,-3,-10,-17,15,-11,63,3
3.579465,-13,-2,0,29,55,-11,5,-36,3
3.592145,-11,-2,-1,3,-32,-29,-43,-20,3
3.592151,7,-2,-3,-11,65,4,-27,39,3
3.599274,-7,1,0,12,-21,-53,-1,-78,3
3.599302,-9,7,1,-52,-66,-61,6,53,3
3.615602,-12,-5,1,31,62,49,-77,4,3
3.615639,6,-1,0,-10,-26,-25,48,23,3
3.618198,-17,1,3,-6,-25,31,38,-47,3
3.618203,-17,-5,-6,0,-14,21,11,-2,3
3.639608,-2,-2,-2,-11,-57,-7,-14,4,3
3.639620,-9,-4,-2,-6,9,45,1,-7,3
3.639624,20,0,0,-23,-38,-24,-16,-7,3
3.639628,-7,-3,2,76,77,25,-32,-18,3
3.652351,0,-5,-4,5,64,-78,-72,-11,3
3.652395,-7,-3,-3,-16,-18,47,39,18,3
3.659277,26,1,-1,-23,-27,-54,-39,9,3
3.659292,0,0,0,7,25,-23,7,-16,3
3.675535,-30,-6,-4,-10,-47,30,-15,-54,3
3.675553,2,0,-1,-7,-9,71,-9,-38,3
3.676913,-16,-6,-3,17,57,29,37,-2,3
3.676916,6,-1,1,-16,-10,9,50,-52,3
3.698031,-1,-1,1,4,8,-7,11,36,3
3.698055,2,3,-4,-18,-8,-96,-21,-15,3
3.700636,2,3,1,-13,-74,34,-18,-7,3
3.700644,12,-3,0,-1,-7,47,-9,48,3
3.711529,-11,-9,-8,-2,85,12,-24,-56,3
3.711554,9,0,-2,3,-12,-39,-28,-43,3
3.721279,1,-1,0,-14,-67,34,-15,-30,3
3.721287,-6,5,6,30,111,-63,-25,44,3
3.735450,-11,-2,2,-2,-60,64,7,13,3
3.735468,7,3,1,-5,52,57,-20,-88,3
3.736973,0,-3,1,56,-26,-75,-6,14,3
3.736990,-13,1,0,-13,-57,-1,33,-11,3
3.758120,23,3,-1,19,-15,-16,28,34,3
3.758143,-1,1,-3,-3,-4,-12,-50,56,3
3.759984,-7,-6,-1,14,46,28,36,42,3
3.759988,3,-2,-1,-25,1,43,54,-13,3
3.771743,-15,-2,3,3,1,-29,38,16,3
3.771764,-2,0,-2,-19,-77,-70,13,28,3
3.781134,11,3,0,3,49,20,-52,42,3
3.781138,47,2,-4,-14,-33,-43,-9,88,3
3.796844,-3,0,-1,-9,66,65,18,-31,3
3.796861,-22,-7,-4,-2,45,28,-8,-2,3
3.797093,10,6,4,-7,-12,-53,56,-7,3
3.797108,-8,3,3,11,102,52,-53,-28,3
3.818102,-9,3,-2,-11,-68,-81,1,36,3
3.818125,15,5,5,7,24,-24,10,-8,3
3.820149,-27,-7,-5,-13,19,-28,11,22,3
3.820153,2,0,0,-8,15,76,53,23,3
3.831669,11,-2,-2,26,-106,24,15,-44,3
3.831689,-8,-6,-1,9,64,101,55,20,3
3.842820,-34,1,-1,4,59,-32,-57,-32,3
3.842824,-5,-2,-2,-12,-19,39,1,-5,3
3.855507,12,3,0,-16,101,27,13,19,3
3.855523,-8,4,1,-3,-72,-28,42,-47,3
3.858136,2,-1,-2,4,-22,-12,14,35,3
3.858150,20,6,-1,-6,-24,-41,-34,-10,3
3.878176,-5,1,-1,17,77,5,23,-79,3
3.878193,5,-4,-3,-1,-79,79,-40,-6,3
3.879538,7,-2,-3,-13,23,91,63,11,3
3.879558,-18,-5,1,33,10,-91,-30,-2,3
3.891585,27,-1,-3,-11,27,17,49,65,3
3.891604,-5,-5,-2,-9,-4,4,-35,17,3
3.902319,-14,0,-4,-6,-26,24,-9,-60,3
3.902324,-4,-3,-8,-50,-112,-41,-8,-23,3
3.915413,8,1,0,6,-78,1,-72,19,3
3.915435,-2,2,2,6,60,-30,41,38,3
3.917880,-21,-3,1,3,-19,-2,52,-87,3
3.917887,-1,-11,-6,16,-30,-14,-8,51,3
3.937103,44,-3,-3,-15,45,2,-39,100,3
3.937111,-24,-6,-7,-2,-61,-23,-36,-24,3
3.948220,18,4,-2,-9,-26,-38,-10,16,3
3.948227,-17,-5,-1,-7,23,99,18,-32,3
3.951643,-17,0,-2,-13,-53,-6,50,-12,3
3.951662,22,2,-4,7,20,-56,-32,-16,3
3.962474,0,1,1,-13,-58,9,18,64,3
3.962478,-3,4,2,12,-35,-28,-28,-29,3
3.975471,-6,2,4,17,55,97,83,-69,3
3.975489,-3,-7,-3,-18,-80,-84,-3,85,3
3.976898,-12,-2,-2,-3,-23,15,-49,-77,3
3.976904,3,5,4,-2,43,-8,-5,19,3
3.999281,-41,-8,-5,-6,-37,-59,-71,10,3
3.999287,11,8,2,8,12,-18,3,-30,3
3.999475,11,-6,-2,6,41,-18,-7,-29,3
3.999481,-5,5,1,10,-51,17,14,-11,3
4.011854,-3,-7,1,-10,-48,0,4,1,3
4.011968,-6,2,2,0,77,40,-10,-14,3
4.020523,9,7,0,-21,-35,-17,-41,23,3
4.020551,-10,-11,-7,3,88,-97,-58,-77,3
4.035716,11,8,4,0,69,18,47,56,3
4.035735,0,-2,0,1,-33,8,-32,2,3
4.036999,11,-3,-2,8,31,29,-6,21,3
4.037011,-7,-1,-3,-16,-11,37,18,34,3
4.058330,13,2,-1,-24,-29,-37,-22,0,3
4.058359,1,-5,2,43,69,5,43,17,3
4.061345,-6,1,-1,-5,-10,-77,3,-7,3
4.061352,5,-3,-2,-15,12,77,-7,-5,3
4.071550,-21,-6,-1,35,20,-46,-31,-18,3
4.071572,3,-6,-5,-11,-101,94,-5,-24,3
4.082719,5,3,1,2,19,-25,17,17,3
4.082728,-5,1,-2,1,-13,-1,35,-14,3
4.095311,7,2,1,-2,-36,-37,-6,-16,3
4.095329,0,6,0,-14,-55,-81,-67,15,3
4.097167,13,-9,-5,32,88,73,95,-26,3
4.097196,12,-1,-1,4,-109,112,14,-24,3
4.118278,-50,-2,-2,-11,88,-45,-39,6,3
4.118308,15,2,2,7,-10,-12,44,8,3
4.119654,21,-6,-1,-10,-47,70,7,32,3
4.119658,6,0,-5,4,-17,-11,3,30,3
4.140580,-10,-1,0,-10,-47,-15,-27,-68,3
4.140594,7,0,-3,-16,-38,1,58,-12,3
4.142028,-29,7,0,-1,-2,32,-119,29,3
4.142047,2,-9,2,3,50,57,36,60,3
4.155552,4,-4,-1,15,88,118,15,8,3
4.155566,6,4,1,-25,6,2,35,-1,3
4.156922,8,-7,-8,17,-97,9,5,8,3
4.156934,-19,4,0,-30,73,-46,-19,-37,3
4.178017,2,-5,-2,-16,-71,39,-43,-5,3
4.178083,-24,-7,-4,-6,-11,80,-25,-44,3
4.180252,6,2,2,-9,-33,-13,29,9,3
4.180261,-6,5,0,13,30,-8,-8,-67,3
4.201095,8,1,0,-4,4,-27,61,31,3
4.201110,4,-3,-3,-3,-9,-22,-64,-4,3
4.201902,-19,-6,-7,-61,75,-68,-54,-45,3
4.201944,26,7,5,28,5,-85,-57,57,3
4.215964,7,1,0,3,-39,37,3,-46,3
4.215970,10,-6,-3,24,-13,-29,-20,41,3
4.224936,-20,-12,-2,-11,-36,-32,60,-5,3
4.224942,-8,2,-4,-2,89,13,-2,-22,3
4.237864,11,-5,-4,8,-1,-29,-45,-12,3
4.237887,-8,2,5,-5,21,-64,5,-10,3
4.240399,7,3,0,42,97,-28,1,9,3
4.240417,-3,-5,-2,-2,-39,36,-10,10,3
4.260362,-27,-1,3,1,-52,-36,30,8,3
4.260386,9,2,-2,-8,65,45,69,8,3
4.261822,23,3,-2,-33,-4,-2,-49,-24,3
4.261855,-11,1,4,41,-99,6,10,23,3
4.276199,-11,0,-3,40,117,3,-15,12,3
4.278753,1,-4,-2,-21,30,-51,16,-19,3
4.278759,0,1,4,9,-27,67,65,10,3
4.278761,13,0,-6,-27,-44,-52,-70,-6,3
4.298070,4,-1,2,-1,-22,59,81,12,3
4.298094,-17,2,1,14,116,-51,-3,15,3
4.299662,-16,-3,1,13,-14,-4,-12,16,3
4.299681,10,1,0,-18,-50,-37,15,-12,3
4.320486,-7,-6,-4,-7,-22,53,-20,-8,3
4.320507,12,-2,-4,-29,-28,82,38,48,3
4.322918,-15,1,-1,3,60,23,-31,40,3
4.322926,-59,-7,0,-12,2,72,27,-4,3
4.335068,22,-6,-7,-5,-8,-49,-7,19,3
4.335090,6,-2,-1,3,10,19,35,-8,3
4.341774,-3,7,2,0,-39,-41,-63,-12,3
4.341808,6,-3,-2,-6,52,-24,31,-17,3
4.357909,-10,-1,-3,-16,-73,-69,21,-3,3
4.357963,-6,-4,-3,5,-44,36,-15,7,3
4.359294,8,2,2,12,6,-23,16,-13,3
4.359300,2,-7,-5,-18,-17,-64,89,2,3
4.380507,-7,1,2,-5,-13,-66,-36,-44,3
4.380529,-7,2,3,9,9,27,-64,-14,3
4.382039,17,-2,-4,-17,32,90,10,29,3
4.382046,-43,-2,3,16,57,65,-14,-80,3
4.394874,32,16,5,-43,-43,61,22,-38,3
4.397207,-23,4,2,45,-111,47,37,-87,3
4.401659,-3,-9,-5,-8,49,-5,60,-6,3
4.401686,9,-7,-8,-9,-11,104,17,32,3
4.418025,-3,1,1,5,27,39,15,38,3
4.418054,9,5,-5,-24,23,-71,-3,-5,3
4.420215,-13,-2,4,4,-60,-115,-33,-22,3
4.420221,-4,-3,-3,4,11,-14,-60,-14,3
4.440920,32,3,-2,7,7,17,-24,28,3
4.440946,-17,-7,0,-30,4,-7,-3,-44,3
4.443646,0,0,0,13,73,-32,12,-22,3
4.443651,13,3,2,-1,-33,-2,-1,42,3
4.454771,-10,6,1,24,6,-9,-49,44,3
4.454788,-13,-8,-2,20,94,-16,10,4,3
4.461767,-2,-6,-2,0,-34,10,13,-19,3
4.461797,4,0,-1,-4,-10,-21,-28,-25,3
4.477970,-5,-7,-5,-12,82,67,52,7,3
4.477993,-4,-5,-3,-2,-27,-16,-50,32,3
4.479890,-24,-1,-1,13,-88,17,-16,-60,3
4.479900,31,6,-3,-16,47,14,20,22,3
4.500746,-2,-3,4,76,-64,-59,-5,1,3
4.500785,-20,-9,-6,1,22,60,-92,-37,3
4.501965,5,-4,-4,-12,-18,-4,3,54,3
4.501982,0,3,3,5,-40,-39,-2,-13,3
4.514787,10,-3,-5,-27,-29,-14,13,-13,3
4.514958,-10,0,-2,-5,-28,10,4,0,3
4.521744,16,5,1,7,-59,33,11,53,3
4.521761,-1,-4,-7,29,-37,-67,-14,-11,3
4.537962,-6,-4,2,-13,7,87,3,14,3
4.537979,8,3,0,4,-33,-77,35,27,3
4.539362,1,-9,-6,-9,-22,24,-99,5,3
4.539368,3,-4,-2,-8,-8,0,27,21,3
4.560337,-14,-6,-5,-38,79,-45,12,-100,3
4.560344,8,-1,2,14,-71,50,37,-3,3
4.561856,8,13,-4,-98,-49,-29,-21,24,3
4.561869,-16,-8,11,94,124,37,64,-63,3
4.576221,7,3,0,3,-52,-27,0,84,3
4.576227,32,0,-2,-11,-10,-3,-13,45,3
4.581812,-34,-2,0,3,23,-20,25,-22,3
4.581840,-7,6,-1,-33,-37,-51,-44,-81,3
4.597879,-18,-9,-4,-5,-20,31,-14,2,3
4.599427,29,12,3,-42,-17,63,-4,20,3
4.604091,-12,-6,2,22,6,12,23,-22,3
4.604109,7,1,1,-5,52,23,-5,31,3
4.620446,-30,-8,-4,10,-10,-10,-21,-20,3
4.620472,-2,-2,-6,-20,-16,-51,-17,-3,3
4.623060,11,10,6,13,100,15,-30,-7,3
4.623065,-5,-13,-11,-41,-55,4,-35,-1,3
4.634490,-1,2,2,2,39,26,72,5,3
4.634515,-9,0,2,16,16,-43,19,1,3
4.644331,2,-6,-4,16,6,61,32,-15,3
4.644339,-7,-2,-2,-6,-47,-14,20,21,3
4.658079,14,4,-3,-7,-43,-16,-21,13,3
4.658102,-11,-2,1,9,-6,3,11,-22,3
4.659402,29,13,5,12,-18,12,74,18,3
4.659408,-38,-2,2,2,42,39,-55,-24,3
4.680559,-47,-4,-3,-7,26,-42,39,-44,3
4.680581,42,3,-3,-57,59,-14,42,38,3
4.682938,0,-9,-4,3,7,50,-47,30,3
4.682945,-3,3,3,-6,-53,-20,-12,14,3
4.694044,9,2,2,9,15,5,-10,15,3
4.694066,-11,1,-1,-7,-4,3,-14,-25,3
4.702944,3,-11,-12,-27,-29,-5,-6,-37,3
4.702958,18,6,2,-5,-2,-78,-14,16,3
4.718034,-5,-3,-2,-6,7,17,0,28,3
4.718053,23,1,-1,17,-38,72,11,64,3
4.719586,-8,-3,-5,-2,-12,72,26,-59,3
4.719604,5,-5,-3,13,80,-5,17,35,3
4.740532,15,2,0,-6,-6,-21,11,-43,3
4.740554,-20,-1,-1,8,-18,-24,-14,-6,3
4.742859,-2,0,-2,16,102,-16,48,25,3
4.742865,0,3,1,9,16,89,87,-84,3
4.754687,6,-12,-6,-2,3,38,-19,12,3
4.754718,-12,-3,-5,-24,-18,-65,11,-44,3
4.764869,-16,-10,-1,10,58,75,-35,41,3
4.764873,10,4,-1,-7,-30,14,37,40,3
4.780891,5,8,1,-1,15,-2,0,-67,3
4.780899,-11,-2,-5,-28,-113,-76,35,-21,3
4.780902,3,-3,5,32,-92,-80,-13,10,3
4.780903,23,0,-6,-13,4,-30,-44,96,3
4.800757,-40,-6,-2,6,-15,3,-30,-15,3
4.800790,12,0,0,11,12,-40,-44,31,3
4.802392,-15,5,-1,-7,-33,-44,3,-69,3
4.802397,-2,-6,-1,6,-17,19,-7,37,3
4.814224,14,2,1,-2,-26,-39,-8,22,3
4.814242,-4,-1,2,0,9,38,-12,17,3
4.823902,20,17,8,-16,-57,-92,-71,27,3
4.823906,-31,-10,-2,2,-20,92,10,-87,3
4.838049,-1,-4,-1,-12,30,65,4,63,3
4.838065,-61,-20,-7,17,32,-42,-12,-69,3
4.840229,17,-4,-1,-2,-3,23,1,-68,3
4.840233,9,4,0,-16,-21,-26,7,-1,3
4.861030,13,9,3,1,-15,-15,-5,23,3
4.861054,-3,0,2,18,14,110,26,4,3
4.863772,-14,-2,-4,26,32,-28,18,-4,3
4.863790,-5,1,-1,-5,-19,-46,-11,-11,3
4.883156,13,4,0,-22,-43,-49,80,53,3
4.884889,0,1,1,35,117,-52,-99,-27,3
4.884895,-34,-2,-1,-3,-85,-89,63,-30,3
4.884897,7,-11,-4,-15,14,43,5,4,3
4.897978,28,2,4,45,-77,-35,69,47,3
4.897998,4,-4,-3,4,36,74,0,-51,3
4.899734,9,4,3,-3,-55,-52,-42,-11,3
4.899817,-10,-2,-3,-2,-51,42,-24,36,3
4.920405,0,4,0,-8,-32,-10,-7,-66,3
4.920426,7,10,5,-3,36,29,6,-55,3
4.921888,-2,-5,1,10,45,41,13,41,3
4.921979,-7,-3,-3,-8,-28,-20,-3,-63,3
4.935857,-4,-1,-4,-19,5,-24,-44,-15,3
4.935862,-1,-2,-2,-6,-34,-19,31,49,3
4.944752,-1,-4,-4,-14,34,38,11,15,3
4.944757,-3,0,1,1,-5,-36,-8,-16,3
4.958007,-2,-2,-4,-10,47,20,-27,6,3
4.958025,-3,-2,1,11,34,56,6,17,3
4.959324,-11,-8,-6,-8,-11,-43,69,28,3
4.959346,16,-3,-1,-10,11,-7,6,28,3
4.981903,1,2,0,7,9,-5,-20,-11,3
4.981908,19,-1,-1,-3,-92,4,20,43,3
4.981989,-4,4,-1,3,58,10,-10,-4,3
4.981996,-5,-3,-4,-6,-3,-9,24,12,3
4.994476,-8,0,-1,-30,9,-48,-57,-25,3
4.994504,13,-11,-9,-15,-123,59,-52,30,3
7.005947,12,0,1,-1,0,0,-2,-2,0
7.006742,-4,1,-1,0,0,-2,-1,1,0
7.008916,-2,4,-2,-1,0,-1,-2,1,0
7.008968,-1,-5,-1,-2,-1,1,1,-1,0
7.028011,3,1,0,0,0,-1,-1,0,0
7.028032,2,-1,0,0,0,-3,0,-1,0
7.030680,-2,0,-2,-1,-1,-1,-1,-2,0
7.030687,-5,-4,0,0,-1,0,-1,0,0
7.042934,4,-2,0,-3,0,-2,0,-1,0
7.042949,-4,2,-2,-1,-1,-2,-1,-2,0
7.044359,0,3,-1,-3,-2,1,0,-1,0
7.044391,-3,-15,-1,-1,-1,-1,-3,-2,0
7.067163,2,12,-2,0,-3,-1,-2,-2,0
7.067179,-5,-13,-1,-1,0,-1,0,-4,0
7.068349,0,-3,0,-1,0,0,1,-2,0
7.068365,-4,1,-1,0,1,-1,-1,0,0
7.088057,2,-2,-3,2,1,0,1,0,0
7.088078,1,11,0,-1,-2,-2,-2,2,0
7.091074,-1,1,1,0,0,-1,-1,0,0
7.091079,-4,-2,-2,-1,-2,-2,-1,-2,0
7.103045,3,0,0,-1,-1,-1,-2,-1,0
7.103069,-2,1,-2,-1,-1,-2,0,-2,0
7.104340,1,-3,-1,0,-2,0,0,-1,0
7.104383,-2,-2,-2,-1,-2,1,-1,0,0
7.125733,-1,-2,-2,-1,-2,-1,-1,-2,0
7.125762,0,3,0,-1,-2,-1,0,2,0
7.128223,-1,-3,-2,-1,-1,-1,-2,-3,0
7.128234,-5,-5,-1,-1,1,0,0,-5,0
7.148052,-1,-6,-1,-2,-1,-1,-2,0,0
7.148073,-2,-4,-2,-1,1,0,-2,-2,0
7.149645,0,4,-1,-1,-1,-1,0,-1,0
7.149679,6,6,2,0,-1,-1,-1,6,0
7.162387,-9,-7,-2,-1,-3,3,-3,-12,0
7.162401,-1,-1,-1,-2,-1,-10,-4,0,0
7.169067,-6,2,1,0,-1,0,-1,0,0
7.169085,4,-2,-1,1,0,-1,-1,-1,0
7.185487,7,22,1,-1,-2,-2,-1,1,0
7.185508,2,-24,-2,-2,-1,4,-1,0,0
7.187531,-3,-15,-3,0,-1,-1,-1,-3,0
7.187535,-4,-1,0,-2,-3,-5,1,-1,0
7.209527,1,-3,-1,0,-1,0,-2,0,0
7.209533,-6,14,-1,1,-1,9,5,-2,0
7.209535,19,8,0,0,-3,-8,-10,2,0
7.209537,-18,-5,-1,0,-2,1,1,-2,0
7.222624,1,-2,-2,-1,0,-2,-2,0,0
7.222652,0,1,-2,-1,0,-2,-1,2,0
7.229433,-1,-3,1,-1,0,2,2,1,0
7.229463,7,1,-2,0,-1,0,-1,1,0
7.245679,-4,-4,1,-1,-1,-3,-2,-1,0
7.245703,-5,-4,-3,-1,-3,1,0,-3,0
7.248465,6,2,-1,0,-1,0,1,2,0
7.248469,-9,2,-3,-1,-1,-2,-3,-9,0
7.268041,-3,-3,-2,0,-2,-3,2,0,0
7.268061,-1,-11,-2,-1,0,-2,-5,-2,0
7.269518,-4,6,-1,1,0,9,3,-1,0
7.269528,-1,-1,1,-2,-2,-12,-5,-1,0
7.281585,10,16,2,1,-1,-13,-5,1,0
7.281605,23,-17,-1,0,-1,15,5,1,0
7.292163,-34,-10,-3,-4,0,-2,-3,-2,0
7.292167,-5,-15,-2,-1,-2,5,0,-7,0
7.305504,-5,-4,-3,-1,-1,-4,-1,-2,0
7.305527,6,17,2,-1,0,-7,-6,0,0
7.307062,7,2,1,-1,-1,0,1,0,0
7.307085,3,2,-3,-1,-1,0,2,2,0
7.328510,2,0,1,0,-2,0,-1,-1,0
7.328531,-5,3,1,1,-2,-4,0,-2,0
7.331101,-10,-5,-3,0,-1,-1,0,-2,0
7.331107,7,8,0,-2,0,-3,-1,1,0
7.342687,1,-2,-3,-3,-1,4,0,-1,0
7.342716,-14,-17,-1,-2,-2,5,4,-2,0
7.349496,0,-3,-2,-2,-3,-6,-10,-3,0
7.349522,22,10,1,1,1,-2,2,5,0
7.365535,-28,-4,-3,-2,-1,10,-5,0,0
7.365541,-3,-11,-4,-4,-2,-16,10,-2,0
7.367310,5,4,1,-1,2,3,3,0,0
7.367346,-14,-9,-4,-2,-1,1,-3,-8,0
7.388390,16,3,-1,-1,-1,2,0,3,0
7.388411,-2,11,0,-1,0,0,-2,1,0
7.390754,-3,-4,-1,-2,-2,-4,-2,-3,0
7.390761,11,-2,0,0,0,2,0,2,0
7.402313,-2,-7,0,0,0,-4,1,0,0
7.402336,-7,4,0,-1,-2,-3,-7,-4,0
7.410630,6,1,-1,-2,-1,-1,3,1,0
7.410636,-4,2,-3,0,-2,-1,-4,0,0
7.425969,-2,4,-2,-1,-2,-1,-1,-3,0
7.425974,-6,-1,-1,-1,0,-3,-2,0,0
7.426848,6,-13,0,-1,-2,-19,-5,0,0
7.426945,-8,-1,0,-2,-3,26,9,-4,0
7.448229,-5,-11,-1,1,1,-2,0,1,0
7.448256,10,16,-2,-1,0,0,0,1,0
7.450590,-5,5,1,0,1,-2,-1,0,0
7.450597,-6,-8,0,-1,-1,-9,-5,1,0
7.462081,3,0,-2,-1,-2,-1,1,-1,0
7.462103,-5,3,-2,0,0,0,-3,-2,0
7.472474,4,2,-1,-1,0,3,2,1,0
7.472480,11,-7,-2,-2,-2,-6,-3,-1,0
7.485551,-6,-4,-1,-2,-1,3,1,-3,0
7.485570,3,0,1,0,0,-4,-2,2,0
7.488057,-14,-6,-4,-5,-2,4,-6,-5,0
7.488062,8,7,0,0,2,-9,8,2,0
7.508138,6,-6,-1,-3,0,2,-2,-1,0
7.508158,-5,-2,0,-1,-2,-8,-1,-3,0
7.509331,7,7,-1,0,-2,6,5,2,0
7.509387,0,-7,0,-2,-2,-2,-4,-2,0
7.521660,-18,-7,-1,-1,-2,-1,-1,-2,0
7.521683,-3,-2,-2,0,0,3,-1,-2,0
7.531471,1,4,0,3,0,0,-2,-2,0
7.531478,-6,2,-3,0,0,-1,-3,1,0
7.552874,4,-1,-1,-1,-1,-3,-1,0,0
7.552892,3,-2,-2,-4,-1,3,0,-1,0
7.554428,-2,0,-2,-1,1,-3,-5,0,0
7.554440,-3,-2,-2,-1,0,-1,-2,-1,0
7.568257,-5,-5,-1,1,1,-3,0,-4,0
7.568278,2,1,-2,-1,-2,-3,-3,5,0
7.569607,1,-5,-3,-2,-2,0,0,-8,0
7.569623,-10,-1,-1,-2,-1,0,0,-1,0
7.591146,2,0,-1,-2,-2,-3,-2,-2,0
7.591161,-2,-1,1,-1,1,-1,0,6,0
7.592655,-1,-1,0,-2,-1,0,-3,-6,0
7.592659,-2,3,-1,-4,-2,-3,-4,0,0
7.605449,1,-6,0,2,0,1,6,7,0
7.605480,4,0,-1,-3,-3,-3,-10,-13,0
7.607746,5,1,1,3,0,2,4,5,0
7.607750,-6,-1,-1,0,-1,-1,-1,-7,0
7.628520,-1,-4,-2,-3,-1,-1,2,1,0
7.628526,-2,1,-2,-1,-1,0,-1,-2,0
7.629387,-4,1,-2,0,0,-1,-9,-2,0
7.629403,-2,-2,0,0,-2,-1,-3,0,0
7.641977,2,1,-1,-1,-2,-1,-3,-2,0
7.642005,1,-1,-1,0,-1,4,1,0,0
7.651848,-4,-1,-3,-5,-3,-19,12,1,0
7.651852,-3,-1,1,3,2,7,3,-2,0
7.665416,0,0,-2,-2,0,-3,1,-2,0
7.665438,-5,2,1,0,0,7,1,-1,0
7.667214,-2,-4,-2,-1,0,-21,-17,-1,0
7.667229,-1,0,-2,-3,-5,42,18,3,0
7.689766,2,3,-1,-2,-10,-47,0,-1,0
7.689774,-1,-5,0,3,-3,-5,-1,-1,0
7.689779,2,2,0,-2,-2,2,-1,3,0
7.689783,-6,-3,-2,-1,-3,-12,-9,-8,0
7.701636,2,5,3,-2,3,14,-2,-5,0
7.701662,-3,-4,0,3,1,17,2,-3,0
7.711986,0,1,0,-2,-1,-56,-20,3,0
7.711989,-5,-6,-6,-1,-11,36,6,-10,0
7.725352,-2,2,-1,1,-1,7,-1,-3,0
7.725367,-3,-6,-1,0,-2,-22,-7,0,0
7.728337,1,2,1,-1,0,35,14,0,0
7.728343,0,-2,-2,-4,3,-23,-11,9,0
7.747917,1,-3,1,-1,-2,-6,-8,-3,0
7.747941,0,1,-2,-3,-1,13,4,0,0
7.749833,-2,-3,1,0,0,9,-2,-1,0
7.749846,2,2,0,-3,0,-19,-3,4,0
7.761731,-1,-2,-4,-2,0,8,3,1,0
7.761757,-4,0,1,1,-1,-18,-20,0,0
7.771021,-4,-5,-3,-3,18,35,19,-4,0
7.771029,-5,-2,0,-1,-20,-2,10,-7,0
7.785360,5,3,-2,-2,-3,89,13,11,0
7.785379,-4,-2,0,-4,-4,48,2,-4,0
7.786848,8,9,1,3,-8,-43,-18,1,0
7.786869,2,0,3,2,18,0,-10,-3,0
7.808396,-2,-3,-1,3,4,-13,-8,-4,0
7.808427,-1,0,0,-4,-8,-10,15,3,0
7.811109,-1,-3,-4,-2,4,24,18,0,0
7.811116,3,5,2,1,8,-1,-1,4,0
7.821805,3,1,-2,-3,-5,-30,-3,-1,0
7.821834,1,-1,-1,1,5,-7,-5,0,0
7.831774,-5,-5,-2,-4,18,93,12,1,0
7.831779,-4,-3,-2,-1,-33,-79,10,-11,0
7.847328,-3,-3,0,-1,-2,-10,-50,-1,0
7.847334,-2,0,-3,-4,-3,44,25,5,0
7.851562,-11,-8,-5,-3,3,-61,-29,-3,0
7.851581,5,4,2,6,-45,63,24,6,0
7.868022,-6,-6,-2,-3,16,-65,-21,-4,0
7.868039,-1,-1,-1,-2,-4,-8,-4,-1,0
7.870106,1,-3,1,-1,1,-4,1,5,0
7.870111,-6,-1,0,1,20,16,-9,-2,0
7.890805,0,-1,0,-1,-14,-5,6,1,0
7.890920,2,2,-1,-1,4,-7,-9,-1,0
7.893561,-5,-3,2,0,8,86,4,-8,0
7.893567,2,-1,-2,-1,3,-60,-18,7,0
7.904909,-1,-4,0,0,1,-26,10,-6,0
7.904937,0,3,-4,-1,8,53,13,-3,0
7.912017,1,2,5,2,-22,-4,25,1,0
7.912044,0,0,-2,-3,24,-2,-22,-1,0
7.928132,-2,-1,-1,-5,-36,-29,31,6,0
7.928218,-2,-4,-1,-6,-19,32,-60,-11,0
7.929361,1,-2,-2,-2,-10,-47,-5,-2,0
7.931081,-2,0,6,5,21,-30,-17,-6,0
7.950935,0,-3,-6,-13,-1,108,29,-5,0
7.951029,2,8,2,11,3,-23,6,5,0
7.952711,-1,-5,1,0,-22,-49,-25,0,0
7.952720,-2,-3,-2,3,1,-4,-5,-7,0
7.964806,-1,2,-1,3,20,45,11,-1,0
7.964825,-3,-4,-2,-3,-2,-44,15,-6,0
7.971906,-6,0,-3,-5,-6,9,2,-3,0
7.971928,1,1,-3,-6,6,17,10,6,0
7.988066,2,-2,-2,2,10,-42,-17,8,0
7.988136,2,1,2,3,2,9,19,0,0
7.989475,0,1,2,6,30,5,1,-1,0
7.989506,-3,-2,-4,-7,-25,-47,-15,0,0
8.010563,-9,-7,1,3,3,8,4,0,0
8.010926,-5,-8,-5,-6,-2,62,35,-7,0
8.013737,1,0,-3,-3,13,-44,-36,-3,0
8.013821,3,1,0,-5,0,-1,-2,15,0
8.026021,-8,0,3,5,4,-62,-52,-17,0
8.026048,0,0,-3,-2,3,-81,23,16,0
8.028926,-2,3,-1,0,-13,-3,33,-11,0
8.028931,2,-6,-4,-8,13,31,-45,1,0
8.049269,10,13,7,9,-20,33,63,16,0
8.049273,-4,-7,1,6,27,52,2,-12,0
8.049470,3,4,-6,-8,-52,-58,-73,6,0
8.049476,10,5,2,0,55,0,49,2,0
8.070442,-6,-2,5,1,0,44,-33,-10,0
8.070464,-3,-1,-4,-5,-11,-45,-29,-5,0
8.073415,-1,-3,0,0,10,44,27,3,0
8.073421,-2,-3,-5,-7,-40,-40,-3,-6,0
8.084385,-6,-6,-8,-9,25,-64,55,-5,0
8.084421,-3,1,4,0,-8,12,-73,-1,0
8.093904,-7,-5,-6,-5,5,-38,-6,-15,0
8.093912,0,4,11,10,-51,81,57,2,0
8.108379,3,-3,-1,3,68,-62,-6,3,0
8.108412,3,-3,-3,-3,12,-69,10,10,0
8.110287,-9,0,2,4,24,120,47,8,0
8.110293,-15,-4,-8,-4,9,52,-27,-16,0
8.130753,-18,-1,1,-3,-38,25,-18,-4,0
8.130793,25,4,0,-11,-23,-21,51,11,0
8.132928,-23,-8,-2,-1,42,-49,-61,-1,0
8.132935,2,-7,-1,5,-4,-42,19,-14,0
8.145413,-2,-1,0,3,-5,8,-2,17,0
8.145432,-11,-1,-4,-12,-2,-24,7,-14,0
8.153698,13,1,3,-2,-26,40,28,7,0
8.153704,-15,-8,-7,-3,24,-32,13,-5,0
8.168048,-6,-5,-8,-21,-45,-49,-16,-12,0
8.168066,7,3,6,13,-1,-5,-16,6,0
8.169962,5,-2,-2,-1,-10,3,21,-5,0
8.169973,-3,1,-7,-10,-16,-36,-45,2,0
8.190485,20,7,4,2,3,-47,2,10,0
8.190499,-8,-5,-6,-7,1,15,-18,-7,0
8.191881,5,2,2,3,-9,-25,-6,-11,0
8.191895,-1,2,2,-8,-11,-3,-13,7,0
8.204721,1,-1,-4,12,-8,54,16,-2,0
8.204727,-9,0,-3,-1,-2,-11,-16,-7,0
8.215119,18,10,-1,-8,-17,-52,12,19,0
8.215125,0,-2,5,12,38,55,68,-3,0
8.228017,-2,0,2,-1,-11,80,19,-5,0
8.228037,-3,-3,-2,1,-65,17,40,7,0
8.230173,-3,-9,-10,-7,59,59,-5,-20,0
8.230191,-6,-2,-4,-4,19,10,13,-3,0
8.250687,-6,3,0,-1,25,121,-7,-11,0
8.250717,1,1,2,1,-12,20,-8,4,0
8.252453,8,9,8,6,-28,48,17,9,0
8.252457,7,6,4,6,15,4,6,7,0
8.264399,-5,-8,-6,-1,-59,-85,28,-5,0
8.264420,22,5,3,-1,29,-40,-18,10,0
8.274553,-17,-6,1,10,-1,-23,7,-14,0
8.274559,-1,-3,0,-5,6,58,-3,-3,0
8.287901,-1,-4,-5,2,10,-90,1,-16,0
8.287919,-12,-1,2,-5,20,77,-55,-17,0
8.289368,7,-1,-3,-5,37,18,11,1,0
8.289386,6,5,2,24,-57,24,-15,5,0
8.310877,-13,2,1,-10,-12,9,34,9,0
8.310898,-6,-14,-12,-10,9,33,30,-21,0
8.312881,-49,-3,5,5,69,-50,6,1,0
8.312886,-19,-3,0,-5,-19,-39,-35,-7,0
8.324626,9,-1,-5,-5,-6,41,-17,7,0
8.324654,-15,-1,-1,10,25,-66,32,4,0
8.334306,19,0,-3,-8,-43,-16,-2,-2,0
8.334313,4,-1,-3,3,-35,-1,0,6,0
8.348131,3,5,2,1,13,17,-6,7,0
8.348144,7,6,6,4,-2,13,10,6,0
8.349681,9,-3,1,0,-25,26,-5,3,0
8.349708,4,-3,-4,-8,-12,-67,55,5,0
8.370444,2,-6,-5,5,12,127,-94,-13,0
8.370459,1,7,3,-3,-7,-11,13,2,0
8.373269,2,4,3,-23,37,69,125,15,0
8.373274,-13,-9,-7,-46,32,63,-59,-11,0
8.393719,14,3,7,77,-54,-8,90,25,0
8.393725,-12,-7,-3,-37,-76,-11,17,1,0
8.393727,7,-3,-10,25,-62,54,-106,-35,0
8.393728,-20,-4,-2,12,-1,-15,42,-13,0
8.409947,11,-2,-1,-9,8,-30,17,-3,0
8.409953,-19,-2,-2,-8,2,26,-8,-5,0
8.409955,0,-7,-6,-2,-37,-65,14,0,0
8.409956,6,-6,-2,-7,1,15,-18,0,0
8.430072,4,1,2,-17,18,-46,-53,4,0
8.430100,-12,-7,-5,-8,2,-16,-18,-24,0
8.430657,3,-3,-1,-15,20,3,-2,4,0
8.430678,6,4,-1,1,-2,-31,-7,3,0
8.452405,43,-2,-1,-10,52,24,26,8,0
8.452428,-42,-6,1,16,-4,-31,-39,2,0
8.454590,1,-1,-1,4,-14,-12,6,-1,0
8.454598,2,1,1,-51,-38,17,-3,0,0
8.467664,31,6,3,45,-35,35,34,11,0
8.469566,-4,-6,-8,-13,7,-28,-34,-15,0
8.469579,-8,-7,-9,-1,-34,-72,-69,-11,0
8.469580,11,4,-4,-17,-8,27,38,5,0
8.489802,-15,6,-5,-55,-4,-102,-18,-5,0
8.489828,-1,-6,5,84,-18,77,42,1,0
8.490584,48,-5,8,8,77,34,-12,9,0
8.490681,11,-6,-3,-11,-51,-52,-12,-3,0
8.512594,21,0,-9,-33,59,-84,46,0,0
8.512629,127,20,7,-19,-82,55,61,22,0
8.515079,-94,-10,-4,-88,-68,-78,73,3,0
8.515143,-37,3,14,110,53,85,-5,4,0
8.527169,-10,-2,3,13,86,11,-7,-6,0
8.527192,2,4,2,-20,47,-45,3,-1,0
8.528524,33,7,-2,-12,-29,18,13,27,0
8.528534,5,0,-2,7,-60,-56,-16,0,0
8.552400,-20,-4,-7,-82,20,-24,-14,-18,0
8.552407,-35,-1,1,93,35,51,1,0,0
8.552409,-2,-1,2,17,-29,-2,-36,-14,0
8.552411,-15,-1,-3,-16,18,72,-12,-7,0
8.572389,-5,-9,-5,22,-42,-67,-6,-10,0
8.572410,5,-1,-1,-8,9,-79,79,-1,0
8.572945,17,5,2,24,13,-2,45,31,0
8.572957,14,5,2,-22,29,0,-19,-16,0
8.587229,-24,-3,-6,-28,-40,107,-34,-2,0
8.587252,60,7,7,38,-17,35,10,6,0
8.587859,-30,-8,-9,-64,-23,0,60,-21,0
8.587872,12,-4,1,40,102,14,18,-1,0
8.610617,-19,6,8,14,-20,88,35,21,0
8.610646,63,-1,-5,-39,-1,82,-46,0,0
8.610651,-55,-6,-7,-25,97,117,-128,-39,0
8.613548,-24,-8,-4,2,-89,-66,37,13,0
8.632297,-8,3,1,7,16,0,-16,-32,0
8.632318,-5,1,3,59,25,23,-38,-30,0
8.633357,46,4,-2,8,-57,71,55,28,0
8.633385,18,5,4,25,34,94,1,5,0
8.647282,-10,-4,-3,-49,49,18,-74,16,0
8.647302,-37,-4,0,41,-37,14,-21,9,0
8.649923,-3,-1,1,6,-95,-57,3,-26,0
8.649930,19,2,-3,-48,37,-54,46,34,0
8.669656,17,2,4,14,-90,29,95,-16,0
8.669671,-39,-13,-13,-15,-3,-58,24,17,0
8.670723,21,15,7,-15,34,56,55,23,0
8.670726,10,-2,-4,21,-30,-96,-41,6,0
8.692201,-7,2,7,-46,127,-1,-3,-32,0
8.692234,-28,-7,-8,-75,-41,-63,-14,39,0
8.692960,28,4,4,48,-10,14,7,-31,0
8.693043,5,-2,-2,-40,-6,-7,37,2,0
8.707656,-4,-7,-4,16,-50,-27,-11,-8,0
8.707664,-19,2,-1,-40,19,6,12,-14,0
8.707908,36,3,0,16,1,-45,-15,22,0
8.707914,1,5,0,-40,16,55,43,-7,0
8.729878,-21,-14,-12,20,-93,-69,-64,-31,0
8.729897,1,-11,-7,58,86,-38,-44,-21,0
8.731616,-8,-4,0,20,25,1,11,4,0
8.731621,-4,4,-6,-82,-86,-42,-34,-20,0
8.754109,1,4,17,123,63,79,62,15,0
8.754114,-1,6,5,-62,-43,18,71,18,0
8.754116,-11,-6,-5,12,30,103,-6,1,0
8.754118,-4,-4,-5,5,96,68,-61,-3,0
8.767504,11,11,12,44,14,49,-52,20,0
8.767530,6,-1,-7,-16,-5,-35,-21,-3,0
8.769407,-10,3,6,28,87,-15,-10,10,0
8.769411,11,1,6,52,43,-20,-50,-5,0
8.789942,-6,-4,-7,-55,-37,37,26,0,0
8.789965,-21,-5,1,53,45,-5,-1,-26,0
8.790627,9,1,-2,-43,-41,-28,-6,50,0
8.790746,2,-12,-5,-4,-37,1,-15,8,0
8.812573,-5,-4,-6,-11,-25,-26,14,-9,0
8.814917,7,6,3,-40,0,-15,-18,6,0
8.814925,-2,-3,-4,-12,-28,-30,-12,-26,0
8.814927,-4,-4,-2,9,-86,9,15,21,0
8.827198,0,-1,1,14,84,-13,54,13,0
8.827222,3,2,-4,-46,3,71,-31,-4,0
8.828267,11,5,11,20,-57,-9,18,-10,0
8.828271,-27,-6,-10,-39,-16,43,68,-25,0
8.850231,4,0,-4,18,25,26,-23,19,0
8.850263,-6,0,-2,-84,35,-93,76,20,0
8.850530,-4,2,-3,-36,-81,-89,-82,-46,0
8.850553,-30,-25,-10,121,76,-68,-10,-81,0
8.872681,9,4,2,-2,-101,-29,24,28,0
8.872704,-14,-3,-4,24,-58,-25,-57,-44,0
8.874851,1,0,0,-10,-5,76,117,87,0
8.874855,9,0,-2,-73,-30,-21,-3,16,0
8.887216,12,-1,-4,-13,-57,-51,58,-62,0
8.887241,-21,-7,-5,8,8,-3,-2,-34,0
8.889695,7,2,-3,-15,-15,25,-1,-8,0
8.889699,15,6,2,5,6,2,-26,40,0
8.909805,1,-7,-1,0,63,67,14,7,0
8.909896,9,9,5,-24,12,-6,-14,53,0
8.910475,-9,-6,-1,54,36,-4,-13,-29,0
8.910550,4,6,3,-30,-30,81,58,14,0
8.940678,2,5,0,-24,3,6,-44,17,0
8.940691,8,4,8,18,-42,93,-11,34,0
8.941278,-15,-9,-8,7,78,-16,-15,-8,0
8.941296,5,4,3,14,-11,-55,-78,-20,0
8.947495,-15,-11,-15,-47,-114,23,-50,-5,0
8.947529,7,-3,0,28,75,-36,62,-6,0
8.949650,8,6,5,-5,56,-59,-17,-16,0
8.949658,10,7,3,-18,-94,-30,10,8,0
8.969967,-18,1,1,-66,21,16,9,0,0
8.969971,-1,-11,-6,-16,-35,-36,-64,30,0
8.970300,4,-11,-10,-43,4,-25,-42,-53,0
8.970308,-11,1,4,26,70,-34,33,-101,0
8.992221,0,-3,-4,17,-22,-2,-19,6,0
8.992238,0,5,-3,-40,-27,-11,-19,-9,0
8.993193,15,-5,-10,29,-60,13,127,51,0
8.993197,-9,5,5,-13,15,25,38,47,0
9.007244,-5,-4,0,6,0,-59,-7,-16,0
9.007282,0,4,4,28,13,125,36,-8,0
9.009537,-9,-2,-1,-5,-13,-82,-7,7,0
9.009632,15,-3,-5,8,33,-61,22,-5,0
9.029978,-3,-3,-5,7,56,21,-8,11,0
9.029997,-2,5,4,30,8,-18,32,-1,0
9.031857,-1,2,0,-40,-91,-72,-25,-17,0
9.031863,-4,-10,-8,72,97,72,-65,14,0
9.052262,2,0,-4,-87,-53,18,-26,-25,0
9.052301,2,-1,-6,28,-61,-50,-18,-3,0
9.052883,-1,4,7,26,-30,65,10,-24,0
9.052895,1,15,18,57,46,93,0,84,0
9.067407,34,0,1,48,23,14,-38,-47,0
9.067425,-31,-6,-8,-18,-27,86,7,8,0
9.068984,36,4,5,41,-15,-47,-55,10,0
9.068988,-3,-10,-6,-25,-109,-82,17,0,0
9.090481,-30,-3,2,12,-11,-7,11,-8,0
9.090512,-2,0,1,-41,-18,-20,-7,33,0
9.092602,15,-1,-4,2,47,-16,-15,-4,0
9.092607,-28,2,-1,-39,-2,80,-22,-29,0
9.115803,11,3,7,38,-4,18,33,10,0
9.115815,22,-6,-1,17,58,-82,12,-7,0
9.115818,-17,-8,-3,-18,-19,8,21,-12,0
9.115822,0,-10,-17,-85,-69,-14,22,12,0
9.129617,13,-5,-8,54,61,106,40,-36,0
9.129625,-8,12,17,41,43,102,81,-18,0
9.129626,52,9,3,63,2,23,-5,-5,0
9.129628,123,6,1,-21,-57,-20,47,12,0
9.150233,-94,-27,-8,-22,-88,-84,-17,24,0
9.150277,48,-4,-2,-17,-17,31,-47,-50,0
9.151655,-10,-12,-9,-28,-8,12,-12,8,0
9.151659,11,5,6,-18,-67,-28,12,1,0
9.172565,-10,3,0,1,70,23,5,-7,0
9.172593,13,-12,-13,-23,-44,-35,29,38,0
9.175520,-15,7,3,-34,61,77,18,1,0
9.175526,-30,-10,-4,41,-52,60,-48,15,0
9.187249,9,1,-5,-37,56,43,1,34,0
9.187273,-34,0,-3,-3,-19,-53,25,-27,0
9.188099,6,7,3,-24,19,56,-2,-7,0
9.188115,-27,-2,-1,-31,-44,7,-86,44,0
9.209675,7,9,10,21,2,-84,61,-54,0
9.209694,16,-3,-8,-74,-13,26,10,4,0
9.210301,-20,0,4,71,-36,-24,-18,3,0
9.210315,-28,1,10,89,83,0,56,-1,0
9.232459,24,0,-3,-5,-15,-78,53,42,0
9.232499,-26,-5,-5,-4,-17,-74,-79,-12,0
9.234210,8,-1,0,-13,17,30,7,-9,0
9.234222,-4,-2,-1,34,-53,-34,45,-15,0
9.247254,8,-2,-7,-27,-10,-64,-21,44,0
9.247279,1,2,5,4,-9,64,-8,-8,0
9.248940,16,-6,-4,-20,18,-27,22,29,0
9.248947,-25,-3,-2,-3,-58,115,11,-77,0
9.270303,31,2,-2,-36,-66,-44,-4,3,0
9.270309,-26,-3,-4,-32,-13,102,-89,-46,0
9.270374,-6,-9,-2,28,-64,84,90,97,0
9.270404,9,5,0,-9,65,-5,-33,-25,0
9.292272,51,4,1,-1,-79,56,-2,4,0
9.292295,-39,-4,-5,8,-10,-9,5,-33,0
9.293709,-34,-1,2,-28,-48,-21,12,-4,0
9.293716,10,-7,-4,-36,83,60,43,20,0
9.307427,5,-3,-2,-4,50,35,-89,3,0
9.307454,28,8,7,17,8,-10,81,68,0
9.309720,-8,-8,-11,-63,4,117,-56,-42,0
9.309723,8,4,1,7,75,-37,55,14,0
9.329926,8,0,1,-25,-29,32,-20,4,0
9.329944,-7,-1,2,37,3,3,24,-5,0
9.332636,-15,6,0,-76,46,-26,12,-7,0
9.332647,40,0,0,30,-53,-70,-85,-11,0
9.352159,-41,0,-1,6,5,65,49,-8,0
9.352185,-18,-7,-7,-24,-9,-93,-18,66,0
9.352994,7,-1,3,27,-33,-11,-50,-11,0
9.353008,-30,0,4,-25,-48,2,-4,10,0
9.367389,5,-10,-5,27,-54,12,-18,-43,0
9.367415,12,0,-3,-17,21,-63,70,-24,0
9.368849,4,-5,-15,-52,-63,39,-21,11,0
9.368858,-24,1,5,41,62,50,3,-36,0
9.390266,13,7,5,1,61,-37,8,42,0
9.390294,47,3,3,-7,-66,110,94,26,0
9.392262,-62,-10,-4,13,69,-67,6,-32,0
9.392266,-1,2,-1,-14,-40,13,-1,-20,0
9.412112,-17,-2,-3,19,-58,3,-1,4,0
9.412120,13,2,4,1,28,14,-23,-20,0
9.413013,10,9,8,24,19,-36,-1,18,0
9.413040,-3,-10,-10,-36,-67,-29,76,-20,0
9.435417,28,2,5,13,119,29,41,4,0
9.435436,-31,-6,-4,-20,-80,-19,-24,-5,0
9.436567,-49,-6,1,51,-30,-40,-5,22,0
9.436571,0,0,-2,-13,127,5,5,-13,0
9.450055,14,3,-4,-47,-76,-73,-103,-40,0
9.450100,-1,-6,1,29,12,30,-26,19,0
9.452444,2,-1,-3,-26,-15,-18,26,-8,0
9.452449,23,0,2,19,14,-4,-24,30,0
9.472662,-13,1,3,14,-19,12,11,11,0
9.472695,-5,-1,-5,-26,7,18,-50,-14,0
9.474902,10,2,-3,15,-54,-89,46,-4,0
9.474908,37,-1,-6,-22,66,26,2,-4,0
9.495501,-83,1,5,63,-27,-45,0,-23,0
9.495516,32,2,2,7,58,-13,6,8,0
9.498029,-7,-6,-1,26,-17,89,21,-37,0
9.498036,1,6,0,-22,-72,-54,-3,80,0
9.509639,5,-3,-5,-40,3,24,41,-41,0
9.509655,12,0,-2,6,-63,-35,-47,-13,0
9.510325,6,4,3,16,41,6,-21,5,0
