timestamp,emg1,emg2,emg3,emg4,emg5,emg6,emg7,emg8,label
2.008779,2,20,6,0,2,-6,0,-2,2
2.009024,4,-2,-3,-1,1,12,3,41,2
2.009027,76,75,12,4,-1,-1,6,40,2
2.009029,-123,-128,-19,-6,-5,-19,-21,-57,2
2.031629,127,37,7,2,0,8,4,18,2
2.033824,-59,10,4,1,0,3,-3,-35,2
2.033829,20,39,6,1,0,0,-2,27,2
2.033831,10,58,3,1,6,32,-3,15,2
2.045107,-37,-18,4,2,-2,-12,7,4,2
2.045124,-62,-61,-12,-6,-4,-17,-3,6,2
2.053625,8,-2,-4,0,-3,28,-7,-72,2
2.053877,-37,-25,-8,-4,-1,4,-2,-31,2
2.068353,-80,0,-5,-1,-2,6,-5,-7,2
2.068385,56,11,10,3,1,2,5,28,2
2.070454,-55,18,-2,-2,-2,-6,-1,-5,2
2.070459,-32,-20,-1,0,-3,-8,8,-22,2
2.091191,21,-38,-8,-5,-3,-31,-11,43,2
2.091218,57,86,0,1,0,33,1,-34,2
2.091657,-85,-94,-7,-4,-1,-5,0,29,2
2.091675,27,31,8,1,-3,-11,-2,-11,2
2.105103,29,13,1,-2,0,5,-12,-27,2
2.105120,-17,-98,-12,-1,2,15,19,-30,2
2.113367,-67,37,1,-1,-3,0,4,53,2
2.113391,60,56,8,1,-3,-12,-2,39,2
2.128298,-69,-63,-6,-3,-3,10,11,11,2
2.128322,-4,39,5,1,0,-9,-9,0,2
2.129299,0,-49,-9,-1,-1,2,-5,-32,2
2.129302,24,32,7,1,0,-15,1,4,2
2.151781,-16,8,7,0,-4,4,-7,-1,2
2.151786,-37,6,2,0,-2,-2,0,11,2
2.151788,79,7,-2,-1,-2,-9,-2,-18,2
2.151790,4,3,-8,-2,0,-9,2,16,2
2.165358,28,43,4,2,-1,2,-6,-19,2
2.168044,-40,-19,-2,-3,-1,-10,0,16,2
2.173276,49,24,2,1,-1,-1,4,7,2
2.173294,-25,21,-3,-2,1,5,-6,-32,2
2.188465,15,-2,-2,-1,-1,7,6,-6,2
2.188487,5,-9,3,0,1,-9,0,30,2
2.189078,-18,15,-7,-7,-5,-8,-11,-73,2
2.189121,-16,-6,-3,-3,-2,-4,-1,5,2
2.211565,-85,39,-3,-2,-2,-10,-3,9,2
2.211594,14,-6,-4,-2,-2,6,7,-4,2
2.214064,-40,-11,2,1,-1,-3,-2,-6,2
2.214070,54,50,3,-1,-1,-3,0,-11,2
2.225307,34,-59,-6,0,0,3,-3,1,2
2.225328,34,50,-1,0,-2,-4,-2,40,2
2.233439,-63,-40,-5,-2,0,6,0,-33,2
2.233458,-73,-46,-5,-2,-3,-6,-3,-4,2
2.248681,16,22,0,0,-28,-3,-5,-7,2
2.248826,25,-19,10,5,56,3,-9,-32,2
2.249449,9,-10,-7,-4,-24,-20,14,73,2
2.249470,-42,-70,-16,-10,-20,27,-16,-47,2
2.270967,-9,10,-1,0,0,-23,-3,7,2
2.270995,-5,23,-2,-3,-20,-4,-2,-18,2
2.272303,0,-29,3,4,11,-1,-7,-5,2
2.272307,26,-2,5,2,10,-1,7,56,2
2.294051,-16,-3,-4,-3,-3,7,2,-14,2
2.294064,11,6,1,-3,-5,-6,-5,12,2
2.294722,-14,30,2,0,7,-5,-4,1,2
2.294787,67,12,1,1,-7,-8,2,-2,2
2.308355,-24,-24,-6,-2,11,6,-2,-22,2
2.308368,-3,32,-1,0,-7,-1,1,3,2
2.309022,-25,-11,-1,-1,2,6,-4,9,2
2.309034,74,13,5,1,0,-19,1,-3,2
2.330912,-7,-47,-12,-5,3,22,15,90,2
2.330934,13,-49,-3,-3,-6,4,-10,-83,2
2.333318,-16,40,2,1,-4,13,7,-5,2
2.333324,73,59,10,6,3,-24,-7,19,2
2.355081,-74,22,-2,-5,1,2,-7,6,2
2.355087,-57,-81,-10,-5,-10,-7,-9,-53,2
2.355089,72,12,-1,-1,2,-2,1,52,2
2.355091,-48,12,2,0,2,3,7,-9,2
2.370316,22,26,5,3,-7,-5,-7,-31,2
2.370345,-18,2,2,-3,13,2,8,40,2
2.370348,78,18,-3,-2,-1,-1,-10,-31,2
2.370351,-105,-34,-5,0,2,4,-1,10,2
2.390879,58,-17,-3,0,4,-3,-5,-41,2
2.390907,-14,-10,-8,-5,-19,-4,3,22,2
2.392776,67,48,5,0,-1,-4,-8,-52,2
2.392784,-15,-44,-1,1,3,-10,2,19,2
2.416622,67,67,3,0,0,22,6,-47,2
2.416631,-34,-54,-11,-3,-4,-4,-6,14,2
2.416632,36,-5,3,-1,2,11,11,15,2
2.416634,25,23,1,0,-5,-2,-4,9,2
2.428736,-6,-4,4,2,4,-11,-5,-2,2
2.428758,25,20,-1,-1,-2,-8,4,40,2
2.430094,-54,48,3,-1,2,10,-10,-37,2
2.430098,-25,-92,-2,-1,-3,7,19,1,2
2.450896,46,41,7,1,3,-1,7,36,2
2.450922,-56,-77,-15,-4,-1,-6,-8,-34,2
2.451726,57,1,-4,0,9,-6,6,23,2
2.451741,21,40,1,-3,-12,1,-5,-11,2
2.473899,-8,-4,-2,0,0,-3,-3,12,2
2.473961,30,33,3,2,-6,5,2,2,2
2.475002,24,-22,5,1,3,-5,-10,2,2
2.475006,-30,77,5,0,6,-5,0,-39,2
2.488317,11,-89,-17,-6,-2,10,-2,9,2
2.488383,-61,25,-4,-3,-3,3,-8,-11,2
2.489695,-29,-45,-3,0,-3,-7,2,21,2
2.489700,57,45,3,0,2,3,-6,-12,2
2.510670,-34,2,4,1,-3,-11,-2,-20,2
2.510913,-16,55,7,3,1,5,1,14,2
2.511308,-41,-21,1,-2,-4,-13,-1,25,2
2.511314,-55,-65,-15,-4,0,7,-9,-20,2
2.534092,-73,26,-2,-2,0,-5,0,23,2
2.534113,43,-46,0,-1,-2,2,-4,-35,2
2.536699,12,22,3,0,-3,-1,4,1,2
2.536709,31,-3,2,0,0,-2,-5,2,2
2.549060,63,32,5,1,2,-5,-1,0,2
2.549090,-52,21,-6,-3,0,9,2,-9,2
2.551442,-82,-74,-12,-5,-8,-18,-12,8,2
2.551448,-13,32,6,3,1,-9,-5,3,2
2.571314,51,-82,-9,-3,1,10,-5,5,2
2.571321,10,-19,-2,-1,-3,1,5,-54,2
2.571576,23,13,2,1,1,4,-4,-1,2
2.571582,2,-17,-11,-5,-2,2,1,1,2
2.593038,-9,72,17,4,0,-8,3,-8,2
2.593060,-34,-29,2,-3,-25,-11,-10,21,2
2.602261,63,-5,-4,-4,21,2,1,8,2
2.602268,12,-50,-9,-3,-8,-2,-2,-30,2
2.608556,-4,3,-10,-4,-5,-5,-5,44,2
2.608585,60,38,5,2,1,1,5,4,2
2.610879,-43,3,-1,-2,-7,6,-2,-13,2
2.610884,29,28,5,2,2,1,0,14,2
2.631044,32,14,0,0,2,0,0,12,2
2.631073,-57,-8,-3,-3,1,0,-3,5,2
2.633435,12,-6,8,3,-5,-6,5,25,2
2.633440,-46,15,-8,-2,2,2,-5,-19,2
2.654435,-47,30,1,0,-4,0,1,-39,2
2.654463,78,-63,-10,-4,4,-6,1,7,2
2.654771,-8,33,0,0,-3,-7,-3,-1,2
2.654778,5,-28,1,0,-1,17,8,32,2
2.668495,-2,2,1,0,0,-4,0,-33,2
2.668523,-13,35,6,3,4,-1,0,7,2
2.669114,9,-3,-2,-2,-36,-3,3,5,2
2.669138,53,-6,2,2,38,-1,-3,35,2
2.691040,11,-14,-6,-5,-3,-8,-2,-28,2
2.691063,-5,17,6,3,9,3,4,22,2
2.693237,55,50,-7,-7,-8,0,-7,-37,2
2.693240,-74,-68,-7,-4,-10,-17,-3,7,2
2.713913,44,-19,-3,0,1,19,-2,-7,2
2.713925,-61,6,6,3,1,0,0,-5,2
2.714707,29,21,0,2,21,3,9,-3,2
2.714774,18,89,7,-3,-35,-6,-11,44,2
2.728308,28,-55,-10,-3,10,-6,2,-75,2
2.728323,-7,-24,-5,-3,-6,0,-3,-9,2
2.728827,30,1,0,-2,4,-2,-3,-1,2
2.728839,10,36,1,-1,2,4,0,10,2
2.750935,-26,-32,-1,-1,-6,-4,-2,23,2
2.750954,57,43,6,2,2,-2,2,14,2
2.753298,-22,-11,1,2,7,3,-3,-10,2
2.753303,20,-22,-3,-1,-1,-1,3,-19,2
2.774414,-2,38,2,-1,-6,-5,1,22,2
2.774418,-18,-27,-2,-1,9,2,-1,-6,2
2.774587,-41,-41,-7,-2,-11,-1,-2,11,2
2.774645,18,-18,0,1,-2,5,-1,-18,2
2.789550,-59,-12,2,0,5,-3,8,6,2
2.789556,67,70,0,-2,-10,-14,-6,11,2
2.789558,-22,-20,-4,-2,1,8,6,-29,2
2.789559,30,35,9,2,3,1,0,5,2
2.810945,-84,-41,-11,-4,-3,-2,-4,2,2
2.810969,38,-5,0,1,1,1,-2,8,2
2.812306,-10,23,2,0,-2,-3,-2,-7,2
2.812313,-33,-31,-2,0,6,2,7,-10,2
2.835589,73,66,12,6,10,-22,-12,-16,2
2.835596,47,-29,-6,-6,-27,27,15,21,2
2.835598,-65,-18,-4,-4,28,-6,-15,-42,2
2.835600,-8,-30,-3,-1,-14,1,12,13,2
2.848851,-58,24,5,1,-2,-3,-6,-31,2
2.848892,44,-1,1,1,9,-7,-5,-3,2
2.851721,18,28,0,-1,-12,0,0,17,2
2.851727,-9,8,0,-1,0,0,0,-26,2
2.871211,-35,-37,-3,-5,0,-2,-6,-21,2
2.871249,22,23,5,0,0,-2,-3,14,2
2.872041,-53,-34,0,1,-6,6,17,30,2
2.872070,-42,-48,-9,-4,3,-4,-6,-21,2
2.894819,37,2,-1,0,-8,1,-1,33,2
2.894853,12,34,4,1,3,-15,-3,-4,2
2.897738,-55,-23,-9,-5,-1,11,-6,1,2
2.897744,42,50,3,0,-2,3,-2,9,2
2.907768,-23,-25,-1,0,6,2,7,15,2
2.907792,-30,-20,-3,-3,-2,-1,-3,-14,2
2.916556,-36,-23,3,0,-33,-11,-5,-4,2
2.916586,35,50,1,0,43,5,6,32,2
2.931049,-69,-30,-2,-3,-12,4,-5,5,2
2.931063,-18,-16,-5,-2,3,-10,-2,16,2
2.931589,2,-25,-4,-1,-4,3,2,35,2
2.931607,-33,23,-1,-4,-13,-3,-8,-52,2
2.954529,124,-1,2,0,-2,1,5,31,2
2.954567,-56,-28,0,0,9,-3,-8,-21,2
2.956117,83,24,3,1,1,0,8,6,2
2.956122,-45,-16,-1,-1,-8,-8,-9,-11,2
2.967699,127,78,7,3,12,9,7,59,2
2.967723,-57,-49,-15,-7,-18,-13,-1,-38,2
2.975878,-73,-1,-8,-5,2,5,-20,-88,2
2.975894,77,-21,0,0,-3,-4,-2,1,2
2.991792,-33,-21,-2,0,-9,-3,-1,7,2
2.991796,70,36,5,1,5,7,-4,12,2
2.991798,-43,2,4,2,-4,-6,2,9,2
2.991799,-6,21,2,1,27,-6,0,4,2
3.014098,-21,-18,-8,-6,-13,4,-7,-34,2
3.014249,16,8,0,2,0,-2,5,-9,2
3.015732,42,-2,-2,0,10,-5,-1,16,2
3.015749,26,-37,-4,-1,-19,-3,4,9,2
3.027726,-44,-20,-3,0,2,9,-1,-8,2
3.027750,69,61,11,5,10,5,3,9,2
3.036333,-26,-49,-10,-6,-11,-5,-5,31,2
3.036379,39,-16,0,-2,-7,5,4,-32,2
3.050845,-4,-4,-2,-2,1,-12,-10,-27,2
3.050874,-14,24,-8,-4,-5,-1,-3,-30,2
3.052497,21,-28,6,2,7,3,5,26,2
3.052523,11,15,2,1,-8,-6,-2,16,2
3.073932,-49,-4,-2,-3,0,-4,-1,-2,2
3.073951,-22,-24,0,-1,-2,-5,1,11,2
3.074681,36,45,0,-1,-28,0,-2,-17,2
3.074701,-41,-13,-6,-1,33,4,1,16,2
3.087853,54,11,3,1,-6,-2,1,8,2
3.087884,6,22,5,3,18,6,1,-26,2
3.095820,62,-17,-1,-3,-9,-4,-9,7,2
3.095840,-22,-16,-2,-3,-17,-8,3,-66,2
3.110762,18,-25,-11,-4,1,15,13,6,2
3.110780,18,1,-2,-6,-2,-24,-10,11,2
3.112087,-28,-16,-1,-1,15,20,12,-6,2
3.112092,23,30,8,2,-10,-1,-3,38,2
3.134293,18,3,-2,1,4,-4,-6,-39,2
3.134302,-24,0,0,0,-7,2,0,22,2
3.134800,32,11,1,0,9,-9,-9,15,2
3.134853,-78,-23,-7,-6,-10,0,3,16,2
3.156525,17,20,4,-1,-4,-5,-4,-13,2
3.156546,-56,-24,-5,-2,-4,2,2,49,2
3.157614,107,62,-1,0,4,1,-9,-33,2
3.157618,-62,0,0,0,-2,3,-3,1,2
3.171072,13,-26,1,0,-1,-5,3,8,2
3.171111,-34,-1,2,2,-2,6,-1,-2,2
3.171626,72,12,1,0,3,-7,5,25,2
3.173399,21,12,-3,-1,-3,3,4,18,2
3.195904,-9,-8,2,-1,-3,-12,-10,-12,2
3.195908,29,-33,-3,-1,4,4,2,0,2
3.195910,-61,-23,-3,-2,-8,-7,0,-13,2
3.195911,38,12,0,-1,-4,0,-1,18,2
3.207567,-18,43,11,6,5,1,3,27,2
3.207590,-35,-64,-10,-3,-9,4,-1,-30,2
3.215853,-7,7,-1,-1,7,-5,-1,-2,2
3.215881,80,20,4,2,-3,-1,-4,-22,2
3.231139,-95,-9,-5,-4,0,-1,-3,-22,2
3.231252,20,33,3,0,-2,-1,-3,-19,2
3.233512,-10,21,-2,0,2,-13,0,26,2
3.233518,37,17,0,-2,0,16,1,-4,2
3.254149,-53,-86,-10,-2,-6,-1,-3,13,2
3.254168,-60,22,-6,-4,-1,1,-3,-5,2
3.256109,-55,-19,5,-1,2,-4,-3,-25,2
3.256113,-21,35,2,-1,-7,-8,-5,-1,2
3.276823,89,-1,-1,-2,0,-2,2,2,2
3.276898,-15,8,2,-2,-23,-10,-7,23,2
3.277293,-23,42,2,2,20,20,12,-6,2
3.277310,51,-95,-12,-3,-4,-7,-7,9,2
3.290683,35,5,-1,0,4,7,5,-8,2
3.290697,35,7,0,0,-5,-5,-2,11,2
3.291791,-26,43,0,-3,-9,-7,-6,-44,2
3.291813,-7,-3,1,-1,-1,11,5,-31,2
3.314521,41,68,-4,-2,-8,-14,-14,-13,2
3.314550,35,-75,-10,-5,6,4,3,18,2
3.317269,-22,19,4,4,2,6,3,6,2
3.317280,-2,-20,-1,-2,1,-10,0,32,2
3.336947,-14,7,-5,-3,-5,-2,-3,19,2
3.337282,-27,63,5,1,5,1,-3,-10,2
3.337290,-16,-29,-4,0,3,3,1,12,2
3.337322,6,22,6,1,-4,-9,-7,-7,2
3.351680,51,-35,-12,-6,-1,5,6,15,2
3.351687,-41,16,1,0,-31,-15,-3,5,2
3.351688,18,-35,0,1,38,21,1,-40,2
3.351691,17,29,7,4,5,-9,2,35,2
3.374470,9,-20,-9,-6,-9,10,-11,-33,2
3.374499,1,-9,-6,-3,1,0,4,-9,2
3.376507,-12,0,-3,-3,-13,-9,-6,7,2
3.376511,-7,-17,-1,1,-1,-5,1,-16,2
3.398380,-34,-21,4,1,8,3,-1,-2,2
3.398390,23,-3,3,0,7,4,0,4,2
3.398392,55,30,2,0,-11,-10,-4,21,2
3.398393,-87,-53,-9,-5,3,3,-8,-25,2
3.411318,-33,10,1,1,-6,-7,3,-2,2
3.411341,26,-34,-2,-3,7,7,2,9,2
3.413247,42,37,7,2,-5,-6,3,19,2
3.413251,-23,-17,-8,-3,-6,1,-4,-4,2
3.434160,37,10,7,3,1,-3,-1,15,2
3.434183,-19,-54,-4,-1,5,1,-2,-13,2
3.435636,14,23,0,-4,-40,-7,-2,6,2
3.435645,81,57,6,2,40,-12,1,1,2
3.456560,-128,-30,-5,-1,-4,16,9,-10,2
3.456581,101,42,3,1,5,-1,-9,-28,2
3.458780,15,-67,-4,-2,-8,0,0,12,2
3.458792,-8,16,0,-2,-12,1,-2,-14,2
3.470928,12,34,5,0,3,-9,2,18,2
3.470946,-22,11,-1,-1,3,-8,1,9,2
3.472263,3,11,2,-1,7,28,4,-9,2
3.472272,-17,-7,-4,-3,-12,-15,-6,-14,2
3.493985,4,-58,-4,-2,19,4,6,62,2
3.494026,42,6,-1,-4,-17,2,9,4,2
3.494650,-21,54,-2,0,5,-10,-5,-10,2
3.494665,14,-51,-14,-6,-11,6,-5,13,2
3.516731,-15,50,6,2,0,-5,5,17,2
3.516859,18,-4,1,1,5,0,-1,-5,2
3.518229,16,24,1,0,-5,-8,1,10,2
3.518232,-15,13,6,2,27,9,4,-2,2
3.530885,-57,8,-2,1,-15,-7,-5,-40,2
3.530900,69,27,-1,-1,1,2,-3,26,2
3.533919,-110,-57,-8,-3,6,-3,1,3,2
3.533926,-41,-21,-4,-2,-18,2,1,6,2
3.554403,7,0,-4,-2,-2,-5,-6,10,2
3.554433,-4,43,7,3,9,2,-3,-28,2
3.554718,75,3,13,7,-3,-9,7,38,2
3.554736,-89,-54,-22,-9,-2,-1,-16,-77,2
3.577889,119,68,4,-2,-16,-9,-1,6,2
3.577912,-128,-110,-16,-7,-7,8,8,13,2
3.579771,81,-2,-7,-5,4,-7,-10,-35,2
3.579775,30,5,8,4,-6,0,3,-18,2
3.590811,2,40,3,0,7,0,-1,5,2
3.590827,-3,-35,-2,-2,-1,-3,-7,-33,2
3.592799,-36,-12,1,-2,-2,-5,2,5,2
3.592802,37,37,2,1,-1,4,7,36,2
3.616529,-24,-67,-1,-2,-11,-3,-7,-41,2
3.616536,-22,54,-1,-1,6,0,-1,9,2
3.616538,-97,-40,-3,-1,4,2,-5,-11,2
3.616540,109,19,-2,-4,-6,-4,6,-28,2
3.636686,-12,-7,0,-1,-5,1,0,18,2
3.636717,-13,35,5,0,-1,-2,-6,-30,2
3.638110,9,-53,-4,-2,3,0,-2,-1,2
3.638115,-28,8,6,3,-13,-12,-4,24,2
3.650820,-6,33,3,1,4,7,2,-11,2
3.650844,32,-38,-5,-3,3,13,9,47,2
3.651515,-54,26,-14,-7,-3,-12,-15,-13,2
3.651531,-20,-31,5,1,-2,-1,4,21,2
3.674147,50,-28,-3,-1,5,-3,-3,3,2
3.674162,-56,49,9,3,2,-2,1,-11,2
3.677295,29,-49,1,0,-5,-1,0,37,2
3.677302,-42,-7,-6,-3,-11,3,-6,-40,2
3.696614,-37,43,-1,1,10,-1,1,-14,2
3.696634,-4,-24,-4,-2,-7,-4,-3,8,2
3.697322,56,16,-2,-1,5,1,1,-15,2
3.697339,5,36,1,0,-9,-5,-6,19,2
3.711213,-17,-30,0,-1,-1,6,5,-17,2
3.711234,49,11,-5,-2,6,-5,-3,-6,2
3.711845,-20,5,0,0,-14,3,4,-4,2
3.711857,2,45,6,0,5,2,3,7,2
3.734013,-30,14,-3,-1,-3,-32,-16,15,2
3.734066,-27,-38,-5,-1,-1,35,15,-11,2
3.735654,38,-4,-5,0,5,-3,-1,5,2
3.735667,53,-18,3,1,4,6,4,30,2
3.756791,-10,11,-4,-3,-1,-5,0,-9,2
3.756797,11,21,6,0,-34,-16,-8,-19,2
3.757933,86,29,0,1,30,15,0,-8,2
3.757949,-40,4,-5,-2,-1,-11,-11,2,2
3.772308,2,-39,2,0,3,5,2,2,2
3.772315,22,6,-2,-2,-4,-7,-3,11,2
3.780076,-17,32,1,0,-9,3,7,9,2
3.780081,-3,-97,-5,-2,-1,-1,-7,-18,2
3.794029,-21,-6,2,0,-4,5,0,-9,2
3.795562,27,18,2,1,9,0,-10,3,2
3.795567,-38,8,1,-1,-7,-11,18,2,2
3.795568,15,15,-3,-1,7,5,4,6,2
3.816565,-69,-30,-9,-3,-6,-1,-1,1,2
3.816585,7,22,6,3,7,-1,4,-2,2
3.818166,66,-8,-2,-4,1,-6,-11,25,2
3.818175,37,14,-2,-3,-12,1,-3,-4,2
3.830481,15,36,0,0,1,5,4,-3,2
3.830509,18,-35,-4,-1,0,-20,-6,6,2
3.839530,-45,-18,-4,0,4,19,-1,2,2
3.839534,-12,6,2,1,6,0,2,28,2
3.854337,-12,8,-2,-2,-28,0,0,-39,2
3.854365,8,48,-4,-3,50,-3,-3,15,2
3.855484,-58,-40,2,-1,-13,-23,-11,-19,2
3.855499,11,0,0,-1,-2,20,10,4,2
3.877803,14,-39,1,0,2,0,-2,2,2
3.877820,25,4,-1,-2,-12,-5,1,5,2
3.879304,-60,5,-3,-1,-4,-2,-1,-25,2
3.879316,-22,39,3,2,5,-3,-2,-3,2
3.890134,71,-10,1,-2,2,3,3,6,2
3.890156,-40,-69,-7,-2,-10,-6,-6,-15,2
3.900251,63,47,5,1,1,-4,-3,7,2
3.900257,-87,-39,-6,-2,-4,-5,-1,-20,2
3.914450,39,42,1,0,5,2,0,29,2
3.914454,-8,24,2,-2,-5,1,-5,25,2
3.915643,-21,-8,-7,0,6,3,-2,5,2
3.915664,-40,-34,-2,-2,-5,0,1,4,2
3.936981,31,-25,-4,-3,2,-6,4,16,2
3.937029,-41,11,4,1,-36,0,-2,-32,2
3.938048,91,49,2,0,41,-11,0,17,2
3.938058,-14,7,2,2,0,15,-1,13,2
3.950145,-8,8,0,0,0,-5,3,5,2
3.950169,59,14,5,3,2,-11,-4,-12,2
3.960384,-34,-80,-6,-4,-14,22,5,15,2
3.960388,-23,14,-7,-5,-3,-15,2,-5,2
3.974121,50,3,3,2,2,2,-1,-10,2
3.974143,4,39,-1,-1,3,-2,0,10,2
3.975833,-99,-12,0,0,-11,-5,-1,-26,2
3.975840,26,0,2,0,4,0,3,6,2
3.996962,78,68,5,3,-1,-5,-7,2,2
3.996982,-73,-99,-13,-2,5,-4,3,-12,2
3.998306,8,31,1,-1,-8,1,-3,0,2
3.998373,-40,-76,0,-2,-2,-4,-2,-6,2
4.010436,-4,29,-1,-2,1,2,-3,-13,2
4.010510,13,30,2,0,21,3,2,-1,2
4.020888,103,-19,2,1,-15,1,6,46,2
4.020894,31,19,2,0,-1,-5,-7,-62,2
4.034115,-84,-59,-13,-2,5,2,0,3,2
4.034141,6,26,0,-2,-9,1,0,5,2
4.035794,23,-5,2,1,-6,-2,2,-5,2
4.035802,-11,55,0,1,7,-2,-5,14,2
4.057132,10,-22,-4,-2,-8,-2,-3,-24,2
4.057143,-72,-5,-1,-1,-4,-10,1,6,2
4.058017,-27,20,-1,-1,1,14,-2,-31,2
4.058036,77,-24,-3,0,-3,-3,0,-4,2
4.072895,-58,-28,-5,-2,2,-3,-6,14,2
4.072902,51,20,1,1,-2,3,2,3,2
4.080944,28,-46,-4,-2,1,-6,-3,-18,2
4.080947,-30,-11,-1,-3,-2,-5,1,-6,2
4.093983,23,19,3,0,-1,1,-3,21,2
4.094004,33,-12,0,0,2,-9,-2,0,2
4.095514,-70,-25,-5,0,-4,16,5,-9,2
4.095518,87,26,0,0,-22,1,7,54,2
4.118694,84,67,7,1,58,8,2,-44,2
4.118700,-127,-93,-16,-8,-38,-16,-25,-17,2
4.118703,56,37,-2,-2,6,-3,4,-23,2
4.118705,-71,43,-2,-1,-1,-4,-2,-4,2
4.130472,11,-41,-4,-1,-9,-1,4,13,2
4.130500,38,28,4,3,6,10,1,2,2
4.140558,-13,-1,1,0,2,-8,-4,4,2
4.140569,33,9,0,-2,-1,1,-3,-14,2
4.154011,-11,16,3,0,-11,0,3,17,2
4.154028,13,-17,-3,-1,8,5,0,-31,2
4.155554,28,-8,1,-1,-13,-18,-4,-8,2
4.156956,-37,47,0,1,13,19,5,28,2
4.176576,17,-28,-3,-2,-10,-2,0,-18,2
4.176594,88,38,7,1,4,7,5,27,2
4.178379,-75,-22,-9,-7,-2,-8,-11,-53,2
4.178383,58,28,0,0,-34,-10,-11,-19,2
4.199621,-74,-45,-7,-2,36,3,-4,8,2
4.199669,-31,24,6,2,-3,6,6,-10,2
4.201957,42,-8,1,-2,-1,0,-3,42,2
4.201963,-11,18,1,-1,4,4,0,-7,2
4.213859,-29,-38,-2,-3,-21,-23,-6,7,2
4.213875,58,2,-2,-1,9,18,11,10,2
4.215611,-49,24,2,-1,0,1,-2,-2,2
4.215678,-95,-31,-4,-2,7,-1,-1,-38,2
4.236904,35,25,4,1,-10,-11,-4,1,2
4.236949,-27,24,3,-1,7,-2,1,10,2
4.238746,63,30,4,2,7,-6,-6,-20,2
4.238751,-59,-79,-20,-10,-18,-12,-3,34,2
4.258890,-17,6,1,-2,-8,17,-9,-2,2
4.258905,-74,-16,-3,-2,-4,-5,-2,-19,2
4.260505,29,25,3,3,-33,1,0,16,2
4.260522,-17,20,3,3,40,-1,4,14,2
4.273910,-10,19,2,0,-10,-1,-2,-16,2
4.273917,18,-27,-4,-3,-1,0,-1,12,2
4.275384,-11,1,0,0,-1,-1,1,7,2
4.275389,53,-60,-3,-2,-2,-4,-7,17,2
4.296442,10,14,-1,-1,-7,1,0,-19,2
4.296459,104,49,7,2,3,2,7,28,2
4.297909,-96,-61,-6,-6,4,-6,-9,-50,2
4.297912,27,17,-1,-1,-3,-5,-2,-16,2
4.319253,19,29,1,0,2,7,3,12,2
4.319293,7,-29,2,1,-3,-5,1,17,2
4.321378,-20,4,-4,-3,2,-13,-4,22,2
4.321385,11,1,2,0,2,27,5,-10,2
4.333508,-29,-12,-4,0,-7,-14,-3,-5,2
4.333546,-76,-13,-2,-3,0,-3,-5,-1,2
4.340123,39,11,-3,0,0,3,5,5,2
4.340140,10,-19,2,1,-35,-8,-3,-6,2
4.356476,-23,32,5,1,34,7,-1,15,2
4.356498,35,-1,0,-1,-5,-12,-3,-32,2
4.358132,54,3,-6,-1,10,13,0,2,2
4.358153,63,33,1,2,-2,-5,-1,-2,2
4.378956,-50,-14,-2,-3,-12,1,3,17,2
4.378983,-59,-27,-2,-1,-1,0,-1,-47,2
4.380983,-6,15,3,1,7,2,2,64,2
4.380986,-12,3,0,-3,-1,-6,-6,-42,2
4.393248,50,-26,-3,-2,-8,1,7,28,2
4.393272,2,34,0,-2,6,0,-9,-11,2
4.400294,54,11,5,1,-7,-1,0,20,2
4.400313,-107,-53,-18,-7,10,-1,-1,-1,2
4.416467,63,4,-4,-3,-3,-5,-4,-4,2
4.416484,-4,5,-1,-1,-9,0,2,12,2
4.418048,29,5,0,0,3,-1,-4,-6,2
4.418068,54,38,9,4,7,-2,5,5,2
4.438959,-14,-9,-1,-3,-44,-2,-3,-19,2
4.438983,-94,13,-2,-1,44,5,-1,0,2
4.440463,57,-26,0,0,-6,-17,-8,-16,2
4.440477,-41,40,6,2,7,10,13,29,2
4.453527,-21,-96,-18,-5,-8,-1,5,-10,2
4.453545,17,0,-4,-1,-17,-1,-7,-23,2
4.460604,-52,2,-3,-2,10,1,5,0,2
4.462233,37,27,7,1,2,-8,-6,3,2
4.477854,-4,12,4,0,6,-1,-3,-6,2
4.477862,49,32,5,1,-6,-1,3,21,2
4.477867,-64,-77,-10,-5,0,3,0,-16,2
4.477871,34,-16,-3,-2,-3,-5,-1,-7,2
4.499283,10,59,6,3,9,5,-4,5,2
4.499307,22,-60,-7,-2,-3,-2,-4,-19,2
4.501639,-40,33,2,0,-11,0,-5,-20,2
4.501648,43,7,3,2,7,1,-3,-11,2
4.513423,-71,9,-3,-1,1,-4,-4,37,2
4.513634,-36,5,-1,-2,-7,-1,-2,2,2
4.520314,66,-65,-2,0,0,2,1,11,2
4.520332,-38,-19,-2,-3,-34,-7,-6,15,2
4.535718,42,32,4,2,39,3,4,-6,2
4.535755,47,13,1,-1,-8,-1,-5,-30,2
4.544112,-41,48,3,0,2,3,2,1,2
4.544132,18,-2,4,1,0,-3,-5,-7,2
4.559271,14,-20,-9,-5,-12,-5,-4,-6,2
4.559295,18,-5,-2,-2,-1,0,-1,1,2
4.561668,-103,41,-2,-1,-4,-11,-5,-15,2
4.561674,-12,-53,-2,-1,7,3,5,-14,2
4.572681,37,27,4,0,-2,16,3,14,2
4.572699,-16,-20,-3,-2,1,-2,-6,-36,2
4.583345,41,28,7,4,-2,11,9,17,2
4.583356,-24,7,-9,-6,0,-11,-25,-38,2
4.596379,-10,-38,0,-1,-4,-12,6,16,2
4.596402,-50,-11,-10,-4,-9,-3,-5,-23,2
4.598004,17,-9,5,3,-8,4,8,1,2
4.598022,41,-3,1,-2,39,4,1,10,2
4.619514,-1,7,2,1,-4,1,-8,-10,2
4.619552,46,6,0,-2,-12,-2,-5,27,2
4.620700,25,29,0,-1,2,-2,-6,-23,2
4.620730,-8,14,1,-1,-9,-1,4,27,2
4.633327,-94,-30,-4,-3,1,-5,-2,-39,2
4.633348,58,-28,-1,0,11,4,6,-11,2
4.640113,-2,-6,-3,-3,-8,-2,-2,-1,2
4.640129,-5,17,-1,0,-2,0,6,16,2
4.656413,-7,-9,1,-1,-2,-2,-6,-1,2
4.656435,30,33,-2,-3,-7,-4,-1,9,2
4.657982,-20,11,4,2,3,-4,0,16,2
4.657996,52,-14,0,0,-1,7,4,-32,2
4.678921,-16,2,-6,-3,-5,-2,-14,15,2
4.678936,-7,-60,-9,-6,-1,2,11,16,2
4.680426,20,6,-1,-1,3,1,-3,-4,2
4.680445,-19,10,-1,-1,0,-12,-4,18,2
4.693301,45,3,-2,0,-5,0,4,0,2
4.693306,-11,-5,1,0,1,1,-1,29,2
4.702820,-27,34,11,3,-20,-7,-3,25,2
4.702842,74,27,-9,-2,25,10,3,-3,2
4.716627,-68,-85,-11,-6,-13,-10,-11,-19,2
4.716649,-8,5,1,-1,4,-5,-1,-1,2
4.718655,-44,-12,-6,-5,-8,-1,-2,-15,2
4.718661,0,43,5,2,-3,1,2,16,2
4.740883,24,17,1,0,3,3,-1,-5,2
4.740887,-10,9,2,1,-3,-3,1,17,2
4.740890,-4,-12,-6,-1,8,2,-1,-18,2
4.740892,2,-5,0,0,-9,-4,-6,-11,2
4.753181,-57,4,3,0,2,-2,6,1,2
4.753220,-3,57,7,1,-6,0,0,3,2
4.763319,10,-64,-8,-1,7,-1,-2,-18,2
4.763325,-2,-13,-10,-6,-5,-18,-8,-6,2
4.776767,49,12,-3,-1,-4,20,10,-11,2
4.776786,-15,18,1,0,3,1,3,4,2
4.778204,4,22,1,-1,2,2,-3,12,2
4.778212,-7,-17,2,1,-12,-5,0,-4,2
4.799319,54,80,8,1,29,-8,-2,-19,2
4.799343,-94,-90,-6,-3,-11,12,-7,1,2
4.801412,32,-23,-8,-2,1,-3,-1,-17,2
4.801418,-7,-16,4,2,-1,1,-3,10,2
4.821583,-6,3,-1,-1,-11,-3,13,13,2
4.821604,79,28,-3,-4,1,-5,-10,-8,2
4.823024,-4,11,1,-2,3,-3,4,31,2
4.823040,-70,-9,-2,-1,-8,0,-9,-14,2
4.836776,50,40,4,2,-1,3,3,7,2
4.836839,-65,30,1,0,1,-8,-6,12,2
4.838043,-8,-62,-8,-1,-3,2,5,-10,2
4.838080,25,-28,-5,-1,1,4,1,30,2
4.859148,42,29,0,-1,-5,-13,-4,4,2
4.859177,18,-30,-5,-1,3,-3,-2,-51,2
4.861120,-68,19,0,-2,-1,-2,-4,11,2
4.861124,22,2,0,-1,0,5,3,-6,2
4.872720,12,19,3,1,15,-1,-2,5,2
4.872742,12,-6,-2,0,-15,-12,2,19,2
4.883781,99,13,4,-1,0,18,-3,51,2
4.883787,26,-30,-8,-5,2,-4,-5,-15,2
4.896438,-101,5,2,3,-14,17,5,3,2
4.896442,31,-28,-6,-3,0,-18,-16,-6,2
4.897886,41,25,-2,1,7,-3,4,1,2
4.897900,-13,-7,-1,-1,-9,0,3,12,2
4.919274,21,-1,0,-1,-4,-6,-7,-21,2
4.919311,47,-20,-1,3,20,5,1,21,2
4.921014,-64,8,-3,-3,-24,4,14,-16,2
4.921019,-101,6,2,1,7,-1,-1,-17,2
4.932847,12,39,-3,-4,-7,-3,-6,-10,2
4.932867,-7,-68,-1,0,8,0,3,-2,2
4.941561,-2,15,3,1,0,-6,-6,0,2
4.941577,41,38,2,1,0,1,3,-52,2
4.956484,10,-52,0,0,0,-4,-2,40,2
4.956509,26,31,-4,-3,-32,2,6,17,2
4.957940,53,8,1,1,26,-1,-7,-32,2
4.957948,-84,2,-1,-1,-4,0,1,-11,2
4.979542,-28,-77,-5,-1,3,-5,-3,18,2
4.979562,-31,39,1,-1,-11,-3,1,-14,2
4.981725,-44,1,1,0,-1,11,2,20,2
4.981735,127,37,4,1,2,4,-2,9,2
4.992997,-49,-47,-6,-4,-11,-12,-8,-23,2
4.993019,-51,16,1,-1,8,0,4,13,2
9.005776,-2,-1,0,0,1,-2,-2,0,0
9.006015,-2,-3,-1,0,0,-2,-1,0,0
9.006696,-1,-1,-1,0,-2,1,-2,-3,0
9.006765,-1,-1,-2,-2,-1,-1,0,0,0
9.028202,-1,-1,-1,-1,-2,-1,0,-2,0
9.028224,-2,0,-1,0,0,-1,-2,1,0
9.029523,-1,0,0,-1,-1,-1,-2,0,0
9.029526,0,-1,-2,1,-1,-1,0,-1,0
9.050825,0,-1,0,-2,-2,1,-2,0,0
9.050853,0,0,0,0,-2,-1,-1,-1,0
9.051711,0,-1,0,-2,0,0,1,-1,0
9.051765,-2,-2,0,0,-2,-1,0,1,0
9.065908,1,-3,-1,-1,-2,-1,-1,0,0
9.067892,-1,0,-1,-2,0,0,0,0,0
9.067899,-2,-1,-1,-1,-1,-3,0,-1,0
9.067901,-2,-1,-1,-3,0,0,0,-1,0
9.088409,-1,0,0,1,-2,0,0,0,0
9.088432,-1,-1,0,-1,-2,-1,0,0,0
9.089792,0,-1,-1,-1,-2,0,-2,-1,0
9.089798,-1,-1,0,-2,-1,-1,-2,-2,0
9.110749,-3,-1,-1,-3,-2,-1,-2,-1,0
9.110759,-1,-1,0,-1,1,0,0,-2,0
9.111336,0,-3,0,-1,-2,-1,-2,0,0
9.111342,1,-2,-3,1,0,-1,0,0,0
9.125845,1,-1,0,-2,-1,-2,0,0,0
9.125869,-2,0,-3,-2,-2,-1,-1,0,0
9.128068,-1,-1,-1,-1,0,0,-1,0,0
9.128077,0,-2,-1,0,-2,-2,0,-1,0
9.148497,-1,1,0,-2,0,-1,0,-2,0
9.150917,0,-2,-2,-1,-1,-2,-2,-1,0
9.150924,-3,0,0,-1,-1,-1,-1,0,0
9.150926,-1,1,-1,-2,-1,-1,-1,-2,0
9.172648,0,-2,0,-1,0,-1,-1,-1,0
9.172653,0,0,0,0,-2,-1,0,-2,0
9.172655,-1,-1,-2,-3,1,0,-2,-1,0
9.172657,-2,0,-1,0,-3,0,-1,-2,0
9.185179,-2,-1,-3,-2,-1,-1,-1,-1,0
9.185209,0,3,-1,0,-1,-1,-2,-2,0
9.193416,-1,5,0,1,-2,-2,0,-1,0
9.193431,-3,-33,-5,-3,-2,-1,-1,-1,0
9.208355,-1,2,-4,-1,0,0,-1,1,0
9.208397,-1,-4,0,1,-2,0,0,-1,0
9.209271,2,5,0,-1,1,-1,-3,-1,0
9.209289,1,9,1,0,0,-2,0,0,0
9.230721,-2,-2,0,-1,-1,-2,-3,-1,0
9.230743,-1,0,-2,-2,-1,-1,-1,0,0
9.232314,-1,-2,-1,0,-2,-1,-2,-1,0
9.232327,0,4,-2,-1,0,-1,-1,-3,0
9.245011,-1,-2,-1,-1,-1,-1,0,0,0
9.245034,-1,3,1,-1,-2,-1,-2,-1,0
9.253537,-3,-6,-1,-2,-2,0,0,-1,0
9.253563,-2,2,0,-1,0,-1,-2,-2,0
9.268389,3,14,2,0,-1,-1,-2,-2,0
9.268406,-4,-9,-2,-1,-2,-1,0,-1,0
9.269338,-7,-25,-4,-2,0,-1,-1,-2,0
9.269503,-2,4,0,0,-2,-1,-1,-1,0
9.290898,0,-2,-3,-2,0,1,-1,0,0
9.290919,2,9,0,-1,1,0,0,0,0
9.293633,2,0,-1,0,-2,0,0,-1,0
9.293639,0,2,-2,-1,-1,0,0,-2,0
9.305103,-2,-2,0,1,-1,-1,-1,-1,0
9.305127,-1,-3,0,-2,-3,-1,-2,-2,0
9.313394,-1,3,-1,-2,-1,-1,0,-2,0
9.313408,0,3,0,-1,-2,-2,-1,0,0
9.328742,-2,-3,-2,-1,0,-2,-1,-3,0
9.328750,1,11,-1,-2,-1,-1,-1,-2,0
9.328970,-2,-25,0,-2,-1,0,-1,-1,0
9.329003,-1,3,-1,-1,-1,0,-1,0,0
9.350848,3,-2,0,-1,-3,-2,-1,0,0
9.350864,-7,1,-4,0,1,-1,0,-1,0
9.352917,6,10,-1,0,0,-2,-1,-3,0
9.352929,-2,-3,-2,-2,-1,0,-2,-1,0
9.365582,-1,-3,-1,-1,0,-1,-2,-1,0
9.365606,1,-8,1,-1,-1,0,-2,-1,0
9.374733,-1,8,-2,0,-2,-3,-1,1,0
9.374737,-4,-5,-2,-2,0,-1,-2,-2,0
9.388349,-3,1,-3,0,-1,-1,1,-2,0
9.388367,0,-6,-2,-1,-1,-1,-2,-1,0
9.390541,-4,2,-1,-2,0,-1,-1,-1,0
9.390545,6,18,3,0,1,-3,-1,-1,0
9.411293,-4,-10,1,0,-1,0,-1,-2,0
9.411311,-3,-19,-1,0,-1,-2,0,-2,0
9.413545,-1,2,-4,-2,-1,-1,0,-1,0
9.413552,0,0,-1,2,-2,0,0,-1,0
9.425286,1,7,0,1,-1,0,0,0,0
9.425308,-2,0,0,-2,0,-3,0,0,0
9.433485,1,1,0,1,-1,-2,-2,-2,0
9.433504,-6,3,0,-3,-1,0,-1,-2,0
9.448684,0,-6,-1,-2,-1,-1,0,-1,0
9.450856,2,-2,-2,-2,-1,-2,-1,-1,0
9.450862,-1,4,0,-2,-2,-2,0,0,0
9.450864,0,-4,0,-2,-1,-2,-2,0,0
9.470959,-1,-2,1,1,-1,0,-2,-2,0
9.470967,0,3,-2,-1,-2,1,-1,0,0
9.471446,1,4,0,-1,0,0,-1,-1,0
9.471452,-2,-5,-2,0,-1,-1,0,-1,0
9.485165,-2,-1,-1,-2,0,-2,-1,-1,0
9.485197,0,2,-1,-2,0,0,0,0,0
9.493366,-3,0,-1,-1,-1,-2,0,-1,0
9.493387,-1,-6,-1,0,0,0,-1,-1,0
9.508396,1,16,-2,0,-2,0,-1,-1,0
9.508424,0,-10,-1,-1,-2,-1,-1,-1,0
9.510616,-3,-7,-2,-1,0,0,0,0,0
9.510679,-2,0,0,-1,-1,0,1,-1,0
9.538983,4,-7,-1,-1,-1,-1,-1,-1,0
9.539004,-1,10,0,-1,-2,-2,-1,-1,0
9.540700,0,0,0,0,-1,-1,-1,0,0
9.540704,0,-3,-1,-1,-1,-2,-1,0,0
9.545371,-2,1,0,-2,0,-2,0,0,0
9.545388,-3,-1,0,-1,0,-3,0,-2,0
9.553462,-3,-3,-1,-2,-3,-1,-2,-3,0
9.553487,1,0,-1,-1,-2,-1,0,-1,0
9.568612,-3,-3,-2,-1,-1,-1,-2,0,0
9.568643,-3,-11,-1,-2,-1,0,0,0,0
9.570390,-3,2,0,-1,1,-1,-1,0,0
9.570397,-1,1,-1,0,-1,0,-1,-2,0
9.590996,-2,4,0,-1,-1,0,1,0,0
9.591018,-2,-22,-3,-2,-3,-4,0,-1,0
9.592868,0,3,0,1,0,0,-1,0,0
9.592873,-1,0,-2,0,-1,-1,-1,0,0
9.605256,-11,3,-2,-1,0,-1,0,1,0
9.605279,19,18,0,-1,-1,0,-2,-3,0
9.614094,0,-9,-3,-2,-1,-1,-1,-1,0
9.614112,1,4,-3,-2,-2,-3,-2,-1,0
9.628326,-5,-7,0,0,-1,1,-1,-1,0
9.628348,-9,-9,-3,-3,-2,1,-2,-1,0
9.628984,1,9,2,-1,-1,1,-1,-2,0
9.628996,1,0,0,-2,-2,0,-1,0,0
9.650850,1,2,-3,-2,-1,-3,-1,-1,0
9.650868,0,6,1,0,0,0,-1,1,0
9.652370,7,3,1,0,-1,-1,-1,-1,0
9.652384,-9,-5,-1,0,-1,0,-2,-1,0
9.665676,-17,3,1,-2,-2,-1,-1,-3,0
9.665709,-13,-36,-4,-1,1,0,-2,-1,0
9.673517,1,12,-2,-1,-3,-1,-1,0,0
9.673532,-1,-29,-1,0,-1,-1,-1,0,0
9.688234,8,-6,-1,-1,0,0,0,-1,0
9.688241,1,16,0,0,0,-1,-1,1,0
9.688865,-1,3,0,-2,-1,-1,0,0,0
9.688871,3,7,0,-1,-1,-1,0,0,0
9.711025,-1,-4,-3,-1,0,-1,-2,-2,0
9.711054,-4,8,-3,-1,-2,-2,-2,-2,0
9.713561,9,-6,-2,-2,0,-1,-3,0,0
9.713564,0,4,0,-2,-1,0,-1,-2,0
9.725207,4,-7,-1,0,0,-1,-3,0,0
9.725223,-4,11,1,-1,-2,0,0,0,0
9.735253,-7,-6,-2,-2,-1,-1,1,-1,0
9.735260,-1,6,-2,0,-2,-1,-1,0,0
9.750951,-2,-5,-2,-2,-2,0,0,0,0
9.750958,-1,-11,-1,-2,0,-1,-1,-1,0
9.750960,-2,1,0,-1,-2,0,-2,-1,0
9.750962,-1,-4,-1,-1,-1,-1,-1,-2,0
9.770882,3,9,0,1,-2,1,2,0,0
9.770907,2,8,0,0,0,-1,-1,-1,0
9.771592,-1,-5,0,0,-1,0,-1,1,0
9.771607,-9,4,-1,0,-1,0,-1,0,0
9.785437,3,-19,-2,-2,-1,-2,-2,-3,0
9.785468,0,0,0,0,-1,-1,1,0,0
9.792718,0,11,-1,-2,0,-1,-1,-2,0
9.792741,-1,-20,-2,-1,-1,1,-1,0,0
9.808538,0,5,-2,-2,-1,0,0,0,0
9.808563,-3,-2,-2,-1,0,1,0,0,0
9.810661,-1,4,0,-2,-1,-2,0,1,0
9.810665,9,9,-1,-2,-1,0,-1,-3,0
9.831157,-20,-5,-1,-1,-1,-1,-2,-2,0
9.831174,2,8,1,0,0,-1,-3,-1,0
9.831449,-5,-2,-1,0,0,0,-1,0,0
9.831467,4,-9,-4,-2,0,-2,-2,-2,0
9.845212,5,-3,-1,-1,-1,-1,-1,-1,0
9.845233,-1,4,1,0,-2,-2,-2,-1,0
9.853529,-4,-4,0,-2,-2,-1,0,-2,0
9.853555,2,17,0,0,-2,-3,-1,0,0
9.868608,-1,-35,-3,0,-1,-1,0,0,0
9.868655,1,3,1,0,-1,-1,0,-2,0
9.870485,0,-10,-2,1,1,0,0,0,0
9.870492,-3,5,-2,-2,0,0,0,-2,0
9.890784,4,17,1,0,-1,0,-1,-3,0
9.890826,-7,-3,-2,-2,0,-1,-3,1,0
9.891496,0,-8,-1,1,0,-3,-1,-1,0
9.891501,-4,-2,-1,-2,-1,0,-1,-2,0
9.913489,2,4,-2,-1,-1,0,-2,0,0
9.913511,0,-5,-2,0,-1,-1,-1,-2,0
9.915209,-1,16,-2,-3,0,0,-1,-2,0
9.915216,-5,-31,0,0,0,-1,0,0,0
9.928259,0,2,0,-2,-3,-1,1,-1,0
9.928280,1,-1,-1,-1,-5,-1,1,-1,0
9.930260,-3,-1,-3,0,-1,-1,-1,0,0
9.930268,1,5,0,0,-1,-1,-2,-1,0
9.952540,0,1,-3,-1,1,-2,-2,-2,0
9.952551,0,5,0,-1,0,1,2,0,0
9.952553,0,-11,-2,-1,-1,-1,-1,0,0
9.952554,-2,-1,-1,-2,-1,1,-1,0,0
9.973266,2,9,1,-3,-2,-2,0,0,0
9.973290,1,-5,0,-1,-1,-1,0,-1,0
9.974769,-1,-8,0,-1,0,-3,-1,-3,0
9.974777,-2,1,-2,0,-1,-1,-1,0,0
9.988276,-1,4,0,-1,1,-1,-3,-1,0
9.988303,0,2,0,-1,-1,-1,-2,1,0
9.989847,-3,-6,-1,-1,-1,0,-1,-1,0
9.989854,-1,8,-1,1,-1,-1,-1,-1,0
10.010708,1,2,0,-1,0,-2,0,-1,0
10.010733,-4,-20,-3,-2,0,-2,-1,-2,0
10.011793,-1,0,0,0,-3,-1,-1,-2,0
10.011836,1,2,-2,-1,-3,-2,-1,0,0
10.034040,0,2,-1,-1,-2,-1,-1,-1,0
10.034057,-1,5,-1,-2,0,0,0,0,0
10.034548,-3,-5,-2,-4,-1,-2,1,-1,0
10.034566,0,1,1,1,-1,0,0,0,0
10.048886,-1,-1,-1,0,-1,1,-1,0,0
10.049003,2,0,-2,0,0,-2,-2,0,0
10.049237,-1,1,0,1,-1,0,-1,0,0
10.049256,0,-3,-3,-2,-1,-2,0,-1,0
10.070841,-2,-2,-1,-2,-2,0,0,-1,0
10.070870,-1,-1,-2,-1,-1,0,-2,-3,0
10.072851,0,21,-1,-1,-1,-1,-2,-1,0
10.072855,-5,-32,-1,-3,0,1,0,0,0
10.093977,0,-3,1,0,-1,-1,-2,0,0
10.094067,-1,3,-2,0,-1,-1,-2,-1,0
10.094666,-1,0,-1,-1,-1,-1,-1,-1,0
10.094732,1,9,0,0,-1,-1,1,-1,0
10.108283,-1,0,0,0,0,-1,-1,-2,0
10.108290,0,-7,-2,0,-3,-3,-2,-2,0
10.108922,-1,1,0,-2,0,0,-1,-1,0
10.108935,-4,1,0,-1,-1,-1,-2,-2,0
10.130906,-1,-4,-2,-2,-1,-2,0,-1,0
10.130936,-1,4,0,-2,1,-1,0,-1,0
10.133628,-2,-9,-2,0,-1,0,-1,0,0
10.133639,-1,5,-2,-1,0,-1,-2,-2,0
10.154747,-2,2,-1,0,-1,-2,-1,0,0
10.154751,-1,-1,0,-2,0,0,-1,0,0
10.154755,-1,-6,-2,-1,-1,0,0,-3,0
10.154758,0,4,-2,0,0,0,-1,0,0
10.170615,0,-1,-2,-1,-1,-1,-1,-1,0
10.170623,-1,1,1,0,-1,-3,0,-1,0
10.170625,0,4,0,-2,-2,-1,1,-1,0
10.170627,-1,0,-1,0,-2,-2,0,-2,0
10.191006,-3,-19,-3,-1,-1,0,0,-2,0
10.191023,1,2,-1,-1,-2,0,0,0,0
10.191479,-2,-5,-1,-1,0,-2,-1,-1,0
10.191493,1,11,-3,-2,-3,0,-2,0,0
10.213258,-2,4,0,-3,-1,-1,-1,-1,0
10.213274,-1,-3,0,0,1,0,0,1,0
10.214383,0,1,0,0,-1,0,-2,-1,0
10.214387,-1,-1,2,-1,-1,0,-2,0,0
10.228758,-2,2,-2,-2,0,-1,-2,0,0
10.228786,-2,1,-1,-3,-1,1,-2,-1,0
10.230851,-1,-5,-3,-2,0,-2,0,0,0
10.230860,-3,1,-2,-1,0,-1,-1,-1,0
10.250932,-1,3,-3,-2,-2,0,0,0,0
10.250962,1,17,-1,-1,-2,0,-1,-1,0
10.251743,-3,-20,0,-1,-2,0,0,0,0
10.251810,-2,-5,-1,-1,-1,-2,-1,-2,0
10.273934,1,4,1,0,-2,1,-1,0,0
10.273956,0,-3,-2,0,-1,-1,0,-1,0
10.276301,0,9,-1,-2,-1,-1,-2,0,0
10.276310,0,-1,-2,-3,-1,-2,0,-1,0
10.288359,-1,-1,0,-1,-1,-1,-2,0,0
10.288382,-2,0,-2,1,-1,-1,-3,-1,0
10.289504,-2,-3,0,0,0,0,-1,-1,0
10.289508,-2,-3,2,-1,-2,-1,0,-1,0
10.310786,0,-1,-2,-2,0,0,0,-2,0
10.310799,0,-6,-2,0,0,-1,-1,-1,0
10.311320,0,-1,-1,-1,0,-1,-3,-2,0
10.311345,0,-2,-2,-1,-1,0,-1,-1,0
10.334039,0,3,0,0,0,-2,-1,0,0
10.334059,-1,-2,0,-2,0,-2,-1,-1,0
10.336268,-2,-2,-1,-3,-1,-2,0,-1,0
10.336284,1,1,0,0,0,-2,-1,0,0
10.348653,0,-3,0,0,0,-1,-1,0,0
10.348672,-2,-4,-2,-2,-1,0,-2,0,0
10.350846,-1,0,-2,1,0,-2,-1,0,0
10.350853,-1,-1,-1,-2,-2,-1,0,0,0
10.373239,-1,0,-1,-1,-2,-2,1,-3,0
10.373248,-1,-2,-1,-2,-1,-1,0,-2,0
10.373252,-2,1,0,-3,-2,-2,-1,0,0
10.373256,-2,0,-1,-1,-1,0,0,-1,0
10.394124,0,-2,0,0,-3,-3,-2,0,0
10.394154,-2,0,0,-1,-1,0,-1,-1,0
10.396271,-3,-2,-1,1,0,0,1,-1,0
10.396279,-1,-1,-1,-1,0,0,-3,-2,0
10.408438,-1,0,-1,0,-1,-1,-1,0,0
10.408462,-1,-2,-1,-1,-1,0,-1,-1,0
10.409212,-1,0,-1,-1,0,-1,0,-1,0
10.410988,0,0,1,-1,-2,-2,0,0,0
10.431084,-1,0,-1,-2,0,0,-3,-1,0
10.431113,-1,-1,-1,0,-1,-1,-2,-1,0
10.433234,1,-2,0,-1,0,0,-2,-3,0
10.433246,-1,-1,-1,-2,-1,-1,0,0,0
10.453676,-3,-3,-2,-1,-2,-1,-1,-1,0
10.453717,3,-1,-2,-3,-2,-2,0,-2,0
10.454100,-2,0,-2,0,0,1,0,-2,0
10.454108,-1,-1,-2,-1,-1,-1,0,-2,0
10.467671,-2,-2,0,-2,-2,0,-2,-1,0
10.467689,-4,-1,0,-1,-1,-1,0,-1,0
10.475931,2,0,-1,-2,-2,-1,0,0,0
10.475954,-3,-1,-3,-3,-1,0,-1,-1,0
10.490946,-2,-2,-2,1,-1,0,-1,-2,0
10.490975,-2,0,-2,-3,-3,-1,-1,-1,0
10.492806,-1,0,1,-4,1,-1,-2,-1,0
10.492810,7,3,3,1,-2,-1,-1,1,0
10.513776,-5,-2,0,1,2,0,-1,-2,0
10.513781,-1,-2,-1,-1,-1,-1,0,-2,0
10.513830,-3,-3,-2,0,-2,-3,-1,-1,0
10.513875,0,-2,0,0,-1,-2,-2,-2,0
10.529036,-1,0,-2,-2,-1,1,-1,1,0
10.529041,1,-1,-2,-1,-2,-1,-1,1,0
10.536294,0,2,1,1,0,1,0,0,0
10.536340,-3,-1,0,0,0,-2,-1,-1,0
10.550766,0,1,0,-2,-1,-1,-1,-1,0
10.550792,-5,-3,-2,-5,-3,-2,-2,-1,0
10.552138,3,14,2,3,1,-1,-1,-2,0
10.552144,-5,-29,-1,1,0,0,0,0,0
10.574668,-1,-2,-3,0,0,0,0,-1,0
10.574677,0,-4,-1,-2,0,0,-1,-1,0
10.574681,-4,1,-1,0,-1,-1,-2,0,0
10.574685,-1,9,1,-1,-1,-1,0,-2,0
10.587641,11,4,-1,-2,-2,-1,0,-2,0
10.587658,-16,-4,-1,-1,-2,0,0,-1,0
10.595806,5,-6,-3,-2,-3,-2,-1,0,0
10.595830,-10,3,-4,-2,0,0,0,1,0
10.610752,8,9,-1,0,-3,0,-2,0,0
10.610771,8,0,0,-2,-1,-1,-2,0,0
10.611895,10,-20,-3,5,2,1,0,-2,0
10.611899,-18,4,1,-8,-4,-1,0,-1,0
10.633361,6,2,0,0,-1,-1,1,1,0
10.633382,-13,0,1,5,2,0,-1,-1,0
10.635122,-6,2,4,0,0,-1,-1,-1,0
10.635135,0,-3,-2,1,-1,-1,-2,-3,0
10.648143,8,9,-3,-3,0,-1,0,-1,0
10.648174,-10,-10,-5,-3,0,-1,-1,-1,0
10.655747,6,-6,-5,-5,-3,-1,-1,0,0
10.655765,2,3,-1,-1,1,1,-2,-1,0
10.670795,-6,-3,-1,-2,-1,-1,-2,-1,0
10.670815,17,3,0,0,2,0,0,1,0
10.671418,-22,-24,-4,-3,-2,1,-1,-2,0
10.671439,14,8,-3,-1,-2,-1,-2,-2,0
10.693410,-16,-13,0,-3,-1,-1,-1,-1,0
10.693427,11,11,-1,-2,-3,-1,0,-1,0
10.695202,31,17,2,4,-1,0,1,2,0
10.695207,-48,-22,-6,-5,-3,-2,-5,-5,0
10.707594,23,8,9,3,1,0,-1,0,0
10.707611,-12,-8,0,-7,0,-1,-3,-3,0
10.716840,-3,-18,-2,-1,0,-1,-1,1,0
10.716845,63,23,1,2,-1,0,1,6,0
10.732186,-64,-21,-6,-3,-3,-3,-4,-7,0
10.732197,-25,-3,-4,-1,-2,0,1,1,0
10.732201,3,18,-2,-2,-1,1,1,0,0
10.732205,-3,-10,0,0,-1,-1,-2,-3,0
10.753540,16,-12,-4,-3,-2,-2,-1,1,0
10.753569,33,15,2,4,-1,-1,-1,4,0
10.753960,-34,4,-13,-11,2,-6,-1,17,0
10.753975,-1,-27,0,9,4,11,-6,-41,0
10.767636,-1,10,14,2,0,2,3,1,0
10.767655,0,1,-10,-9,9,2,0,4,0
10.775940,-23,11,5,0,-14,2,-1,10,0
10.775956,-25,9,6,2,0,-11,-7,-19,0
10.790870,11,2,-2,0,-2,-1,-1,-2,0
10.790891,-11,-22,6,8,6,6,3,-8,0
10.793513,26,6,-2,-3,2,-4,0,6,0
10.793520,12,-6,-5,-5,-2,-4,0,16,0
10.813150,-18,6,-1,1,-2,-1,-1,-6,0
10.813167,83,39,5,-3,-6,-23,-13,10,0
10.813942,-87,-25,-4,-4,-2,20,4,-19,0
10.814008,73,4,-1,-3,-8,2,4,9,0
10.836894,14,26,-4,-4,12,5,-8,1,0
10.836920,-71,-40,-10,3,14,57,1,-2,0
10.838432,87,-7,0,-11,-24,-19,-21,-10,0
10.838439,-35,-1,0,-6,22,-22,14,-2,0
10.850784,72,15,1,4,-31,-13,4,29,0
10.850822,-64,5,3,-1,-21,-2,-4,-32,0
10.852132,-12,3,5,10,11,17,1,-3,0
10.852141,-9,9,-4,-11,1,8,0,15,0
10.873486,14,20,0,0,3,-1,4,-6,0
10.873491,4,-52,-3,1,9,-14,1,1,0
10.873833,28,23,2,-4,-3,-17,0,4,0
10.873839,-71,-21,-8,0,-5,0,-5,-5,0
10.896578,-28,-47,-7,-7,6,-1,-1,-3,0
10.896598,31,26,1,0,-4,-34,-5,2,0
10.898923,-1,-30,1,1,3,13,5,-4,0
10.898931,-6,49,-3,5,-8,26,19,9,0
10.911148,-4,-14,-1,4,7,-15,-13,-9,0
10.911177,-13,19,3,-1,-2,1,5,1,0
10.913483,-37,-29,-12,-3,-3,-7,-6,-9,0
10.913488,30,57,13,10,10,-14,-10,5,0
10.935200,-10,-94,-18,-4,-11,8,11,-6,0
10.935207,-5,15,6,4,-9,-39,-17,-4,0
10.935209,-4,52,8,3,8,34,4,3,0
10.935211,7,-59,-7,2,-12,-36,-13,3,0
10.957004,-19,75,2,-4,16,-7,12,-3,0
10.957034,-20,-33,-3,4,-15,-17,-9,-1,0
10.959405,37,30,-5,-6,15,53,24,-2,0
10.959411,-23,8,6,-4,-6,-42,-44,-7,0
10.970977,4,-46,-1,0,6,-1,5,1,0
10.971004,84,36,-2,-5,-4,0,4,2,0
10.971503,-42,-17,-2,-11,-7,-26,-14,-5,0
10.971517,8,4,-6,5,4,23,15,3,0
10.993270,-50,74,-5,0,-3,-6,-8,-4,0
10.993288,80,-12,-2,-6,2,18,-4,7,0
10.994604,-25,14,-1,2,-3,-15,0,-1,0
10.994609,-22,1,-3,-6,-4,-11,3,-1,0
11.016578,-36,-26,3,3,-6,27,2,-4,0
11.016599,-25,-65,-2,2,-8,11,1,1,0
11.017273,15,34,5,4,30,-22,-6,0,0
