Timestamp_ms,Channel_0,Channel_1,Channel_2,Channel_3,Channel_4,Channel_5,Channel_6,Channel_7
139,0,0,0,0,0,0,0,0
185,0,0,0,0,0,0,0,0
236,0,0,0,0,0,0,0,0
300,-6,-10,-13,2,-2,-5,-5,-3
363,5,-25,9,-4,5,6,1,16
429,3,2,2,5,10,-9,9,-5
491,-5,-3,0,-7,4,-9,3,5
552,9,1,-9,-5,2,6,3,8
605,4,-10,-1,-9,4,-6,-2,5
672,21,6,-12,-8,0,16,2,-2
729,-4,-58,-44,2,4,-10,11,6
792,5,6,6,-4,1,-3,4,1
852,-2,46,30,3,-11,13,-1,-12
904,-3,-38,-2,7,-12,-5,-4,-15
967,-11,2,-12,-7,3,7,0,1
1030,-6,-4,3,0,1,0,5,-6
1092,-11,-11,10,-2,-2,-10,3,-1
1151,2,2,3,11,3,-10,9,-15
1203,-6,6,2,1,10,1,-1,14
1255,-2,3,5,4,5,-2,0,-9
1312,-8,-51,-7,-1,-1,-4,4,0
1376,-5,20,4,9,-5,10,5,1
1437,-3,-14,2,-3,-4,1,-12,5
1498,5,-3,-9,6,2,-11,0,-4
1551,0,28,3,-3,-4,0,-15,-3
1615,-7,-17,-1,3,10,-9,-5,-1
1676,11,-20,-4,-2,-15,2,1,2
1737,-6,8,11,9,10,-1,-8,-4
1797,-8,21,-2,3,-10,-7,-1,6
1847,-4,-13,-4,6,-8,3,4,-4
1904,-7,9,1,-1,6,-1,0,-11
1954,8,-11,-14,0,0,-2,1,0
2008,0,7,-4,1,-5,-15,-4,-8
2059,-3,-5,15,-16,2,-9,4,-5
2118,-2,-12,-14,5,2,-2,5,1
2180,9,24,-12,6,8,0,5,6
2239,3,-11,-14,1,-1,8,-8,-6
2291,-5,9,-1,-7,-10,-3,-2,5
2354,11,23,6,-10,-4,-12,1,-2
2405,-12,-40,-12,-1,-6,6,8,3
2459,-5,31,13,0,-9,-6,-3,-13
2510,-5,-18,-19,0,-19,-1,-1,-12
2563,-9,38,-19,5,5,1,-3,5
2623,-12,5,-36,-8,13,-13,3,-1
2683,14,6,21,0,4,5,-1,7
2746,8,-31,-4,5,1,4,-10,-5
2797,-14,-15,-3,-12,0,-9,-15,-6
2859,11,34,-16,-7,-8,-5,-6,-7
2922,2,-9,-10,18,-2,8,10,-10
2982,24,25,31,-1,1,10,0,15
3032,-10,-18,-2,-5,2,6,0,-2
3085,-10,7,-1,5,-7,-9,2,-2
3139,2,-22,2,-7,-13,3,-3,0
3191,-4,-17,0,-5,5,-7,-8,3
3246,3,-6,-10,-4,-11,8,8,11
3301,0,11,7,-1,-13,-1,3,5
3363,2,23,12,-3,0,-7,2,-9
3424,3,-25,-19,2,-3,4,9,-3
3477,-1,-48,4,13,0,2,0,2
3535,0,0,-5,-5,4,-5,3,12
3587,-15,-27,-5,-4,6,0,11,-8
3644,1,32,-7,-1,0,5,-3,2
3699,4,-1,12,-9,-6,6,-1,-1
3762,-8,-6,-17,0,-12,0,-7,-2
3813,-6,-2,-16,-5,-8,-3,2,-2
3867,-1,41,0,7,-2,3,4,0
3919,-5,-6,-11,-5,6,-2,-10,6
3972,-14,0,1,-3,-6,2,0,3
4024,-22,-1,-15,-8,9,0,-6,3
4080,0,20,-4,-6,1,0,2,10
4130,-10,-26,16,-10,-8,-2,5,-6
4181,1,47,14,12,3,-5,-2,-1
4243,-7,-22,-8,-4,6,2,1,-2
4291,-6,3,-5,-5,6,-9,-2,-3
4348,-1,46,2,-8,-13,2,6,7
4409,4,14,8,-4,-5,2,-12,3
4461,-8,-20,-7,-3,-1,-9,3,-1
4511,-22,-16,3,0,0,9,6,2
4563,2,9,-9,-12,5,-1,-8,-7
4618,-3,10,17,-6,-8,-7,5,-3
4681,3,-2,-19,-4,-1,-1,-4,1
4743,8,7,-2,6,0,6,3,0
4803,-14,-8,-11,4,3,-5,9,8
4855,9,1,-7,11,-6,-12,10,-4
4912,6,13,6,0,2,2,12,15
4961,7,3,-9,-1,-2,-2,-3,2
5013,-5,1,0,0,-2,-1,8,-6
5067,6,-26,-9,-33,-5,-5,7,5
5125,4,5,-7,2,-3,0,-1,0
5186,-6,0,-7,-4,5,5,8,-2
5247,-3,-18,-10,2,9,-4,9,10
5307,-5,7,10,3,0,8,-1,10
5359,-13,-4,-3,-1,-21,-2,-10,-6
5411,-4,-19,-15,-6,-4,-7,-8,-6
5465,-2,8,2,-18,-4,1,0,3
5519,-9,-3,-5,3,-2,3,-8,-1
5572,-6,-5,-3,1,3,1,-1,-5
5627,0,-13,1,1,3,-6,-6,-10
5690,3,-5,-19,-12,3,9,-3,-3
5749,2,22,9,9,2,-15,3,-6
5800,21,-3,-1,8,-8,7,-4,-1
5863,-3,-7,-1,-5,1,-5,0,4
5926,4,5,2,6,-8,-4,1,1
5988,-11,-7,-1,-2,5,3,-3,8
6049,-6,-20,-4,-1,-6,0,-6,3
6100,-6,3,-7,-3,4,8,3,-15
6154,-8,-10,-4,-4,5,10,1,-14
6209,19,-8,2,-9,14,-7,6,-1
6257,-5,3,0,-12,-8,-6,3,-8
6312,-3,26,10,6,3,6,-3,5
6369,-2,2,-8,-16,-3,-2,2,7
6432,10,-8,5,0,6,-4,0,12
6492,-2,2,1,-2,-2,0,3,19
6544,6,-7,-8,-8,-10,-5,-5,-19
6607,0,-1,0,12,-1,4,2,3
6670,-8,-9,-6,-12,-2,4,-5,-10
6733,7,-7,33,37,-5,-5,-1,4
6792,-2,13,-30,-1,9,-16,3,1
6845,22,11,-24,-20,-2,5,-49,28
6910,8,-10,-39,-18,-2,-8,10,16
6974,-9,-18,-12,-3,2,-2,0,19
7037,2,-21,-4,5,10,19,-23,-6
7092,-21,43,-27,-2,-15,12,-8,-40
7146,-15,-9,31,16,10,2,11,2
7196,6,0,-27,1,5,-4,26,22
7249,-2,20,-3,-19,-7,-5,-4,-8
7309,16,-41,-61,-79,-11,39,35,12
7354,52,7,1,-17,43,62,40,107
7413,-4,-3,58,4,19,-16,20,6
7475,0,-9,-94,-69,-19,9,-3,-31
7525,21,101,-13,-3,-2,3,-16,-31
7588,-23,47,4,9,8,0,-21,-60
7650,4,35,47,18,9,-1,-7,9
7713,-5,-11,23,6,5,0,17,31
7775,-1,-51,-19,0,6,-6,-1,-2
7835,1,-52,-47,-8,-19,6,15,-1
7888,9,4,-15,-9,8,10,32,9
7940,13,15,93,90,44,-18,5,17
7997,5,-49,-61,-10,-11,-15,-43,11
8046,-5,-18,8,10,12,4,-1,-8
8097,-14,-55,-30,-10,-10,2,11,9
8159,18,2,37,48,0,-32,3,4
8220,8,86,103,9,-19,13,65,-3
8280,6,-37,-8,-9,-7,-18,-4,4
8330,-4,-7,-14,14,-1,-4,-4,-2
8383,-1,7,6,16,9,5,-38,-50
8434,2,-4,5,-5,1,0,3,10
8495,-2,39,7,1,-13,-6,-10,-5
8557,7,31,9,-2,-14,16,1,0
8619,1,2,3,-16,1,3,9,11
8667,24,37,31,17,-9,-22,6,10
8719,1,-31,-29,-12,-1,-4,-8,-21
8771,-16,-39,10,2,2,4,3,-6
8823,0,-28,-7,-5,28,21,20,13
8877,14,17,1,-6,9,7,-9,3
8934,-2,-4,-9,-3,3,0,-10,-2
8997,-24,-40,-23,7,-6,-1,-2,8
9061,10,18,-3,4,-2,4,7,-9
9117,-5,-2,-9,-11,6,-6,4,18
9171,5,0,-3,2,-11,-9,2,5
9220,4,6,-2,15,-12,0,-7,-9
9277,1,7,-22,1,3,5,-5,5
9331,5,-22,3,-1,3,-6,6,6
9382,-5,6,5,-2,-2,-8,-1,0
9439,-5,15,4,7,-1,-7,0,2
9499,3,31,-8,6,12,8,8,-4
9553,-1,-10,-3,9,13,-1,2,-1
9625,11,-8,5,-2,-6,2,-3,8
9688,10,-3,16,4,7,-1,-1,-8
9740,-12,-52,-20,-5,-5,-5,-4,6
9793,1,-3,-12,-2,0,-6,4,5
9856,-3,-6,-11,5,10,-6,-5,2
9919,-4,-41,-28,-8,0,0,-1,-6
9981,2,15,-16,-7,1,3,-11,-6
10040,6,5,6,1,2,0,10,-2
10090,-6,13,6,18,5,-7,-6,-8
10143,-3,2,-8,4,4,17,3,-2
10204,3,-6,6,-6,-8,7,-8,12
10250,3,-4,3,-5,-3,4,-5,6
10304,2,-1,10,-8,-3,7,-9,79
10359,4,3,8,-9,-4,-4,-4,-12
10420,-3,-3,1,3,-1,-1,3,2
10471,-3,5,3,-9,5,0,-4,-1
10526,-2,-4,-8,11,6,0,-1,3
10578,-10,0,5,-11,5,-2,-5,-1
10631,1,-1,-9,-4,7,1,4,0
10686,-4,11,8,22,-1,4,-3,0
10742,3,-1,-6,0,4,-20,-3,-3
10804,1,26,4,0,-7,0,5,-2
10855,4,-59,5,-5,12,-7,1,6
10909,-4,-30,-1,4,14,-5,2,4
10967,3,3,0,2,17,-2,2,3
11014,-4,-1,-6,-6,-38,-10,-3,1
11066,1,-36,2,3,-3,5,2,-5
11119,1,17,2,-1,9,8,0,9
11171,15,-11,-1,1,-3,-3,-5,3
11225,-6,-8,-8,5,-1,-5,-1,6
11282,2,1,0,4,-7,-8,-1,8
11343,15,12,-4,-1,8,-12,4,-15
11406,-9,9,0,-4,-3,-13,-6,2
11454,-12,-12,-5,0,-4,3,-1,0
11509,-12,3,0,-1,-6,3,0,1
11561,3,-3,8,-2,-15,1,3,-1
11611,-5,1,-3,-6,3,2,2,-7
11667,-7,-7,-7,-13,-8,0,-5,5
11721,-1,1,1,2,-2,-3,5,5
11770,-1,-1,-4,-9,-4,4,-11,-12
11831,-28,0,-4,-4,-1,-11,7,4
11877,0,-5,5,-2,-6,0,2,-3
11929,13,-8,2,3,-12,-6,-2,-2
11987,6,1,7,-5,6,11,-9,6
12034,-6,14,-3,-15,5,0,-1,2
12087,-4,0,-6,-5,5,-2,-3,-7
12138,-10,0,-11,-3,2,3,-9,-2
12190,2,-4,-10,-3,7,8,2,1
12242,-3,7,-3,-6,-4,-10,-2,-1
12304,7,1,4,0,1,8,6,3
12364,0,-4,8,0,1,-1,4,2
12422,-6,1,0,1,-4,-9,5,-1
12470,-8,-17,-3,3,1,5,-4,2
12522,4,-3,0,9,1,-9,6,-4
12573,-8,2,-5,-9,-7,-2,-7,1
12627,-1,-10,-10,5,1,-3,1,-2
12683,11,-1,4,9,2,-5,-1,-40
12745,-3,8,4,9,-1,1,-12,4
12807,-7,-6,0,-2,5,-2,-2,2
12868,2,2,1,-6,-8,-5,-2,5
12921,7,3,-2,-6,-9,-4,-4,-1
12978,4,-1,-5,-1,1,0,-7,4
13026,14,-14,-4,-4,0,5,0,-2
13077,6,-10,-8,6,11,-1,0,5
13135,16,1,2,-8,2,-8,-2,-4
13186,-4,5,0,-5,5,-4,3,0
13250,8,-4,-10,-4,3,1,3,-4
13309,8,-1,-8,8,1,-8,3,3
13370,4,8,-1,-2,-5,7,-4,4
13423,2,-10,-6,3,1,-11,5,-7
13486,-11,8,6,-10,-4,6,-6,-2
13549,4,5,7,3,4,-1,9,4
13610,7,6,2,-8,-4,-3,6,1
13669,-7,0,-4,0,1,9,-2,2
13726,-5,-7,1,-1,-10,-7,7,-4
13789,-1,1,8,-1,-8,-5,-5,1
13851,-3,3,-7,-9,-1,1,7,5
13913,13,-11,-3,-3,-11,6,4,4
13975,1,-3,3,0,-6,1,4,-5
14023,-6,3,4,-6,0,-3,4,6
14081,-11,2,-9,4,1,-11,1,-1
14132,-9,-4,-3,3,4,3,-7,-9
14186,18,-11,2,-8,-2,-3,7,4
14244,6,3,-1,-5,-4,3,4,1
14306,-10,8,-6,8,-1,3,-9,-1
14365,-7,1,2,3,-10,-8,5,-6
14418,-9,9,4,-5,-5,-10,6,0
14472,11,-8,1,-11,3,0,-3,-4
14530,2,-3,2,-1,-10,-2,2,0
14593,-9,-7,1,4,-4,12,2,1
14652,-8,0,8,-8,-10,-1,-3,-2
14704,3,-18,-8,-2,-1,-12,-3,2
14775,-6,9,4,1,-6,3,2,3
14830,-1,5,-3,7,-9,7,-8,3
14896,-1,-3,4,-2,-3,2,-6,-1
14958,-8,-10,-12,-3,-10,3,0,-2
15003,-2,1,9,-2,-3,-6,-9,6
15056,-11,-10,46,-2,1,-3,-2,-2
15109,-5,1,-18,19,6,6,-6,-1
15161,6,3,-5,9,-6,1,-1,6
15215,5,-2,2,-5,6,0,2,-5
15271,2,-1,5,-4,13,3,-7,-2
15335,3,-6,-5,-4,-5,3,0,2
15394,9,-6,12,7,0,1,-12,6
15448,-21,1,8,-7,2,6,-10,4
15516,-8,-16,-4,-13,3,-8,1,-3
15573,-3,15,-5,-3,-7,7,-3,-2
15635,0,9,14,4,-6,0,-1,3
15697,3,-33,6,3,-6,10,-6,6
15748,-10,-25,-8,-1,2,-2,-4,-3
15801,2,-6,1,-2,-2,-3,-8,-9
15851,-17,-6,-7,2,-4,-8,-9,-3
15907,-2,-4,-1,1,1,1,-2,-1
15958,-4,16,-5,11,-7,1,0,-5
16017,1,7,-3,-8,-6,4,-6,7
16078,-9,-12,-7,-10,-17,24,1,-1
16138,-10,8,9,0,-6,-8,-3,0
16196,-6,-7,-7,-2,-1,0,0,-3
16261,-1,-9,-1,-8,-7,3,-4,0
16323,7,-3,-5,2,-2,2,3,-6
16369,-1,3,8,8,11,-6,6,-1
16430,7,3,0,1,4,-3,-1,1
16493,-5,-2,-8,-4,8,-2,7,5
16543,22,4,-2,-10,-1,-6,-14,5
16594,-1,-2,-1,12,-11,3,-1,0
16650,-5,-16,-3,6,-3,6,-2,-2
16701,-16,-6,7,-9,-9,-12,-6,-5
16759,-4,-4,0,4,-13,7,-3,0
16820,1,-18,7,-5,9,1,-11,11
16873,2,-1,-3,2,-5,-1,-1,-5
16933,-5,-15,-2,-1,-6,-9,-2,-6
16997,11,-10,0,-5,-4,-6,-9,-14
17060,-6,-18,-8,-14,-8,-2,7,6
17120,0,-8,-14,1,-10,-2,0,-17
17170,2,43,45,25,5,-17,8,-7
17237,-5,-8,-53,-26,-14,-2,-9,1
17297,0,-44,26,7,6,-21,-6,7
17358,-12,9,-8,-6,5,11,14,-15
17419,-11,0,-33,-6,-10,3,-11,-23
17480,-8,-23,4,-4,-2,3,-9,-1
17534,6,-13,9,5,20,-16,3,16
17597,1,7,-14,-10,-5,0,-9,39
17661,13,-2,-46,-10,-4,-6,-7,-2
17722,42,62,-20,-16,-8,-3,-27,-30
17771,11,-55,-34,-12,13,10,16,11
17823,-14,11,-20,-23,-17,-21,-7,5
17884,-6,49,4,3,2,6,-27,-2
17943,-21,-39,25,15,-1,2,-4,9
17994,6,-20,-12,15,-4,3,7,-15
18048,-2,22,-16,-6,-3,-7,-14,-42
18108,-6,-34,9,7,-10,0,2,-4
18164,0,0,-8,-2,2,4,12,8
18215,-19,-8,-22,-3,5,-2,2,15
18266,0,-14,4,-1,-8,-5,9,-26
18319,-5,-8,0,18,27,7,0,-2
18373,2,40,7,0,5,1,-1,-6
18424,-3,-28,44,52,-3,-6,-13,5
18482,-5,4,-2,7,-1,-18,-15,11
18544,5,9,-15,-21,-19,-6,10,-17
18604,-1,11,5,-7,3,-5,-21,5
18656,5,17,-17,-4,-1,-1,1,-2
18709,12,-5,2,5,-5,-16,-6,23
18764,-2,15,11,-4,0,-4,-7,5
18818,3,6,16,11,-3,0,-5,6
18868,3,-9,-20,-16,-4,4,-11,-17
18920,2,-45,-4,6,-1,10,-1,8
18970,-1,-9,20,1,-11,-4,-3,2
19022,-1,-7,-5,-1,4,-18,15,37
19084,0,11,8,7,2,5,2,-7
19144,7,-8,-8,11,9,29,8,5
19198,3,19,5,-10,8,11,6,17
19255,9,51,5,-25,-1,27,-5,6
19302,21,20,16,-9,-8,-13,-23,-4
19355,-11,30,-28,3,-6,-13,0,11
19411,-7,61,3,3,-18,1,-7,28
19465,-5,19,15,29,14,6,-16,-26
19526,11,-58,-22,-2,-5,1,-4,2
19587,-2,23,5,-2,7,-12,6,10
19641,-19,-19,-25,-20,-16,-27,-11,2
19705,-5,-11,-20,-4,-5,11,-12,-8
19767,-10,-53,2,-13,13,7,8,-3
19827,-2,-22,1,15,-4,-11,-1,0
19879,-14,-44,5,5,2,-12,-7,-3
19936,2,-78,-7,-8,-7,-11,-11,8
19984,-19,56,16,8,5,2,3,-9
20037,70,37,4,-8,-3,16,1,17
20094,4,24,7,-1,0,-28,-5,8
20140,-7,-1,-8,-26,2,-7,8,-10
20195,19,89,0,0,-3,-10,-23,12
20248,-45,-25,-30,-19,-13,6,-1,-9
20305,25,-28,16,12,-2,-42,4,10
20368,2,-64,-7,2,-1,-7,19,6
20429,-10,-25,-5,-8,8,-4,-7,3
20481,-2,-5,11,0,0,-1,-3,2
20534,-15,68,12,-9,-2,-8,-8,-27
20586,11,6,-5,5,-4,-3,-6,9
20634,10,15,5,8,-1,-19,-8,1
20689,0,7,-19,-3,2,-7,-7,-1
20747,-31,19,6,1,-1,-4,0,-6
20809,-8,9,4,-8,3,8,3,4
20872,-5,17,8,-3,7,1,-4,-7
20931,-5,-27,2,-7,5,0,0,-5
20983,-5,5,-5,0,6,-8,7,-5
21048,-7,-33,-5,-2,-2,-7,0,-34
21110,-7,-4,1,-1,7,-1,7,5
21169,8,12,0,-4,-6,-6,4,1
21231,6,24,-3,-5,-1,3,-4,-9
21275,-3,13,-1,-9,-9,7,-5,-4
21327,2,14,5,-2,5,-5,5,4
21379,8,-23,-4,-6,-6,6,-5,7
21432,-6,5,2,8,5,2,4,7
21489,-12,-2,6,1,0,-11,-9,3
21554,-9,-6,-5,-3,-2,4,9,6
21614,18,-26,-8,-2,0,-1,3,1
21665,17,30,0,-10,0,7,9,0
21729,7,-34,-2,5,7,11,-2,-10
21788,-8,-5,8,7,3,-7,-4,-5
21859,-30,6,-3,-5,12,-10,10,-6
21913,6,0,3,45,34,-2,-3,11
21972,-7,27,2,-16,-20,-14,4,0
22025,-12,-9,-4,-4,-4,2,0,10
22086,-10,-1,2,-5,-25,-10,-1,-3
22151,3,-9,11,5,-5,-3,5,4
22213,-22,-2,5,3,3,7,-3,1
22266,-44,-4,9,2,6,0,11,-8
22315,-13,-15,4,10,1,-5,7,7
22369,-19,-9,4,5,3,-6,-5,0
22423,-19,4,5,-3,10,-4,7,-7
22477,-32,-3,-9,3,-5,4,-9,-40
22539,5,7,-11,-14,-11,-13,17,26
22600,20,32,4,-17,31,12,12,26
22661,-9,-22,-17,-5,-16,-15,1,9
22707,25,0,-20,-5,-11,7,5,-6
22768,46,-25,-9,-4,-10,1,-3,5
22830,-9,2,5,-14,12,6,17,3
22894,26,2,4,-1,-13,-3,5,6
22956,3,20,20,15,3,-5,9,-1
23008,11,-3,-12,5,1,7,4,-2
23068,-10,1,-4,-12,10,-4,1,-1
23118,10,-12,-3,0,-3,10,0,-4
23172,6,-8,14,-3,-1,1,7,10
23227,-27,-77,8,15,-22,-12,-2,14
23283,-19,-7,4,7,-18,-21,-7,1
23337,-3,11,-8,-21,-15,-6,4,-5
23400,6,12,7,16,12,3,5,-4
23457,-25,-2,-10,-21,3,4,4,3
23510,-20,-21,1,-12,-7,4,5,-5
23572,31,-5,-16,-1,2,-10,8,5
23635,-23,-8,-3,3,-6,5,0,-5
23698,11,10,2,-6,0,4,-1,3
23758,-2,-9,-2,-13,-2,-5,3,4
23808,-5,6,-1,-7,0,-9,3,8
23871,-28,1,2,3,3,0,-6,8
23935,-7,-3,-7,1,4,-7,-5,-3
23996,4,1,9,-6,-12,3,3,4
24057,2,10,2,0,-6,-1,4,4
24108,-1,0,5,7,0,3,-4,32
24172,15,56,8,-6,-1,0,3,-1
24236,-3,-9,7,-6,4,2,3,-4
24297,12,3,-6,9,2,6,-1,5
24358,14,-8,-2,-7,1,9,-8,15
24413,-33,5,4,12,4,7,3,-10
24462,18,-4,4,-8,-8,-1,0,2
24513,-36,-17,-21,-20,0,-5,2,-16
24570,-14,-1,9,-4,-2,-2,0,3
24619,-11,-7,3,-11,-3,-5,-9,-2
24679,26,7,49,48,4,6,-3,0
24743,7,-5,-8,-7,6,-15,-9,5
24800,-5,-11,-34,-21,-18,-8,-1,-10
24855,-2,3,-1,-4,3,-4,4,-3
24919,-2,14,-2,-4,-4,8,7,-12
24980,14,-17,-10,-13,1,4,4,0
25033,4,6,1,-8,2,-1,-1,8
25084,0,13,26,4,9,-2,-1,-3
25141,-13,6,8,2,-2,-4,-1,2
25198,3,-2,2,9,-6,-7,1,-4
25249,-8,-16,-1,-8,-8,0,4,-8
25302,-6,-11,-3,4,-7,0,6,9
25360,-9,12,-6,11,1,-7,2,-2
25421,7,-9,-2,0,2,-1,4,5
25481,-14,26,19,-2,5,6,1,1
25536,8,21,-12,-15,-7,-8,5,32
25587,-7,17,3,-2,7,-1,-20,-49
25640,-37,-39,-18,-14,4,23,17,-8
25691,11,-22,-8,-3,-12,-56,-57,-28
25741,9,-8,-12,-6,-2,-3,12,26
25803,14,-19,3,-7,-6,-60,-50,-5
25865,0,15,17,-6,-17,-10,18,-23
25925,37,48,13,5,-12,-19,43,2
25981,-7,-12,0,-2,-4,7,13,6
26028,5,-15,4,-7,-8,-4,4,19
26082,0,58,5,4,13,7,-6,-25
26134,5,-16,37,-5,-3,-2,13,35
26186,15,28,5,1,2,-14,-10,21
26239,-18,78,2,-7,-4,-2,11,15
26294,-6,-62,-28,-9,2,-17,33,6
26345,6,47,23,2,4,-18,10,10
26403,7,6,-10,-2,3,36,-10,15
26465,-1,-78,-36,-1,-6,8,-18,20
26524,3,13,16,3,4,5,14,15
26586,3,-26,2,12,47,18,58,18
26637,20,10,7,7,-28,25,8,2
26689,34,22,-14,-10,-20,-20,74,96
26742,-6,-1,-3,-14,-25,14,19,-11
26804,3,4,0,-5,-6,-54,-56,-2
26846,6,-5,-5,-11,-1,-4,41,-9
26900,6,24,3,4,-18,-2,-18,-4
26951,-17,10,9,-11,-3,-6,-10,-23
27002,-15,29,19,-2,-3,-8,3,5
27064,5,75,68,9,9,2,-7,5
27124,4,-66,-66,-11,-7,-2,5,31
27177,4,-34,-26,-6,-4,-4,4,-3
27229,-2,25,5,1,-3,-21,1,12
27287,3,0,-9,2,1,-29,18,5
27333,0,34,4,6,4,8,-1,4
27387,-9,-13,4,-7,-4,-31,38,31
27447,17,-2,-6,6,6,75,-19,0
27511,4,-5,7,-6,-18,24,-5,32
27577,3,-9,-21,-8,39,58,-89,-17
27617,4,15,3,-4,-4,12,68,-17
27676,-8,-5,5,1,-1,2,22,-10
27724,0,6,1,-9,-5,8,17,-29
27783,1,-16,-14,-4,-13,1,25,3
27838,7,-47,-33,-5,-1,-2,3,-12
27890,6,-12,-33,-16,1,-4,-5,18
27948,5,-25,-23,-2,1,-3,-8,8
28010,-9,-5,3,3,3,0,0,10
28070,-1,16,5,7,0,-3,-1,-8
28128,-5,29,10,-1,-5,-7,-6,29
28193,7,44,7,8,-9,-1,-6,0
28249,-3,0,-2,0,-8,-6,-12,-3
28309,-13,-40,8,-5,8,0,0,5
28361,-7,10,2,3,-3,-5,0,2
28424,-13,-25,11,1,2,3,-3,0
28489,-6,-20,-7,2,5,-4,13,1
28550,6,5,5,-10,-1,-1,-5,-4
28601,-29,-7,-4,-6,-3,-3,-6,-15
28667,1,4,7,-5,2,-2,6,0
28730,4,-9,-3,-11,-6,14,0,4
28799,-12,-6,-7,7,9,1,-7,1
28849,-4,-10,13,-5,-2,-11,-11,1
28904,-4,9,-3,5,-26,-6,-5,-17
28953,30,-16,-3,-8,4,0,8,6
29007,2,-2,-6,-12,6,-9,-2,5
29057,12,16,6,7,2,-3,-3,9
29114,5,6,-3,-6,-4,5,-1,-5
29167,-1,-15,-3,-15,-1,-6,-12,-15
29229,0,1,11,19,4,7,8,-4
29292,10,8,10,-24,-5,6,-8,-5
29352,-8,-8,-21,-21,-5,-5,-11,2
29410,25,11,3,0,8,-9,3,16
29466,17,40,96,80,5,2,-24,-17
29532,-30,-20,3,-14,-3,-7,-10,-3
29592,-20,-5,-4,-12,2,4,-17,-41
29654,10,23,27,-9,-16,0,-12,-86
29704,7,-2,-20,-11,4,-2,-10,17
29756,-3,-46,-21,-13,-4,4,0,9
29813,-9,-8,-18,0,-2,-5,0,1
29864,59,48,106,72,16,-4,14,12
29915,4,14,57,35,7,37,2,11
29977,0,48,13,22,10,-12,-3,-33
30034,5,25,8,-8,-2,-12,6,12
30095,8,-12,-12,-3,-6,-21,11,12
30155,-34,-18,2,-5,5,13,1,-14
30208,5,6,11,-1,3,-3,-3,3
30272,-21,-32,7,13,-2,2,2,-47
30335,1,13,-2,-5,0,4,-17,-30
30396,-11,-5,7,6,-6,-3,3,8
30448,3,16,9,1,-3,-10,12,6
30511,3,8,-4,8,13,6,2,-2
30575,0,19,5,-3,-7,-8,12,-11
30638,0,11,7,6,-2,-5,-17,-11
30696,1,25,3,0,3,8,-14,-1
30748,-11,-11,-30,-7,-6,-2,-1,9
30811,5,-3,-12,-9,-9,-4,2,-1
30873,14,-14,-5,-5,6,-9,9,14
30936,-3,-3,-24,-12,3,-1,-22,43
30999,9,58,-9,2,-6,-119,2,-3
31055,-3,-32,-44,-20,3,14,0,0
31109,-47,-29,0,-2,-14,10,-4,-8
31160,-1,15,-9,-14,-20,-2,14,-19
31220,0,3,18,17,7,-12,-1,2
31267,-1,-15,-6,-2,-3,-12,5,0
31319,11,-9,-36,-30,11,-2,-1,5
31375,16,-35,-39,-15,8,-3,1,2
31437,-12,-18,-15,-6,-3,0,1,-1
31497,5,-7,15,13,8,2,-7,-1
31547,26,-2,-9,6,-6,3,-4,-1
31607,8,5,7,9,3,7,-8,2
31654,-5,-24,-5,-3,-4,5,8,6
31705,-54,-94,-48,-10,-3,12,-38,-87
31759,-30,-29,-47,-19,-8,-3,-23,-49
31816,44,113,35,7,-5,-23,2,-7
31880,-21,-55,21,8,21,-9,6,54
31940,6,44,6,15,-128,-3,11,16
31995,8,24,-1,-1,3,-8,-13,-25
32063,19,30,21,5,-5,4,2,1
32127,-10,-41,2,14,19,-3,1,4
32179,-21,17,19,-4,10,0,2,9
32239,26,5,20,4,-10,-1,-3,18
32294,-27,3,-3,-4,-4,-15,24,-8
32356,7,6,22,-6,3,8,14,12
32420,-42,-9,-34,-21,-57,-85,-82,-62
32479,-16,34,86,63,2,-3,-30,-4
32543,56,30,-10,-27,-17,-17,1,2
32593,20,15,-11,-4,-11,17,24,-8
32655,33,29,19,34,20,10,-18,-1
32718,6,6,-7,-12,-17,15,10,6
32780,22,5,12,8,-4,-2,0,5
32833,-2,3,-19,3,7,-1,-9,-9
32884,15,24,-15,-7,2,-14,-26,-26
32936,10,-12,5,-1,-7,-1,5,0
32988,-6,-55,-15,9,4,10,7,-1
33041,-18,13,27,2,-11,-14,-3,2
33096,-13,2,-2,-9,0,-5,-4,-10
33160,38,-44,-32,-4,7,8,-4,-12
33222,2,20,-2,2,2,-5,-4,2
33288,13,30,-10,1,1,27,28,-8
33334,-14,7,2,0,2,-31,-102,-14
33386,10,20,-37,-38,-1,12,-34,-13
33438,0,-5,32,28,-1,-12,-56,6
33498,-1,3,-19,-14,-12,-9,-60,-18
33553,2,-20,-12,-23,-11,-31,-13,-2
33610,-17,-5,-21,-9,1,-5,0,-4
33663,6,-4,-5,-8,3,-3,-9,4
33726,-2,-5,19,9,4,7,2,11
33785,3,-23,-6,2,-4,-4,3,32
33835,4,51,16,-1,-6,-14,-4,-22
33889,-25,32,1,4,1,-3,-7,-3
33947,0,-14,3,6,-5,-8,-1,9
33993,-2,17,-17,-10,-9,1,3,2
34047,-8,20,6,-7,-11,-1,-5,-7
34099,8,30,9,8,5,1,4,-8
34151,4,3,1,12,-1,7,-7,16
34211,3,-30,7,-3,4,-1,0,1
34265,-10,2,-13,3,-10,8,4,1
34324,8,16,-18,-8,9,-1,-1,-7
34379,5,-3,-25,3,-8,-7,-2,6
34428,-22,-34,-40,-22,4,4,-1,5
34482,-4,-61,-30,-24,-1,8,-2,-1
34534,-7,-3,7,-6,-3,0,-2,-4
34589,-6,5,-15,-3,-5,0,-6,-9
34646,1,2,-6,-6,2,-5,-3,5
34707,4,48,4,1,-10,5,0,-2
34772,12,-4,15,0,6,-5,-4,0
34827,-5,-4,-3,0,-1,0,6,-3
34883,8,-6,1,-12,0,2,0,1
34946,-4,1,9,-1,1,-6,0,-4
35008,-3,9,2,3,0,0,0,4
35071,-1,0,0,-11,-1,-10,-9,0
35120,-4,-26,-24,-10,-7,6,3,-5
35183,6,-10,-3,3,1,-8,0,-3
35247,-3,8,5,-7,-9,-7,-7,-3
35307,4,-25,-25,-2,2,3,-10,-3
35369,-1,12,8,0,-10,-5,7,2
35420,-1,46,15,0,-3,3,-11,-9
35483,-1,24,19,-5,-3,-2,-3,-8
35546,-9,-9,32,3,0,2,-2,10
35607,6,29,-10,-2,-12,-1,5,-1
35668,-4,24,1,4,5,-2,2,-6
35731,12,-6,-13,-10,0,-8,3,-10
35770,-5,-23,-15,7,8,-7,-3,13
35823,1,-14,-51,-23,-9,-7,-4,-1
35877,6,8,6,2,-6,-7,4,-9
35930,6,41,-1,2,-11,-9,-13,4
35993,11,25,31,12,4,-9,0,-40
36058,7,-42,16,4,-2,4,39,-14
36101,3,21,-108,-7,0,29,9,43
36165,-2,20,9,6,14,10,1,24
36230,3,-10,-23,-7,-4,-32,3,24
36290,14,36,-28,-4,1,8,4,-1
36351,14,21,15,4,-4,11,7,11
36402,23,0,-22,12,-4,-16,-3,8
36464,7,17,2,-13,7,-6,-2,22
36528,13,-19,-3,1,-7,4,4,4
36589,-1,-13,-28,-2,-6,7,6,-1
36650,-11,-9,10,-10,-2,4,-2,-10
36704,8,7,-19,-7,12,0,-9,0
36756,8,37,27,17,-9,5,7,-11
36807,-9,-5,40,60,12,-17,-15,-12
36859,0,13,-4,-13,4,-4,-6,5
36919,-5,13,21,-3,2,7,-7,-8
36973,-13,-17,-22,-25,-12,-13,-5,-27
37031,-1,88,65,7,-14,11,2,15
37092,17,1,-13,-2,-17,20,13,58
37142,-19,-44,62,38,9,-19,1,5
37207,10,-42,-53,-11,-5,5,39,6
37269,10,-33,-96,-24,-3,-18,2,24
37332,-8,6,-36,4,-4,9,-12,-12
37392,-14,-14,17,-7,4,-4,-16,3
37443,-6,34,7,-8,-8,12,15,7
37506,-6,-9,-60,-13,-10,-13,7,8
37569,-1,5,-58,-15,2,-11,-13,-6
37632,8,4,-30,-10,5,4,-4,7
37693,8,-25,-9,13,-2,-2,4,0
37745,-3,-31,32,16,6,-8,-15,-12
37797,0,-3,-58,-20,11,-12,7,-15
37849,-13,-11,22,-1,1,15,3,-6
37903,8,-14,21,-7,2,30,49,21
37955,1,11,17,-3,30,66,32,27
38013,5,54,15,8,13,-4,-18,27
38077,1,11,16,37,7,-7,2,-7
38141,7,-28,38,17,2,19,1,5
38206,-2,-40,9,14,20,8,32,4
38255,0,-33,23,1,24,17,38,-14
38313,4,50,58,16,9,0,-23,-7
38374,1,7,24,-11,-8,0,7,-19
38437,4,-33,-27,9,15,-15,-3,31
38494,-27,1,-18,-10,-2,1,-8,18
38547,-8,-25,-14,-18,1,-10,6,37
38599,4,22,4,-5,4,-7,-9,-9
38659,-4,-37,-3,-3,-12,0,10,19
38712,-3,-35,-8,-3,10,7,2,-4
38771,17,44,35,-18,-1,4,3,2
38833,11,13,-5,1,-5,-20,-4,-4
38890,-11,2,0,-7,-6,-11,-15,1
38944,-2,6,-33,-2,-4,13,5,13
38996,-2,-16,3,-17,1,9,-9,-11
39058,1,-62,-39,3,-4,-14,0,38
39118,14,2,-70,2,11,20,8,42
39179,-5,-13,-13,-17,-12,1,0,-8
39238,-11,0,-18,14,0,29,-5,-6
39291,7,4,-23,-18,1,-2,6,3
39358,-5,-37,-69,-4,1,-37,-30,-6
39416,-4,11,-52,-17,-7,-5,-21,3
39477,-1,22,56,5,-12,-54,-118,3
39537,-9,3,39,0,-32,-82,-87,9
39590,6,-1,10,9,-11,-14,13,17
39642,-12,115,24,18,7,56,20,-32
39695,1,10,54,8,4,29,-20,-11
39747,-5,-21,-45,-23,-22,-29,-7,11
39799,-6,-39,-43,3,1,11,4,26
39858,8,6,-45,6,5,31,12,-7
39920,5,54,90,23,7,-12,7,6
39988,-4,-15,-37,-6,3,9,11,18
40031,0,-10,-11,-5,15,7,-12,-7
40094,1,12,26,2,6,12,11,-1
40157,-3,-8,-9,-4,-7,41,34,-1
40222,12,7,36,11,2,10,23,29
40285,-4,31,12,19,-2,-14,17,17
40331,-6,-44,-51,-11,-17,-12,5,42
40383,-1,17,-14,1,-19,2,-6,-8
40436,16,-4,-8,-7,-4,-7,-17,4
40488,7,27,-20,5,-4,-5,-10,20
40541,-13,9,10,4,19,58,-1,-23
40601,-6,-54,-24,1,14,-2,-13,0
40661,15,-16,26,19,12,-3,-28,2
40713,-1,20,15,-19,-5,-7,12,22
40774,-1,56,9,8,5,-2,-7,2
40819,-4,-76,-87,-10,6,-34,4,2
40874,-8,4,-13,6,4,-14,-7,8
40923,-2,-17,-36,0,5,-6,-2,-2
40976,18,-18,-29,-27,-3,15,34,15
41031,-2,-25,-75,-16,-12,2,-9,-2
41084,20,7,66,11,6,15,-13,-21
41138,23,12,57,5,-5,-6,27,-50
41185,2,-8,58,4,2,-5,-4,-1
41239,-6,-6,5,-10,-6,-10,-7,-12
41291,4,15,3,4,5,4,-9,2
41344,13,34,-8,0,10,-6,3,-10
41403,-8,-35,-27,-11,-17,5,3,12
41454,-11,24,1,-5,-13,-1,-17,-17
41508,-12,-70,-25,1,-6,-2,-4,14
41571,16,59,47,6,5,3,2,14
41622,-13,-29,7,-7,4,-14,-5,3
41675,7,25,14,8,-1,5,-1,4
41726,0,-13,-13,-10,1,-20,7,11
41783,2,33,20,-8,-1,14,23,7
41844,5,20,-31,-1,-3,2,0,1
41891,-2,-23,-10,0,-5,-9,3,11
41944,7,-1,4,-14,2,2,18,7
42004,3,-2,-23,2,0,-18,-16,-1
42064,2,-11,-4,5,-4,3,-12,-3
42118,-33,-17,-13,8,7,65,5,-32
42176,-36,25,5,-5,-5,-1,19,-4
42222,31,7,-14,-16,-20,1,-10,26
42273,8,-18,-20,-13,-5,11,-8,2
42327,22,0,-9,5,19,1,-7,33
42385,-5,3,-10,-14,-10,0,8,14
42438,13,-15,-2,11,-7,5,8,27
42503,-9,21,-6,4,-7,4,-2,-3
42545,4,-1,3,-2,-19,-18,-9,31
42604,-12,-8,-1,-13,-18,0,-3,-13
42668,8,-2,3,1,6,-17,-4,-8
42716,4,1,-6,-8,-1,-5,5,3
42779,2,12,-7,0,3,-3,2,-4
42842,0,-8,5,-1,4,-3,1,1
42905,2,-5,6,2,-3,-10,12,-5
42964,1,-3,4,7,0,1,-2,1
43021,-1,4,15,9,7,3,-5,-4
43070,5,7,-9,-1,1,3,-9,8
43126,3,-3,10,8,-16,-10,1,0
43193,1,-10,3,11,0,36,9,-1
43250,7,-1,3,2,2,-9,-7,8
43309,4,-55,-14,-21,-8,-19,21,26
43363,19,2,2,6,-8,-9,-5,31
43424,8,-11,27,23,3,-3,14,15
43489,5,-12,-10,-4,12,2,-7,-1
43553,-12,-15,-10,-29,2,-11,-3,1
43618,0,-11,-1,10,3,0,-6,-6
43664,-9,-16,-4,-11,0,14,8,-15
43728,1,8,0,5,1,2,2,10
43790,-3,6,-1,-7,0,17,5,6
43850,-1,-3,14,18,-1,-14,0,-4
43902,6,15,-9,-6,-2,15,-3,-1
43953,-4,-3,5,-12,-9,7,-4,-2
44016,-5,-9,5,-6,6,-2,-4,-6
44058,-3,4,0,-2,-1,-4,4,5
44117,-1,-14,3,-2,-8,-10,2,0
44169,-8,-1,-1,-9,4,1,-6,1
44232,-6,1,0,11,-9,-3,-2,0
44291,0,2,-5,-5,7,9,-5,0
44342,-3,-3,-5,6,-2,-5,2,5
44407,-3,-7,-11,-12,10,-9,2,2
44471,-1,8,8,4,-3,-1,-14,-33
44538,-5,4,-5,-3,-3,-18,11,6
44593,1,5,-8,2,-5,-6,6,5
44652,0,-13,2,3,-7,-9,-4,-17
44705,9,5,-3,-3,-6,1,-2,4
44771,-10,-5,23,53,-3,7,7,-7
44837,-6,6,14,26,4,12,9,-18
44891,19,2,-24,-6,2,-15,-16,45
44943,-3,-13,25,20,14,-15,-2,11
45007,9,27,0,-10,4,-7,1,0
45069,-54,-11,-9,-4,-10,-20,-5,-27
45137,-12,-8,-1,-2,7,-9,-19,10
45193,-9,-28,-18,-1,-6,-11,5,26
45252,10,12,10,-2,11,8,8,31
45312,11,-6,-5,2,0,2,-8,9
45364,-8,15,3,-4,-2,-4,6,5
45417,-7,5,5,-5,13,2,1,-32
45473,1,3,5,-2,0,-7,-1,-2
45522,1,-8,-1,1,-1,4,-1,0
45575,0,3,-1,-10,-2,-3,11,-6
45630,-6,4,-5,-22,3,-8,6,-10
45692,-4,0,2,0,-1,-11,-7,5
45754,-4,1,14,-6,-5,-3,-7,1
45814,3,7,-3,-3,1,-6,-8,-1
45870,-4,5,0,0,-5,2,-5,1
45932,6,-1,-1,6,-3,1,6,-2
45994,1,-11,-1,-2,-1,3,1,2
46056,4,-5,5,-13,0,-6,-2,0
46116,-6,-1,-5,6,-2,-11,3,-6
46169,-1,-6,-12,-3,-2,-6,2,4
46232,-6,-12,6,-1,-3,-10,-1,-8
46285,-5,6,-4,-2,2,4,-1,-2
46338,-2,2,2,1,-7,-5,0,-4
46391,-4,-5,2,4,-4,-10,-5,11
46451,-2,4,-5,11,-1,-10,-2,-15
46503,-5,-14,12,-1,-6,5,-1,19
46556,6,3,4,-15,2,-8,8,67
46612,-1,-4,4,-1,-2,-4,6,-24
46675,3,2,-3,-4,-10,9,-1,27
46737,6,-2,2,-6,7,7,1,-37
46797,2,3,1,4,14,3,2,-3
46848,-4,-3,6,15,12,0,-7,-6
46911,-5,-1,4,-9,5,9,3,22
46966,4,-4,-1,-1,-5,-1,8,-23
47013,-6,9,3,-1,2,4,3,-1
47067,-4,1,-1,-6,5,6,0,-4
47120,-2,-4,-3,-7,-2,0,-1,-3
47179,1,-6,0,-3,-1,4,-2,-5
47240,3,-8,-8,-5,-12,2,9,0
47303,-3,4,2,-3,6,0,1,-9
47352,-2,-11,-5,1,-3,7,4,-4
47416,7,6,11,-2,9,-5,3,0
47470,0,-6,5,-4,-1,-7,0,-2
47517,3,9,-2,5,11,4,-1,-11
47574,-6,12,0,-2,-4,-5,-1,2
47636,-1,-3,0,2,-7,-4,1,-3
47698,-4,1,3,1,-4,2,0,5
47749,1,-12,5,-7,-8,0,12,-7
47807,5,-5,-2,-1,4,1,4,-7
47860,0,-13,-1,-10,2,-3,5,-14
47924,-4,-3,-2,1,-6,2,-2,-1
47980,-2,1,-5,-3,-1,-2,-5,-11
48034,-2,-3,1,3,-4,-3,-6,-6
48087,-1,6,4,-3,6,0,-5,-4
48145,-4,-9,-1,7,-7,3,5,-2
48192,-4,-6,-5,-1,3,2,2,-5
48244,2,-7,-6,-5,-9,-1,-1,7
48296,1,4,-1,-3,-4,-13,2,-7
48349,2,-2,-7,-3,-7,-3,-8,-2
48401,-7,-8,-2,-3,-5,-3,0,-5
48460,-2,-3,-3,2,0,-4,4,6
48530,2,4,-5,0,3,0,0,4
48587,-3,-12,4,-5,1,-5,-6,0
48637,3,5,0,7,-5,1,0,-3
48694,1,4,5,4,-4,-2,-1,-7
48745,-4,0,2,3,-1,-5,5,-7
48799,-5,11,3,6,-2,1,-8,-5
48856,-1,8,-2,0,-6,-5,12,0
48914,-6,-2,1,-1,1,9,4,-7
48963,-4,-5,-5,-9,2,-3,-4,-13
49015,-1,-10,-2,-4,5,-3,-2,0
49068,-2,-1,-2,-8,0,-1,5,-6
49121,-1,0,3,-1,-3,-2,-1,2
49174,-1,9,-4,-4,2,-5,-5,5
49233,-2,-8,-10,-4,-1,-2,3,-1
49278,0,-7,-6,-4,-2,-9,4,-1
49331,-6,-3,-4,5,0,-3,-13,4
49385,0,-4,4,-2,-5,-4,-8,0
49440,-3,8,-3,-4,0,-2,-1,1
49503,7,-12,-7,-3,4,-1,4,-1
49564,-6,-7,4,-2,-6,-4,4,0
49625,0,4,0,2,-3,-1,-1,-7
49676,0,0,2,-5,-2,4,1,-1
49736,3,-4,4,-3,1,-4,-6,4
49788,-5,1,4,-14,-15,-1,0,4
49847,-2,-4,0,15,2,-2,-9,5
49895,2,8,-8,-4,4,2,-2,-1
49948,-7,-5,-7,6,-6,3,0,-1
50005,0,9,-3,1,8,-8,-8,-5
50068,-2,3,-6,4,0,-3,-1,5
50118,-5,-2,-1,9,3,-5,5,-2
50189,4,24,10,-2,0,-2,1,7
50250,-8,31,-3,19,-11,-3,-1,-8
50310,-3,21,-4,-3,-9,7,1,1
50374,-4,-21,-3,10,4,-6,7,-1
50433,1,10,26,-2,-11,-6,-12,-3
50488,3,33,-72,-4,0,8,-10,3
50546,13,34,16,5,0,-1,-10,-13
50608,-3,-11,0,9,2,6,0,4
50666,6,-10,-33,-5,-5,3,-6,-9
50720,0,-14,-10,3,5,-8,-12,-8
50777,-2,12,16,9,5,3,-5,-2
50823,5,1,-6,1,-2,-3,-1,8
50879,15,25,47,11,-10,-1,-6,-23
50929,2,-23,-17,-2,-5,3,0,-11
50991,-35,-98,-13,8,-1,0,-2,20
51052,-18,45,54,25,10,6,1,11
51102,-18,-13,-17,-27,-9,-6,-1,-6
51165,1,-1,13,-1,2,1,2,-19
51231,-4,-10,-17,2,5,-5,-1,20
51294,-5,-4,-11,0,-5,12,29,-18
51349,-5,0,7,3,25,12,4,18
51402,-10,-27,-10,6,0,-5,7,-7
51464,-22,-23,38,68,-8,-5,-1,-5
51527,-5,36,-36,-13,0,-3,-8,-7
51590,-47,-17,-78,-22,3,2,-50,-105
51650,2,4,69,21,4,3,-10,33
51702,-2,20,-5,13,21,4,31,-10
51754,10,34,4,-13,0,-18,-12,24
51806,-7,3,18,1,0,-14,0,4
51866,3,-17,-34,-37,3,-6,-1,-13
51912,-39,-43,-49,-29,-11,-8,5,-14
51963,10,94,24,20,14,43,-8,-1
52015,28,4,17,0,-7,10,9,55
52069,13,4,14,12,-1,-2,-5,15
52127,13,-10,9,12,6,-22,-52,26
52189,11,6,18,20,-6,1,-1,23
52251,10,17,14,4,-1,-6,4,15
52303,-8,-14,72,78,10,3,-9,-3
52356,-15,-21,9,16,4,-4,-13,3
52406,9,-34,-60,20,4,-13,3,7
52462,-11,6,38,7,7,-7,-16,-3
52512,-4,-6,0,0,-8,-6,-19,-67
52570,9,2,6,4,6,8,18,-7
52632,-2,-12,-2,9,-10,-3,8,-1
52692,-12,-13,4,-16,0,-3,0,-8
52753,35,6,-11,5,-5,0,1,3
52807,-6,-19,-28,-5,-2,-4,-5,-5
52863,-8,-14,-6,1,-2,-1,5,-13
52909,-5,0,-23,-5,4,-5,38,21
52965,3,-2,8,3,-2,0,-9,17
53016,4,4,-8,-2,4,-7,0,-20
53074,7,-11,12,11,16,4,-6,4
53135,-11,-6,21,-1,0,-5,2,1
53195,2,-6,54,22,4,0,-1,0
53247,-7,-7,-14,8,1,-5,6,7
53311,-1,-12,-14,-6,-7,1,14,7
53374,4,-66,-27,-4,-4,-9,-2,4
53437,2,-17,-6,-17,-4,0,-1,7
53494,-4,-1,0,7,2,-2,5,2
53545,-4,-6,14,-13,-5,4,-3,-6
53598,7,35,-7,-15,2,1,7,2
53651,-1,14,25,6,-2,-13,-20,-36
53676,-11,-17,-10,-9,4,6,26,2
