timestamp,emg1,emg2,emg3,emg4,emg5,emg6,emg7,emg8,label
2.012827,60,87,-65,80,-11,-8,-5,-8,4
2.013094,-109,30,-66,-46,-23,-2,-3,-9,4
2.014569,93,57,-14,-21,13,0,-5,-16,4
2.014588,16,-76,21,50,25,7,18,30,4
2.034523,-7,-26,67,18,5,4,-5,-6,4
2.034546,40,-5,14,23,3,3,4,-7,4
2.043902,42,-74,-32,-58,-20,-3,-2,2,4
2.043918,1,67,8,-35,-14,-6,-14,-9,4
2.049014,3,-45,0,17,6,3,7,5,4
2.049031,-71,13,41,-30,-7,-5,-7,-2,4
2.058037,-11,-128,-4,1,3,7,13,10,4
2.058055,44,53,96,88,6,-5,-5,-11,4
2.072970,-123,-17,-53,-98,-22,-11,-20,-19,4
2.073032,-7,34,39,-21,-7,-2,-4,3,4
2.074530,79,19,-21,36,9,0,9,-1,4
2.074551,-16,-24,-24,-2,-5,-7,-8,-2,4
2.102962,-44,127,-11,-55,-8,-11,-18,7,4
2.102983,50,16,22,29,7,7,5,-19,4
2.104532,7,80,50,-1,3,-1,0,-2,4
2.104557,-33,-99,-94,-48,-18,-2,5,3,4
2.117940,52,41,27,58,12,10,11,0,4
2.117958,88,-34,-19,8,10,-6,-1,5,4
2.119469,55,112,7,-2,0,-2,-8,4,4
2.119490,-27,-40,-33,-29,-1,4,0,-3,4
2.132780,-45,-105,-30,57,-1,-4,-3,-10,4
2.132815,21,13,-9,-31,-11,-1,-4,6,4
2.134346,-83,-83,-34,-17,-6,-4,0,-9,4
2.134366,6,-56,23,49,6,2,6,-1,4
2.155352,96,65,30,16,-4,-3,5,4,4
2.155375,76,127,15,-11,-5,-3,-12,2,4
2.157016,30,-86,7,18,5,-1,0,-4,4
2.157040,-70,90,9,-35,-13,5,2,15,4
2.178078,84,-68,18,-8,27,12,18,6,4
2.178098,-124,-10,-14,25,-8,-9,-2,18,4
2.180864,-10,-123,-81,-59,3,-2,-12,10,4
2.180869,54,58,77,-2,9,6,5,2,4
2.192193,-14,66,-31,6,0,-2,9,4,4
2.192208,-60,-71,1,-48,-12,-5,-12,-22,4
2.199064,18,30,22,28,0,2,3,-9,4
2.199086,-53,-63,14,7,6,0,-7,-1,4
2.215368,-32,-103,-58,-51,-10,-7,-2,5,4
2.215388,109,-74,0,2,-3,6,13,-5,4
2.217071,18,127,17,39,-10,-12,-21,-14,4
2.217080,127,-60,-25,17,20,-1,2,-3,4
2.237988,-61,-80,6,-19,-2,1,-2,-16,4
2.238010,-62,56,-47,-29,-12,-6,-7,2,4
2.239832,-40,22,14,-17,1,4,2,-5,4
2.239842,58,-74,-13,57,6,5,10,18,4
2.252318,-15,82,-36,-44,-8,-13,-21,-8,4
2.252336,-11,72,43,-18,1,2,-5,0,4
2.259025,-14,55,-35,54,-7,-6,-4,-5,4
2.259047,0,-11,-17,-18,-3,-1,2,-7,4
2.275452,59,69,46,-26,3,-3,-7,8,4
2.275473,-46,-102,9,16,7,5,6,2,4
2.277009,46,29,45,-4,0,-3,-2,-25,4
2.277032,79,28,12,47,6,1,4,-11,4
2.298029,90,-42,-12,-3,-9,2,2,-1,4
2.299076,38,-67,-21,-21,-3,-1,-1,7,4
2.299266,-41,-64,15,56,-7,-1,0,-1,4
2.299280,-128,-37,-46,-26,4,-7,-12,-6,4
2.312297,-62,14,36,-36,-6,-5,-9,-8,4
2.312317,-4,-26,-13,24,3,0,1,-3,4
2.319080,2,-36,-3,-13,2,2,5,2,4
2.319101,10,-46,-22,-45,-8,0,0,-1,4
2.335406,69,4,-16,44,-8,-5,-5,5,4
2.335428,-31,-36,-44,-32,2,-2,-2,-3,4
2.337037,-16,114,-19,-30,-5,-2,-6,14,4
2.337106,-59,-21,-17,-43,-17,-6,-13,-20,4
2.357957,4,26,16,7,0,7,8,2,4
2.357979,43,27,7,24,18,-3,2,2,4
2.359405,93,-128,-2,26,10,0,5,12,4
2.359449,-29,-49,2,-31,-17,-4,-6,-10,4
2.372251,3,-5,4,25,0,3,4,10,4
2.372271,17,53,29,13,1,-5,-9,-9,4
2.379684,-40,-46,-20,-10,-1,0,3,7,4
2.379688,-66,-49,-34,-3,0,0,3,4,4
2.395317,50,71,47,43,2,0,3,-2,4
2.395335,-19,127,58,36,4,1,2,-3,4
2.396915,46,-9,25,16,9,5,8,5,4
2.396930,-76,-37,-7,-19,-13,-7,-9,8,4
2.417874,-68,-94,-21,-97,-13,-4,-4,-9,4
2.417892,119,35,38,59,8,0,-5,0,4
2.419532,-113,34,-62,-65,-13,-1,-4,-2,4
2.419548,31,103,17,9,-2,-1,2,1,4
2.432263,-72,-61,-64,-54,0,-8,-14,-12,4
2.432282,31,-128,-11,-12,2,3,6,9,4
2.440618,127,-8,40,62,-7,4,13,0,4
2.440628,102,51,-15,-19,6,-2,-12,-5,4
2.455759,50,15,8,10,17,6,10,9,4
2.455763,-2,-37,-15,-32,3,1,-1,-18,4
2.456922,39,90,18,55,9,2,7,13,4
2.456940,-35,-96,-29,-37,-18,-11,-15,-16,4
2.477927,50,9,17,21,-5,5,4,7,4
2.477943,-69,-18,-61,-85,-14,-7,-14,-8,4
2.479478,-11,-59,-17,-29,-8,-4,-4,-1,4
2.479489,127,65,19,60,17,2,8,2,4
2.492794,23,60,-7,2,7,5,6,2,4
2.492810,-110,50,-12,-29,-23,-6,-6,6,4
2.499148,-21,-71,-12,-27,0,0,5,-2,4
2.499173,-73,26,41,53,20,4,3,9,4
2.515760,96,-17,-32,3,-13,-5,-4,1,4
2.516128,127,41,51,92,25,13,23,11,4
2.519210,-90,16,-19,-50,-18,-7,-16,-8,4
2.519217,-19,67,2,-7,-6,1,6,7,4
2.538122,-48,-40,-7,26,1,-1,-1,-8,4
2.538139,-49,-18,6,15,7,-7,-2,1,4
2.539498,-13,9,-16,-2,3,3,-6,-3,4
2.539506,10,27,46,-6,0,2,1,-3,4
2.552305,66,-34,-1,21,3,1,4,-5,4
2.552328,-47,9,17,11,-17,-8,-8,-2,4
2.559138,-54,-31,-35,-39,7,-2,-6,-8,4
2.559156,47,-65,52,40,2,1,-3,-6,4
2.575449,-20,-35,-26,-37,-16,-9,-8,1,4
2.575470,90,10,26,25,8,7,10,-7,4
2.577361,6,-74,-40,6,1,-4,-7,2,4
2.577367,33,54,8,-6,4,0,-2,2,4
2.597829,-3,-56,42,13,5,1,8,4,4
2.597867,-45,-109,11,8,4,2,-3,-5,4
2.599337,-2,-96,22,-5,-2,-1,8,0,4
2.599351,-98,37,-27,-19,-10,-6,-12,-28,4
2.613292,77,69,23,10,3,0,-4,-3,4
2.613298,-13,107,-11,-54,-10,-3,0,-2,4
2.621864,13,-58,-9,19,-4,-4,-4,2,4
2.621871,64,4,0,29,2,4,12,2,4
2.635472,22,70,54,37,9,3,-5,9,4
2.635491,-2,-84,-64,-6,-17,-7,-13,-33,4
2.637263,79,28,27,-6,8,1,3,6,4
2.637268,6,50,30,-1,4,3,11,25,4
2.659972,-58,-10,-46,-21,-1,-3,-7,-9,4
2.659975,114,-85,50,53,20,5,10,15,4
2.659978,-19,29,-44,-72,-14,-10,-18,-8,4
2.659980,14,32,-5,-69,-9,1,-2,-1,4
2.671912,-40,37,-44,-26,-3,4,3,4,4
2.671933,58,-80,-60,54,2,6,12,7,4
2.682239,81,-15,27,18,8,5,5,5,4
2.682243,-79,-97,-46,-21,-11,-11,-13,-2,4
2.695306,54,-23,-2,-8,3,5,4,-16,4
2.695320,-63,-41,-59,-66,-11,-5,-15,-17,4
2.696786,-27,35,39,29,5,1,0,-14,4
2.697925,-72,48,-37,-52,-17,-12,-20,-11,4
2.718178,59,-113,-14,2,-1,-1,5,9,4
2.718195,19,61,45,-13,-2,-1,-3,6,4
2.720483,-13,8,46,29,6,5,10,0,4
2.720490,12,-9,-4,2,-2,-1,-2,17,4
2.731697,-45,3,-24,3,2,-8,-10,-17,4
2.731717,-5,-24,-28,-39,-4,-1,1,1,4
2.741042,-78,-11,-10,-31,6,-4,-12,-2,4
2.741048,82,-68,-16,36,-5,-4,4,-3,4
2.755314,-12,8,57,-3,-8,0,1,11,4
2.755327,-14,60,-1,-27,0,1,-5,-13,4
2.756923,-39,102,69,59,-5,-3,1,-4,4
2.756939,1,-11,-8,-16,1,2,2,-4,4
2.778069,-76,-81,47,18,7,1,3,13,4
2.778095,61,-42,6,-7,-4,-3,-2,0,4
2.780813,50,-80,2,-18,-22,-1,0,-3,4
2.780817,-8,90,-36,14,21,1,-1,-5,4
2.791507,37,83,35,40,3,3,5,2,4
2.791522,-85,34,19,3,4,4,5,5,4
2.802677,-42,-7,-40,6,-8,-7,-4,-1,4
2.802686,-32,90,37,-53,2,3,-4,6,4
2.815687,32,-34,-55,16,-3,-3,4,-1,4
2.815694,34,119,25,15,2,-4,-5,-4,4
2.824606,-11,-59,-31,-17,-6,3,2,10,4
2.824612,-14,-128,-15,33,-3,4,9,-7,4
2.838033,28,98,10,4,6,-4,-3,-3,4
2.838055,-37,21,32,-19,-6,-2,-8,8,4
2.839863,89,40,26,15,8,3,4,-2,4
2.839868,63,-24,-4,10,-3,-2,4,-6,4
2.851598,-8,107,72,-7,-6,-3,-5,9,4
2.851615,29,-86,-8,68,-7,-1,2,-10,4
2.862874,12,61,-27,-18,5,0,-4,2,4
2.862880,-74,-107,-19,-21,-4,-5,-5,2,4
2.877233,12,-35,-19,20,6,-1,-3,-13,4
2.877238,-109,-100,11,-17,3,0,-4,-13,4
2.877242,4,60,12,-30,-6,-4,-11,-18,4
2.877244,127,-73,9,27,1,5,10,2,4
2.898300,-89,-66,17,-8,-17,-4,-3,-2,4
2.898346,-50,-25,-23,-38,2,1,-2,6,4
2.899622,81,-69,-35,22,1,1,5,0,4
2.899628,-3,-90,6,-16,-4,-7,-7,-5,4
2.912037,-36,-22,-22,3,11,3,0,-13,4
2.912131,-40,-28,-12,2,-1,-3,0,5,4
2.921808,-119,-37,-48,-43,-6,2,2,8,4
2.921813,50,27,42,30,-2,3,1,-13,4
2.935964,-11,-96,-24,-61,-4,-7,-6,2,4
2.936001,-28,126,88,28,5,1,-1,0,4
2.938787,-48,-50,-44,-41,1,-7,-16,-10,4
2.938792,-57,96,-7,13,-1,1,1,6,4
2.957911,20,-27,-22,-17,-7,1,2,-3,4
2.957927,83,54,-9,48,1,0,3,2,4
2.959431,70,-32,13,31,4,4,14,7,4
2.959446,-13,-23,9,-6,-1,-5,-9,-4,4
2.971956,12,-8,-30,-17,-14,-1,-2,-2,4
2.971969,6,15,-3,-22,7,-5,-2,4,4
2.981052,41,41,5,20,5,1,4,0,4
2.981056,-19,-3,-17,-13,-2,0,-4,-13,4
2.995698,-14,42,71,61,0,-7,-5,-4,4
2.995718,81,11,-59,-59,-20,-8,-10,0,4
2.997460,116,16,-8,-1,-6,2,1,-5,4
2.997464,-19,0,3,12,9,3,5,15,4
3.017867,-2,33,-8,-12,-5,-2,-6,-14,4
3.017991,-41,-9,-10,1,0,1,3,10,4
3.019647,-17,91,33,2,-1,-2,0,-3,4
3.019663,45,-25,-10,-22,0,2,3,9,4
3.040334,4,46,22,-10,1,0,-6,10,4
3.040351,-14,-28,-17,-15,-19,0,1,-5,4
3.042207,-47,-85,-24,-2,12,0,1,3,4
3.042225,-46,59,-8,12,-2,-6,-3,-9,4
3.055455,8,53,-11,11,8,4,11,9,4
3.055472,-52,-64,-36,-22,-20,-13,-17,-10,4
3.057273,66,-27,11,11,-2,1,6,10,4
3.057277,62,68,49,-5,0,-2,-5,-13,4
3.079292,-6,-128,-48,-35,2,3,4,11,4
3.079296,87,74,74,31,2,-1,0,14,4
3.079408,43,-16,10,-18,-13,-2,-7,4,4
3.079414,-52,10,37,-16,-5,2,1,1,4
3.100536,-19,47,51,-11,5,1,0,10,4
3.100653,-31,5,-18,20,10,3,3,-13,4
3.102001,-108,-43,-29,13,-1,-5,-6,-1,4
3.102025,16,17,11,14,4,6,9,10,4
3.115824,-75,25,-23,-8,-15,-7,-11,-9,4
3.115848,-20,72,-5,-10,14,-1,1,4,4
3.119024,4,17,43,13,9,0,1,-5,4
3.119033,-21,83,4,-29,-9,-2,-2,0,4
3.138013,-18,85,-16,10,2,3,-3,-10,4
3.139854,57,52,21,-18,-4,-5,-5,-2,4
3.139863,-33,53,-7,-25,-4,1,-5,0,4
3.139864,56,-128,18,12,4,8,0,6,4
3.160620,63,21,38,40,3,-3,1,-3,4
3.160639,-4,-128,13,6,-2,0,0,2,4
3.162330,27,-38,16,0,-6,-1,-1,-3,4
3.162358,38,54,6,26,15,2,5,6,4
3.182979,-7,-52,-23,-14,-1,-3,-6,-7,4
3.182994,-32,-31,-19,1,-2,2,3,-7,4
3.184612,-17,5,-30,3,-11,-3,-1,-9,4
3.184666,54,82,-15,3,-1,-5,-2,10,4
3.198112,-1,-90,45,21,4,8,6,1,4
3.198139,-92,5,-51,-39,2,-7,-10,2,4
3.199958,-4,-49,-26,-15,-5,-5,-8,-10,4
3.199962,75,2,-28,65,4,4,15,-3,4
3.220857,92,70,23,-21,-4,0,-2,11,4
3.220864,-33,-97,-73,7,-4,-1,6,2,4
3.221936,34,61,4,35,8,0,-1,-20,4
3.221953,51,-48,-7,9,11,6,5,0,4
3.236472,-16,16,-8,-25,-12,-4,-9,-2,4
3.236478,45,-58,-5,4,2,4,3,-2,4
3.242132,-4,36,12,26,3,1,1,5,4
3.242163,21,-37,11,0,-9,-4,-4,-7,4
3.257892,-39,-34,-41,4,14,-4,-4,-8,4
3.257914,34,93,34,-13,2,4,2,2,4
3.260227,55,-32,26,16,6,3,8,6,4
3.260232,13,-59,-10,26,-9,-7,-8,-7,4
3.282453,98,-2,-4,-13,-21,-7,-4,-3,4
3.282458,-34,5,2,-1,12,0,-2,-5,4
3.282460,69,-29,4,22,-2,2,10,-5,4
3.282462,-76,-59,-1,-31,1,-7,-11,-7,4
3.295034,-43,25,-61,-20,2,-5,-5,-2,4
3.297771,127,31,37,26,-3,1,5,-1,4
3.301716,-36,54,7,-16,-7,-2,-5,-6,4
3.301738,19,-16,-17,-27,-5,-1,-2,-4,4
3.317995,-64,-56,-13,27,-1,1,4,-6,4
3.318018,-66,67,5,6,-5,-1,-5,1,4
3.319608,-30,86,10,-23,-13,-5,-8,7,4
3.319626,32,26,10,-15,17,6,4,-3,4
3.348210,-56,53,15,3,-3,-2,-1,1,4
3.348232,-9,-85,-13,11,-1,-4,-4,-9,4
3.349661,-22,-98,-11,-39,-1,0,1,8,4
3.350772,-30,16,67,36,-2,-3,-6,-13,4
3.354773,30,67,-2,2,-5,-1,-1,-6,4
3.354820,-2,-6,43,5,6,2,0,6,4
3.361535,-5,4,-25,-16,-3,-1,-3,5,4
3.361579,32,-101,-3,-7,1,-2,4,7,4
3.377834,-7,42,-21,-11,-6,-2,-6,-6,4
3.377874,59,33,14,28,0,-2,0,-4,4
3.379485,-70,88,13,-23,-6,-6,-8,-3,4
3.379500,19,123,-11,-3,-8,0,4,9,4
3.401036,45,-49,23,-2,10,-1,4,8,4
3.401063,-50,52,-20,-3,-3,3,-3,1,4
3.404054,57,-93,-31,21,8,3,6,4,4
3.404061,-39,81,-16,-4,-4,-1,1,2,4
3.415888,58,52,45,11,-8,0,-1,-4,4
3.415916,106,79,-31,15,-6,-1,5,9,4
3.421653,-16,-89,-20,7,18,0,-5,-5,4
3.421670,9,-1,-2,-4,-2,-3,-3,5,4
3.438274,1,-114,-11,-39,-12,-1,-4,2,4
3.438281,74,14,21,6,8,2,1,5,4
3.439428,-33,8,4,4,-6,-3,-5,-4,4
3.439445,16,-22,-38,-4,-12,-1,1,3,4
3.460486,-29,-68,-14,34,19,-1,4,-6,4
3.460501,-31,-53,-8,-9,-7,-2,-2,2,4
3.461789,15,-53,39,-10,0,7,8,1,4
3.461844,-128,7,-15,-54,-19,-12,-25,-8,4
3.474780,32,-91,-57,3,1,1,2,1,4
3.474799,14,-7,4,12,3,3,5,-4,4
3.483052,-15,-16,-22,11,3,-3,-1,2,4
3.483058,-64,22,18,20,6,-2,2,-2,4
3.498893,36,127,54,1,5,5,6,9,4
3.498900,-17,-127,-26,-24,-3,-4,-3,-5,4
3.499376,35,102,50,3,-8,1,0,-6,4
3.499384,-25,-72,-25,-8,0,1,2,3,4
3.520551,9,-11,-42,7,3,2,3,6,4
3.520710,22,-12,44,15,6,-1,-1,-7,4
3.522276,-19,47,2,6,-4,-2,-1,2,4
3.522283,23,3,-41,-8,-6,-4,-4,-16,4
3.534279,-17,37,24,-1,0,-1,-6,-2,4
3.534302,-42,-7,-29,-20,-5,-3,0,0,4
3.544985,43,4,9,-12,10,2,2,1,4
3.544989,15,95,73,28,2,-2,0,4,4
3.558383,60,20,-48,-8,-6,0,0,-4,4
3.558418,9,36,13,-2,-3,5,3,0,4
3.561015,-122,-69,-35,-29,-11,-9,-12,-8,4
3.561022,30,9,17,-15,-2,0,-1,3,4
3.579871,17,80,34,-9,8,1,-1,3,4
3.579893,-2,52,7,-7,-2,1,-1,1,4
3.580555,127,42,-6,30,2,-2,2,-6,4
3.580577,-39,-78,-26,-22,-12,1,3,1,4
3.602558,18,-55,31,32,-5,-2,3,4,4
3.602582,-83,68,-9,-11,16,-5,-3,1,4
3.604384,41,35,0,3,-1,-3,-5,-9,4
3.604394,-48,-13,0,16,8,2,3,-6,4
3.617291,-3,0,31,0,-6,-1,-1,-17,4
3.617308,19,-77,-9,-5,-10,-2,-2,-2,4
3.619959,31,-32,2,11,4,3,7,7,4
3.619969,-40,-24,6,3,1,-5,-8,-14,4
3.639634,5,-23,-32,8,-4,0,3,3,4
3.639648,-61,-44,-34,-27,-13,-4,-4,1,4
3.640331,79,19,2,12,10,0,0,-3,4
3.640366,20,33,-32,-14,5,-2,-9,-13,4
3.662243,-22,-21,1,10,1,-1,3,10,4
3.662260,42,-8,0,6,-4,-2,-1,-5,4
3.663546,-96,28,-21,-21,-6,-3,-4,2,4
3.663554,38,75,10,13,-7,-1,2,4,4
3.677146,-39,-22,-30,-16,-2,-1,-4,-4,4
3.677167,23,-27,25,17,9,3,5,-3,4
3.677976,33,-27,19,5,-5,0,0,-4,4
3.677980,94,-128,-6,-9,10,-4,0,9,4
3.699763,-19,9,-15,-33,-8,-1,-4,-4,4
3.699816,34,52,4,-1,-5,-1,-2,-3,4
3.700316,73,121,33,5,2,1,4,8,4
3.700348,-50,-32,14,5,5,2,3,6,4
3.722349,-27,-62,-19,-10,-7,-6,-6,-9,4
3.722370,0,-18,-8,0,-2,-2,-3,-2,4
3.724531,-60,-66,-10,-19,-8,0,-1,1,4
3.724537,-19,45,-13,-9,-9,-1,-2,-1,4
3.737315,-9,20,5,1,9,-1,-2,2,4
3.737335,-16,-93,-32,0,5,0,1,-2,4
3.739246,-62,-56,-21,37,1,-3,2,4,4
3.739251,29,28,-1,-9,-9,2,-3,-7,4
3.762148,40,-92,-11,-14,9,-2,-4,-3,4
3.762155,15,9,31,14,1,-2,-4,-2,4
3.762157,2,-91,-30,-17,1,3,4,8,4
3.762158,2,-73,-27,2,0,3,2,-1,4
3.782431,23,-51,5,2,-9,-1,3,12,4
3.783868,-6,49,34,-19,-11,-4,-6,-13,4
3.783873,12,59,13,11,11,-2,-1,1,4
3.783875,0,41,19,16,9,2,2,6,4
3.797233,-86,-59,-49,-30,-14,-6,-11,-9,4
3.797293,15,-59,-42,-7,-7,2,4,8,4
3.798022,-63,-49,61,-3,3,-6,-6,-8,4
3.798043,19,-44,-20,-28,-9,-5,-10,-25,4
3.819794,32,104,-6,25,7,-1,3,4,4
3.819815,-29,-62,4,-1,-6,-1,1,-3,4
3.820820,-29,-17,-20,-4,-6,-2,-4,-1,4
3.820824,-60,-9,-9,-21,-6,-4,-9,-2,4
3.842264,69,33,-1,-1,-4,-2,-1,-1,4
3.842329,-8,58,-9,1,-3,-2,-1,-2,4
3.843048,63,41,25,3,-4,1,2,-3,4
3.843100,-75,-61,15,0,18,2,6,19,4
3.857393,-36,21,8,0,-2,4,6,3,4
3.857424,-21,88,38,-12,-11,-8,-11,-7,4
3.858550,-118,27,-1,-22,8,0,-9,-3,4
3.858558,127,24,-25,-1,-7,0,0,4,4
3.880019,-39,-68,15,3,3,1,0,2,4
3.880051,-15,-86,10,26,7,7,7,6,4
3.881593,6,0,11,11,-4,2,2,3,4
3.881597,-6,97,-13,4,-5,-8,-10,-3,4
3.903592,-14,13,1,-12,5,-1,-2,-4,4
3.903598,10,-36,8,4,8,-1,0,-6,4
3.903600,-48,-11,-6,-3,-8,-2,-1,-1,4
3.903602,-35,-55,-8,8,0,0,3,2,4
3.918287,113,-15,29,21,-5,0,6,0,4
3.918293,-66,-14,-93,-44,-5,-10,-7,-3,4
3.918294,95,-41,7,-27,-7,-5,-13,-5,4
3.918296,58,16,22,20,4,3,-2,-6,4
3.940015,-2,31,5,-5,-11,-2,-3,9,4
3.941763,40,-28,8,15,11,2,3,-5,4
3.941768,1,68,-56,-3,1,-3,4,3,4
3.941769,34,18,31,11,-3,-3,-3,-1,4
3.962885,-56,24,-3,-23,-6,0,-4,4,4
3.962933,41,2,7,2,-2,-1,3,5,4
3.965683,75,85,-13,-17,-12,0,3,1,4
3.965688,7,-46,-7,-2,10,-1,4,0,4
3.977273,-36,47,-2,5,3,0,-6,-5,4
3.977291,-9,-46,5,-1,2,2,2,-2,4
3.978166,2,89,11,2,-9,-3,-4,0,4
3.978175,106,1,-2,19,1,2,8,1,4
4.000045,72,46,-21,20,5,-2,3,-8,4
4.000065,-14,76,-14,-17,-16,-5,-8,4,4
4.000530,-4,35,18,8,10,0,-1,-14,4
4.000547,-60,-76,-41,-9,-5,-1,-2,-10,4
4.022423,12,63,24,13,4,0,1,3,4
4.022494,1,-15,-2,5,0,0,0,4,4
4.023805,6,-47,20,18,2,1,4,0,4
4.023809,-6,2,-1,-8,-8,2,3,8,4
4.037140,-38,-104,-5,-5,6,-4,-6,-13,4
4.037155,21,24,1,4,-5,0,2,7,4
4.038033,-4,-34,13,-8,0,-4,-7,-7,4
4.038038,-46,45,-7,-10,-6,-2,0,-6,4
4.059560,-19,32,15,6,3,1,0,1,4
4.059569,-9,-46,-11,-1,-2,-2,-5,-9,4
4.060368,15,26,28,-11,-14,-4,-8,-6,4
4.060384,-11,-8,5,-4,17,-1,-2,0,4
4.082358,-11,34,1,-21,-3,3,0,4,4
4.082373,57,48,11,20,5,0,7,-4,4
4.084291,-63,-51,-46,-14,-4,0,-2,1,4
4.084296,75,80,31,1,-7,2,2,3,4
4.097209,96,22,38,9,2,2,-1,-11,4
4.097225,-27,8,-8,0,2,-1,-4,3,4
4.099570,8,37,-11,4,7,4,8,1,4
4.099576,-15,-4,10,15,2,0,1,7,4
4.122104,-12,-61,-15,-11,-4,0,0,-6,4
4.122109,-39,18,8,-1,-4,2,1,5,4
4.122111,112,24,-3,16,4,-6,-3,-5,4
4.122113,-50,-7,-2,-10,3,-1,-2,1,4
4.142785,10,38,14,10,-3,0,3,5,4
4.142811,-9,-48,-15,-1,5,0,-1,-5,4
4.144613,13,-107,16,2,1,1,3,11,4
4.144618,-33,-40,-16,-4,-6,-2,-3,-12,4
4.157181,-40,-20,10,5,-4,-1,-1,5,4
4.157196,99,98,0,-16,-11,-2,1,14,4
4.158312,-32,-113,-47,-1,6,2,-3,-4,4
4.158317,-20,58,-6,-5,-4,-2,-3,-5,4
4.180513,54,-28,-42,-21,-10,-6,-7,-5,4
4.180538,-54,-98,-13,0,9,3,3,2,4
4.182214,82,-7,-1,12,-1,-2,0,-10,4
4.182218,94,76,37,22,-12,-3,1,1,4
4.202411,-65,23,-25,-26,-2,-3,-4,5,4
4.202434,37,-43,7,25,3,2,1,-11,4
4.203286,-33,10,-9,-19,-5,-4,-1,7,4
4.203311,84,-49,10,11,10,2,3,-5,4
4.217866,-40,54,-8,1,-6,10,-2,0,4
4.217894,33,-60,-30,-10,-6,-13,3,0,4
4.220131,-75,86,42,0,1,-2,-2,3,4
4.220137,-3,-2,-12,-37,-11,0,-8,-8,4
4.240543,15,19,3,12,2,-3,5,5,4
4.240570,38,52,2,16,5,6,-5,-5,4
4.243390,23,108,-39,-6,-3,5,2,4,4
4.243394,-60,0,-12,2,2,-7,-1,1,4
4.262510,-58,-111,1,-19,-7,1,-4,-4,4
4.262519,-61,35,68,0,-2,-5,-9,3,4
4.262947,-66,-63,21,40,16,2,5,-9,4
4.262954,33,-12,-2,-12,-7,2,-2,8,4
4.277213,-12,-82,-36,5,-4,-4,0,-1,4
4.277228,-88,-28,-10,-28,-9,-6,-6,-3,4
4.278727,51,13,19,35,9,1,11,4,4
4.278735,27,0,6,-22,-13,-7,-16,-4,4
4.300035,-53,-29,-27,-10,-1,1,11,10,4
4.300051,42,5,-4,7,6,0,2,-13,4
4.302049,0,-19,-26,1,6,4,-3,2,4
4.302065,-52,-28,24,1,1,0,1,-2,4
4.322343,12,41,16,4,-4,-7,-4,7,4
4.322376,55,76,4,7,-4,3,2,3,4
4.325195,-52,-87,-1,-21,-8,-4,-5,-3,4
4.325200,-83,-10,7,1,-4,-1,2,-1,4
4.337334,46,13,17,13,6,-2,-2,-11,4
4.338775,-18,31,21,-19,7,3,-2,4,4
4.338779,-6,-85,0,-1,-4,-4,-5,-5,4
4.338780,-17,127,3,7,4,1,5,5,4
4.359699,-15,32,3,6,1,-3,-5,-9,4
4.359775,76,62,-14,-11,-11,-4,-6,-2,4
4.360436,75,79,-14,-5,-3,2,8,7,4
4.360446,-66,26,-13,-14,-4,-3,-7,-1,4
4.382423,21,37,-1,-11,0,-2,-8,-8,4
4.382439,18,-19,-11,0,0,1,2,9,4
4.383998,-37,50,-25,-20,-8,-6,-11,-16,4
4.384005,-69,-94,-19,-3,-10,-3,0,7,4
4.397493,108,-70,1,19,3,0,2,-18,4
4.397515,-50,-39,-27,7,17,-6,-4,4,4
4.398889,19,-34,16,-5,-1,4,6,3,4
4.398892,127,-50,-6,13,0,-5,1,6,4
4.419766,36,93,27,-22,-7,-2,-3,6,4
4.419823,33,-128,13,25,-5,4,9,2,4
4.420484,-25,3,-11,-6,-3,-4,-10,-16,4
4.420500,-11,37,51,20,8,3,3,5,4
4.442317,-57,-75,-59,-2,-8,1,4,0,4
4.442334,-6,-71,-25,8,6,-4,-4,-7,4
4.443620,-21,25,-11,8,0,0,2,17,4
4.443624,-49,43,10,-31,-4,-5,-12,-34,4
4.457160,-51,-73,-11,-5,0,2,-2,0,4
4.457178,-2,9,12,13,1,2,4,-6,4
4.458745,-29,87,15,-26,-22,-7,-8,2,4
4.458753,-19,-59,-17,14,9,0,5,7,4
4.482321,37,68,69,-5,10,3,0,3,4
4.482326,-28,-12,-27,12,-2,4,6,-2,4
4.482328,-15,9,-57,-15,-1,-6,-7,-1,4
4.482330,47,19,-3,9,1,5,12,11,4
4.502326,61,11,6,15,4,-11,-10,-17,4
4.502351,79,3,-21,-13,-10,-2,-7,-1,4
4.504115,89,-85,16,6,4,5,9,4,4
4.504121,-73,-71,-37,-5,-8,-5,-8,-16,4
4.517635,61,61,59,28,12,4,8,19,4
4.517795,-127,-60,15,-26,-3,-1,-3,-16,4
4.520226,-14,65,-13,-25,-12,-7,-11,-10,4
4.520232,13,-108,-16,26,20,4,1,-7,4
4.539748,0,45,9,-11,4,0,3,12,4
4.539766,-70,-3,-5,-18,-14,-3,-4,2,4
4.541194,15,48,46,22,12,3,4,-1,4
4.541199,-49,-46,-82,-54,-13,-5,-6,-6,4
4.562316,1,8,-7,22,-2,0,-1,-10,4
4.562341,35,41,1,5,-1,-1,3,13,4
4.562982,-92,-119,-28,-10,-4,-4,-5,-9,4
4.563005,37,-59,2,1,6,2,2,-3,4
4.576457,-128,-28,-25,-38,-1,-5,-9,-1,4
4.576472,51,17,15,1,-3,0,2,0,4
4.585123,21,52,23,30,-7,5,14,8,4
4.587523,2,5,22,-18,-9,-15,-24,-4,4
4.600211,81,3,-9,-4,0,0,1,3,4
4.600238,72,29,29,22,7,3,8,-1,4
4.602931,-28,-102,-45,-28,-2,1,-2,-5,4
4.602939,58,-24,-6,33,6,7,14,-2,4
4.622242,18,94,7,-6,-6,-3,0,-1,4
4.622261,-89,-17,9,-25,0,-2,-11,-6,4
4.622929,-4,88,-2,-1,-1,-1,-3,-2,4
4.623004,-33,33,-8,-14,-6,2,9,6,4
4.636576,64,-39,-15,34,8,4,5,-14,4
4.636602,63,66,-11,-40,-14,-8,-13,8,4
4.644838,5,-7,10,9,7,-3,-2,3,4
4.644852,-21,55,15,31,21,5,4,-2,4
4.659817,-87,-94,-24,-24,-20,-10,-5,-4,4
4.659832,-78,-24,0,-12,-8,-1,1,-3,4
4.661609,71,29,7,37,11,3,6,-10,4
4.661613,36,127,-31,-42,-9,-12,-16,3,4
4.683087,-28,-67,48,-2,3,6,3,2,4
4.683091,54,24,-8,11,-2,3,2,2,4
4.683093,-8,-59,0,-25,-14,-7,-7,-3,4
4.683094,66,55,60,32,2,8,8,5,4
4.697159,39,-5,-7,23,19,1,4,0,4
4.697188,-79,89,-9,-7,-3,-6,-6,1,4
4.704942,-67,-112,16,-13,2,4,0,-2,4
4.706420,96,-67,-18,2,-11,0,4,3,4
4.720049,-88,0,12,-40,-21,-10,-18,-8,4
4.720065,-63,-73,-35,7,11,3,-2,-25,4
4.722433,-5,21,47,-8,-6,-3,-4,6,4
4.722437,16,-15,-11,15,7,2,3,3,4
4.743705,-15,-66,-35,28,0,-1,9,-4,4
4.743711,-23,-45,49,4,4,2,0,-2,4
4.743712,76,68,3,-10,-9,0,-3,4,4
4.743715,-81,45,-8,-26,-11,-5,-8,-6,4
4.765528,74,81,-15,4,15,4,4,7,4
4.767080,54,48,6,29,1,1,3,-14,4
4.767085,27,-30,-22,-14,-1,-7,-10,9,4
4.767087,17,-5,-22,3,-5,0,6,0,4
4.780043,42,-2,-2,26,1,0,0,-2,4
4.780069,54,-52,1,-49,-18,-5,-7,-14,4
4.780688,-14,16,78,50,7,-2,-3,-5,4
4.780708,29,33,3,5,5,-2,-3,-1,4
4.802566,57,-50,5,-1,-1,0,0,-1,4
4.802596,3,-52,19,-10,-2,-1,0,9,4
4.805221,6,-38,-5,16,7,3,9,6,4
4.805229,-66,-27,-42,-24,0,1,-6,-7,4
4.816929,-128,-105,-20,-33,-10,-2,-5,11,4
4.816956,107,43,-11,23,-2,1,3,5,4
4.824896,8,85,-26,-9,-1,-2,2,-1,4
4.826286,127,16,19,39,17,4,10,3,4
4.839526,-88,64,19,-55,-6,-3,-14,3,4
4.839581,50,18,-31,17,10,2,8,5,4
4.847600,-111,-90,-38,-43,-10,-1,-5,-3,4
4.849097,34,-124,-58,0,-10,-8,-3,-9,4
4.862433,-35,5,56,13,2,3,-2,-18,4
4.862460,31,-5,32,-7,0,-2,-7,7,4
4.864111,22,-93,-1,-7,-6,-6,-8,-9,4
4.864115,-21,-59,37,27,1,3,10,3,4
4.876941,8,-68,-79,-38,-9,-6,-9,-4,4
4.876968,-49,107,54,6,2,-5,-9,8,4
4.884863,75,-43,29,28,0,2,0,-14,4
4.884884,6,10,17,-1,-5,-2,-4,2,4
4.900654,-2,74,-49,-2,-10,-6,3,8,4
4.900658,-27,-26,60,19,6,1,0,-12,4
4.900660,16,-44,-86,-18,13,5,7,-6,4
4.900662,-35,19,44,-34,-13,-5,-13,6,4
4.922278,5,-74,-50,11,-21,-6,-3,-13,4
4.922299,33,-72,28,25,17,1,7,-5,4
4.923586,-69,-39,-36,-15,-2,2,0,8,4
4.923591,56,-36,-4,3,4,1,3,-11,4
4.945421,-43,51,42,10,11,3,0,5,4
4.945471,-79,-32,-37,-31,-14,-2,-3,6,4
4.946053,48,54,25,8,-3,-3,-2,7,4
4.946108,7,-40,-28,-11,-1,-2,-7,-5,4
4.959675,44,69,-30,-12,-5,-3,2,0,4
4.959696,11,79,30,6,-1,-3,-5,-1,4
4.960540,96,80,59,32,2,0,4,-4,4
4.960559,-120,127,-66,-39,-21,-3,-8,-11,4
4.982854,55,-35,42,29,12,1,3,12,4
4.982876,61,-13,-40,23,20,7,11,17,4
4.985616,-92,-22,0,-27,-12,-6,-6,-1,4
4.985628,51,61,88,19,-2,-2,-5,-14,4
7.030748,0,-1,2,0,0,-3,-2,0,0
7.031450,-1,1,1,-2,-1,0,-1,1,0
7.031974,0,-2,-2,-3,-1,-2,0,-1,0
7.031993,-3,-1,-1,0,-3,-2,1,0,0
7.044757,0,1,-1,-1,-1,-2,-2,1,0
7.044815,-1,-1,0,0,-1,-1,-2,-3,0
7.051580,-1,-2,-4,1,-1,-1,-3,-1,0
7.051598,1,2,0,-2,-2,-1,0,0,0
7.068409,1,-2,0,-1,1,-1,1,-1,0
7.068433,-5,-6,-4,-2,-2,-1,-2,0,0
7.070021,0,-1,1,1,-1,1,-2,-1,0
7.070052,0,-3,-4,-1,-1,1,-2,-4,0
7.090600,-1,2,3,0,0,-1,-1,-1,0
7.090621,1,2,-3,0,1,0,0,1,0
7.091839,0,0,1,0,0,0,1,-1,0
7.091873,-4,1,-1,-2,-1,-2,-4,-1,0
7.105624,0,-3,-4,-1,-1,0,1,-1,0
7.105638,1,2,3,0,0,-2,0,-1,0
7.111687,-5,-9,-16,-2,0,-1,2,-2,0
7.111702,-3,-1,4,2,-1,0,-2,-2,0
7.127893,-1,1,1,-2,-2,-3,-2,-1,0
7.127911,1,5,0,-3,0,-1,-1,0,0
7.129426,0,-1,11,1,-1,-1,-4,1,0
7.129460,1,3,-5,-1,-1,-1,0,1,0
7.152011,-2,-6,-7,-3,-1,-1,-2,-2,0
7.152017,1,-1,-3,-1,1,0,0,0,0
7.152019,2,3,2,-1,-1,-3,-3,0,0
7.152023,0,0,-1,-1,1,-2,0,0,0
7.165034,0,-2,3,0,-1,-1,-1,0,0
7.165057,-1,-1,0,0,0,-1,2,0,0
7.171665,1,0,0,-3,-1,0,0,-1,0
7.171680,-1,-1,3,-1,-3,0,-1,1,0
7.187998,-1,-3,-7,-4,-1,1,-1,-3,0
7.188013,0,-7,-10,1,-3,-2,-1,-3,0
7.189367,-2,0,0,-1,0,-1,-2,0,0
7.189392,-3,-3,-2,1,0,0,-2,-1,0
7.210278,-2,1,4,-1,0,-1,1,2,0
7.210293,-1,-1,-1,1,-2,1,-2,3,0
7.211859,-1,0,-2,-1,-1,-1,0,2,0
7.211893,-1,-2,-3,-1,-1,-1,-1,1,0
7.225128,-1,-1,0,-1,-1,-1,-2,-1,0
7.225155,-2,-3,2,-1,1,-2,-3,-2,0
7.233085,2,-1,-3,-2,0,-2,0,0,0
7.233106,-2,1,2,-1,2,-1,-1,-1,0
7.247786,-4,-6,-8,1,0,0,-3,-1,0
7.247795,-2,1,0,-1,-2,0,-2,0,0
7.249281,3,1,-2,-2,-1,0,-1,1,0
7.249290,4,7,10,1,-2,-1,1,-1,0
7.270543,-5,-16,-13,0,-1,-2,-1,-3,0
7.270561,1,-3,1,-1,0,-1,-2,0,0
7.272849,-1,1,-3,-1,-1,-1,-4,1,0
7.272855,2,-2,-1,-2,0,-2,-2,-3,0
7.284124,3,8,4,-2,-3,0,0,1,0
7.284141,-1,-1,1,-3,-2,-1,-1,-2,0
7.293888,-2,-4,-2,0,-1,-2,0,-5,0
7.293893,0,-1,-5,1,0,-2,0,-3,0
7.308223,1,1,2,-1,0,-1,-2,-2,0
7.308229,-4,-3,-4,-4,0,-1,0,-1,0
7.309423,-1,1,4,0,-1,-2,-2,0,0
7.309437,-2,-4,-2,0,-1,-2,-1,-5,0
7.330539,1,-4,-6,-2,0,0,1,-3,0
7.330560,-1,-5,-3,-2,-1,-2,-1,-1,0
7.331883,-2,-1,-3,-2,-2,-3,-1,-5,0
7.331890,-2,4,1,-1,-1,-1,-3,0,0
7.344355,-1,-4,3,-3,-2,-1,-3,3,0
7.344386,-1,2,5,1,1,-1,0,-2,0
7.354644,-2,-4,-1,-1,0,-2,-2,-2,0
7.354651,-1,-1,-9,-3,-2,-1,-1,-2,0
7.369470,-1,8,8,0,0,-3,-1,-5,0
7.369475,-1,-2,1,1,0,-2,-1,-2,0
7.369561,-1,0,-1,-1,-3,0,0,-1,0
7.369567,-1,-4,-2,-2,0,0,1,-3,0
7.390721,-2,1,-2,0,-1,-1,-2,0,0
7.390749,0,-1,-3,-1,-1,-1,-1,-1,0
7.393722,-2,-1,0,0,-2,-1,0,-4,0
7.393727,0,-3,-5,-1,-2,-2,-2,0,0
7.404127,-2,-1,1,-1,-1,-1,1,-1,0
7.404149,-4,-3,-8,-1,-2,-2,-1,-4,0
7.413475,1,-4,-3,-1,1,0,0,0,0
7.413483,-4,-6,-5,-1,-2,0,-1,1,0
7.427973,1,4,3,0,-1,-1,0,-3,0
7.429139,1,4,2,-1,-2,0,-2,0,0
7.429536,-1,0,-1,-2,-2,-2,-2,0,0
7.429862,-1,-11,-4,0,-2,0,0,-3,0
7.451010,-2,-2,1,-1,1,-1,-1,0,0
7.451034,-1,-1,-1,-4,0,-1,-1,0,0
7.453261,-1,-3,1,0,-1,0,0,0,0
7.453267,2,2,1,-2,-1,-3,-4,1,0
7.464015,1,2,-1,-1,-2,-1,-2,1,0
7.464051,-2,-1,0,-1,0,-3,0,-2,0
7.473605,1,3,2,1,-1,-2,-1,0,0
7.473609,-3,-4,0,2,-2,1,0,-3,0
7.487986,2,-2,-2,1,0,0,1,-4,0
7.488007,-2,-2,0,-2,-2,-1,0,-1,0
7.489528,-2,-3,0,0,1,1,-3,0,0
7.489532,-1,-5,-11,-2,-1,1,-1,-2,0
7.510331,0,-1,-2,-2,-2,-1,-1,1,0
7.510364,1,3,5,1,-1,0,-1,2,0
7.511830,-1,-5,-10,0,-1,-1,0,2,0
7.511839,0,3,5,-3,-1,-1,-2,1,0
7.524204,0,-9,-9,-3,0,-1,-2,1,0
7.524210,3,8,15,2,1,-2,0,-2,0
7.535074,1,-2,-2,-2,0,-1,-2,-2,0
7.535085,1,1,1,-1,1,-2,-1,2,0
7.548128,0,2,-1,-1,-3,-1,1,-2,0
7.548214,-3,-1,-3,0,-2,-1,-1,1,0
7.549567,-3,-1,-2,-4,0,0,0,-2,0
7.549571,-2,4,5,0,0,0,0,0,0
7.571990,0,-4,0,-1,2,0,-2,0,0
7.571996,4,-4,-4,-1,-1,1,-2,1,0
7.571998,-2,6,1,-3,-3,-1,-4,-2,0
7.572000,-1,-19,-8,-1,-1,0,2,-1,0
7.584387,-1,4,4,0,-3,-3,-2,0,0
7.584413,-2,0,-4,0,1,0,0,0,0
7.593331,1,0,3,0,-2,-1,-1,1,0
7.594837,-2,3,1,-2,0,-1,-2,-1,0
7.607954,1,1,3,0,-1,0,-1,1,0
7.607972,0,-7,-10,-1,-1,0,-2,-2,0
7.610514,-2,1,5,-1,0,-3,0,1,0
7.610524,0,0,-3,0,-3,0,-3,0,0
7.630706,-2,-1,2,-1,-1,0,-2,0,0
7.630731,-2,2,0,0,-2,-1,1,1,0
7.632696,-1,4,5,-2,-2,-1,0,-2,0
7.632700,-1,-12,-8,-1,1,-3,0,1,0
7.644124,0,0,-4,-2,1,-1,-1,-1,0
7.644143,0,-3,-4,-4,-1,-1,-2,-2,0
7.654879,-4,-4,0,-2,1,1,0,-3,0
7.654891,-2,5,3,0,-1,-1,0,-1,0
7.667853,-1,-1,-4,-1,-1,-1,-1,-2,0
7.667868,0,-1,-1,1,-1,-1,0,-1,0
7.670127,2,-2,-6,-1,-2,-1,-1,-2,0
7.670133,-5,3,4,1,-1,-1,-1,-3,0
7.690518,-1,-5,-1,-1,0,-2,0,0,0
7.690538,-2,-1,-4,-2,0,0,-1,-2,0
7.692786,-1,0,-1,-1,-1,-1,0,1,0
7.692790,-1,2,-1,-2,1,-1,-3,0,0
7.704296,-1,0,1,-1,-1,-2,1,-4,0
7.704330,1,0,-1,0,-1,-1,-1,-2,0
7.714381,-2,-5,-3,0,0,-1,-1,1,0
7.714385,-1,-1,-2,-2,-2,-2,1,0,0
7.727879,-4,0,-1,-2,-2,1,-2,-1,0
7.727919,-1,-1,0,-1,-2,-2,0,-3,0
7.729482,2,2,4,0,-1,-3,-2,0,0
7.729506,-2,-2,-10,-5,-1,0,-1,0,0
7.750536,-1,-15,-10,1,-2,-1,0,0,0
7.750567,-2,12,15,0,-1,-2,0,-1,0
7.753355,0,-2,-3,1,0,0,0,-1,0
7.753360,2,4,4,-2,-1,0,-2,-1,0
7.773000,-1,1,-5,-2,-2,0,0,0,0
7.773013,-2,-8,-6,1,-2,0,-3,-1,0
7.774389,2,-1,0,-1,0,0,-2,-1,0
7.774406,-2,2,0,-2,0,0,-2,0,0
7.788488,-2,0,2,-1,-2,-2,-3,-1,0
7.788498,-2,-4,-2,1,-1,0,-1,0,0
7.789438,-1,3,0,-3,-2,1,2,-1,0
7.789455,0,-2,-4,-1,-3,0,1,-2,0
7.810307,-2,1,9,1,-2,-1,-1,-2,0
7.810322,-2,-4,-2,0,-1,-1,-1,-3,0
7.811885,0,-4,-5,-3,-2,-1,-2,-3,0
7.811916,-1,-1,2,-2,-1,-2,-1,0,0
7.833179,3,4,4,0,-1,-2,-1,-2,0
7.833206,0,-5,-9,-3,-1,-1,0,-1,0
7.835379,-2,-3,0,0,0,-1,-3,-1,0
7.835383,2,5,3,-1,-1,0,-1,0,0
7.848270,-2,-7,-1,-3,-2,-2,-2,0,0
7.848297,-2,-5,1,1,-1,-1,-2,2,0
7.851363,-2,0,-5,0,0,-1,0,-1,0
7.851370,-3,-5,-2,1,-1,0,-1,0,0
7.870364,0,7,-3,-1,0,-2,0,-1,0
7.870383,0,3,5,-1,0,-1,-2,-2,0
7.872067,-2,-8,-4,0,-1,1,0,1,0
7.872083,2,5,10,2,-2,-3,-1,-3,0
7.891974,0,6,-2,-1,1,-2,-2,-1,0
7.893081,0,-15,-6,-3,-2,-2,-2,4,0
7.902737,-1,2,4,-1,0,-2,-2,-1,0
7.902755,-1,-1,-1,-3,0,-1,0,-1,0
7.906722,-5,-2,3,4,-1,2,1,1,0
7.906744,1,4,-3,-1,-1,-1,-1,0,0
7.915425,0,-2,-6,0,0,-2,-1,0,0
7.915461,-2,0,1,0,-1,-1,-2,0,0
7.930566,-2,0,0,-1,-1,-1,1,-2,0
7.930575,-3,-1,-6,-3,-2,-1,-2,-2,0
7.931853,0,2,6,-1,-1,-1,-1,3,0
7.931868,-1,-6,-5,-2,0,-2,-1,-1,0
7.953239,2,-1,-2,-1,1,0,-1,2,0
7.953256,0,-1,-3,-2,0,0,-1,0,0
7.955812,0,1,2,0,0,-1,0,1,0
7.955824,-1,-1,-6,-2,-1,1,0,-2,0
7.967791,-3,2,8,-2,-2,-1,-1,1,0
7.967832,0,2,2,-1,-2,-2,-3,-2,0
7.974172,-2,-4,-13,-1,-1,-1,-1,-2,0
7.974196,2,0,1,0,-2,-1,-2,4,0
7.990400,-1,-7,-7,-4,-2,-1,-2,-3,0
7.990417,-3,4,2,1,1,1,1,0,0
7.992026,-1,-1,2,-2,-1,-2,0,1,0
7.992045,-2,-1,-6,0,1,-1,0,-2,0
8.012820,-2,0,-3,-1,0,0,-1,0,0
8.012834,0,-9,-8,-2,-2,-2,-1,-1,0
8.014950,0,-9,-3,-2,-1,0,-2,-2,0
8.014957,-1,-3,-3,-1,-1,-2,-1,2,0
8.027144,2,5,1,-2,-2,-2,-2,-2,0
8.027163,-1,4,-3,-3,0,-1,-1,-1,0
8.041591,-1,1,1,0,0,-2,-1,-1,0
8.041607,-3,1,0,-3,-2,-2,-2,-3,0
8.050207,-3,-4,-1,1,1,0,0,-4,0
8.050254,-3,-2,1,1,-2,0,0,-2,0
8.052168,0,-1,1,-4,-1,-1,-1,-3,0
8.052244,1,-2,-2,-1,-1,-1,0,-3,0
8.072894,-3,2,-2,-1,-1,0,-1,1,0
8.072908,1,-1,1,0,0,-1,-1,-1,0
8.074880,-1,-1,2,0,-2,-1,0,-2,0
8.074886,-1,5,5,0,-2,-1,-1,-2,0
8.087240,0,-3,-4,-3,-1,1,-2,-2,0
8.087256,-1,3,0,-1,-1,-1,0,-4,0
8.094086,-1,-1,0,-2,0,-2,0,-1,0
8.094147,-2,-2,0,1,0,-1,-2,-2,0
8.111254,-1,0,-4,0,-1,0,0,-2,0
8.111261,-5,-7,6,1,0,-2,0,-2,0
8.111846,-3,-4,0,0,-2,-1,-4,-1,0
8.111857,-2,0,0,-1,0,-1,0,1,0
8.132892,0,-6,-8,-1,1,-3,0,-2,0
8.132909,0,4,-1,-2,-1,-1,-1,0,0
8.134472,0,2,-4,0,-1,1,0,-2,0
8.134548,0,-2,-1,-1,0,-1,-1,2,0
8.147245,0,-2,-7,-1,-1,-1,-2,1,0
8.147261,0,0,-3,-2,-2,-3,-1,-1,0
8.154006,-1,0,0,0,-1,-1,-1,-1,0
8.154024,2,-4,-7,-2,0,0,0,-2,0
8.170403,-3,-1,6,-1,0,-1,0,0,0
8.170426,0,0,-4,-1,-1,-1,-2,-2,0
8.172392,-2,-4,0,-3,-2,-2,-2,0,0
8.172396,-2,0,-1,-1,0,-2,-2,0,0
8.192918,-1,-2,-7,-1,-2,-1,1,-1,0
8.192989,-3,0,1,-1,0,0,-2,-2,0
8.194335,-3,3,5,0,-2,-1,-1,0,0
8.194351,0,-9,-13,2,0,1,0,1,0
8.207227,-2,0,1,-2,-1,-1,-3,-3,0
8.207244,-1,-4,-7,-1,0,-2,-1,-3,0
8.214292,-1,6,4,0,0,2,-1,-2,0
8.214312,-2,-6,0,-2,0,-1,-1,-2,0
8.230580,-2,-1,2,-2,0,-2,-3,0,0
8.230607,0,1,-5,-2,-1,0,-1,-1,0
8.232353,-1,-3,-5,-2,-1,-2,-1,1,0
8.232357,-4,-1,1,1,-4,0,-2,-1,0
8.254128,2,7,2,0,-1,-2,-1,-3,0
8.254136,-1,-11,0,-1,0,1,-1,2,0
8.254371,2,-1,2,0,0,0,-2,0,0
8.254380,-2,0,-2,-2,-1,-1,1,1,0
8.267122,-1,-2,1,-2,0,-2,-2,0,0
8.267154,-1,4,5,-2,-1,0,-2,-2,0
8.275565,-3,-4,-12,0,1,-2,1,-4,0
8.275607,2,3,5,-1,-2,-2,-1,-2,0
8.290362,0,4,4,0,0,-2,-1,0,0
8.290380,-3,-2,-9,-1,-2,-1,-1,-2,0
8.291978,1,0,3,-2,0,1,0,1,0
8.291998,-2,3,7,4,-1,0,-1,-4,0
8.312985,2,-3,-5,-1,-2,0,-1,1,0
8.313005,1,3,1,0,-2,-1,-1,1,0
8.314525,-1,-4,-3,-2,-2,-2,-2,0,0
8.314534,-2,-1,-5,-4,-1,0,-2,-1,0
8.326949,1,-1,-1,1,0,1,0,1,0
8.326975,-1,-1,0,0,-3,-1,-3,-3,0
8.337989,-1,3,-4,0,1,-2,-1,-1,0
8.337997,0,-2,1,-2,-1,-1,-2,1,0
8.350821,-4,8,2,-2,-2,-2,0,-2,0
8.350845,-1,-17,-7,-3,0,2,0,-1,0
8.352738,-3,2,3,3,0,-1,-2,1,0
8.352742,2,0,0,-2,-3,-2,-2,-2,0
8.373083,0,-11,-9,-1,0,-2,-1,1,0
8.373105,-1,26,7,-2,-1,-1,0,0,0
8.374455,-1,-15,5,-2,-3,-2,1,-4,0
8.374459,-1,3,9,3,0,2,-1,3,0
8.386454,1,-6,-2,-2,-1,0,-1,-3,0
8.386474,0,-2,-4,-2,0,-1,-1,1,0
8.397322,-2,-2,-9,-3,-2,-1,-4,1,0
8.397328,-2,2,0,-1,-3,-2,0,0,0
8.410544,-2,-6,-2,1,-1,-1,-1,-6,0
8.410555,0,-3,-1,1,-1,-2,-1,-2,0
8.411798,-1,7,2,-3,-1,1,-2,1,0
8.411808,-4,-4,-4,-2,0,-2,0,-2,0
8.433290,-1,2,1,1,-1,1,-1,-1,0
8.433313,1,1,5,0,0,-2,0,1,0
8.435374,-2,1,-4,0,0,-1,-1,0,0
8.435394,1,-2,-4,-1,-2,-1,-1,-1,0
8.446850,-3,-7,-1,-2,0,-1,-1,-1,0
8.446877,1,3,6,0,-2,-2,-2,-2,0
8.457216,-3,-7,-14,0,-1,0,0,0,0
8.457224,0,-2,-1,-1,0,-1,-3,-4,0
8.470556,-4,-1,-3,-3,0,-1,-2,-4,0
8.470578,2,-4,3,0,-1,-1,-1,0,0
8.472481,0,2,1,-3,-4,-1,-1,-1,0
8.472485,-3,1,-3,-2,1,0,-1,1,0
8.493035,0,2,5,0,-1,-1,-2,1,0
8.493053,0,4,-6,0,0,-1,-1,-1,0
8.494575,0,-13,-3,-2,-1,0,0,0,0
8.494581,0,2,1,-2,1,-1,-1,1,0
8.506438,1,1,2,-1,-2,0,0,-1,0
8.506452,-1,-2,-2,-1,0,0,-1,1,0
8.516269,-1,5,4,0,-1,0,0,-1,0
8.516276,0,2,7,-1,-1,-2,-3,0,0
8.530542,-4,-1,-7,-3,1,-1,-1,0,0
8.530558,1,-7,-6,-1,0,-1,1,-1,0
8.531967,1,-5,-8,-3,-1,-3,-1,-3,0
8.532002,-1,2,13,0,-1,-1,-2,-5,0
8.552907,2,4,1,-2,-1,-1,-1,-1,0
8.552988,-6,-4,-2,3,-1,2,-1,-1,0
8.554407,4,5,7,0,-1,-2,0,2,0
8.554424,-1,-5,-2,2,-2,0,-1,0,0
8.567580,0,0,-3,0,0,-2,0,1,0
8.567587,-5,-8,-3,-2,1,-3,-1,-1,0
8.576568,0,0,-1,-2,-1,-2,-1,-1,0
8.576572,-1,-1,-6,-2,-2,-1,-1,-2,0
8.590362,-2,0,1,-2,-1,0,0,0,0
8.590381,-2,1,-2,-3,-1,-1,-3,-2,0
8.592054,0,4,2,-1,0,-1,0,-1,0
8.592094,-2,-6,-8,-3,0,-1,0,-1,0
8.620504,0,-3,2,0,-1,1,0,-1,0
8.620523,-2,4,2,-2,-1,-1,0,1,0
8.622433,-1,2,-2,0,0,-1,-2,0,0
8.622437,1,0,-10,-2,-1,-1,0,1,0
8.626628,0,-4,0,-1,-1,-2,-2,1,0
8.626698,0,-5,0,-1,-3,-1,-2,-2,0
8.637274,0,1,-1,1,1,-2,-1,-1,0
8.637280,1,-4,-8,-2,0,-1,-2,1,0
8.650729,1,-1,-6,3,1,-1,-2,-1,0
8.650752,2,4,5,-1,0,-1,0,-1,0
8.652729,2,-2,1,0,-2,1,0,0,0
8.652738,-3,-7,-4,-2,-2,-2,-1,-1,0
8.673448,-4,-8,-7,-1,0,-3,-2,-4,0
8.673481,-1,1,2,0,-2,0,-2,-2,0
8.675918,-6,-7,-11,-2,0,-1,0,-1,0
8.675925,1,6,13,0,0,1,-1,-2,0
8.703130,-3,-3,2,-1,-1,-1,-1,0,0
8.704738,1,1,-1,0,0,0,-1,-2,0
8.704753,-1,0,1,-1,-2,1,-1,0,0
8.704756,-4,0,-3,-2,-1,0,-1,-1,0
8.710256,1,5,5,0,-1,-2,-1,-2,0
8.710272,1,-8,-13,0,0,0,0,1,0
8.712095,-1,3,4,-1,0,-1,-1,-1,0
8.712100,-1,2,-2,-1,-1,-2,0,0,0
8.733003,0,-6,-4,-1,0,0,1,-1,0
8.733023,-3,-2,2,-2,-1,-2,-3,0,0
8.736366,2,-5,-2,0,-1,-3,-1,-1,0
8.736382,-1,-4,0,-1,-1,-1,1,0,0
8.762976,0,1,3,-1,-1,-1,0,2,0
8.764260,1,7,8,0,-1,1,-1,3,0
8.764576,-3,-3,-5,-4,-1,0,-2,-4,0
8.764670,-1,-2,-1,-1,0,0,-1,-1,0
8.770483,-2,1,-3,-1,-1,-1,-1,-2,0
8.771953,0,-1,2,-1,0,-3,-1,-1,0
8.771958,0,1,3,0,-1,0,-1,0,0
8.771998,2,4,-2,0,-1,-2,-1,-1,0
8.793073,-2,8,4,-2,-3,-2,-3,-2,0
8.793090,-2,-8,-8,-2,0,0,0,1,0
8.794548,0,-2,0,-2,1,-2,0,-1,0
8.794555,-3,-3,-2,0,-1,-2,0,-2,0
8.817621,1,5,1,1,0,1,0,-2,0
8.817632,-2,4,4,-2,-3,-1,-1,-2,0
8.817637,2,-3,-3,-2,-1,-1,0,1,0
8.817640,1,8,10,-2,-1,0,-2,-3,0
8.831521,-3,-4,-3,-4,2,-1,-1,2,0
8.831525,-2,-6,-2,1,0,0,1,-5,0
8.831805,-1,1,0,-2,-2,0,0,-2,0
8.831812,0,-3,-5,-2,-2,-2,-2,-1,0
8.853109,0,-2,-9,-3,-3,-1,-1,0,0
8.853130,-2,0,2,1,-1,-2,-1,0,0
8.855260,0,2,0,-1,-1,-3,-2,-2,0
8.855267,-1,-3,-3,0,-1,0,1,-2,0
8.876013,1,-2,-2,-1,0,-1,-1,-1,0
8.876039,0,-1,-2,-2,0,0,-1,2,0
8.877800,-1,2,4,0,0,-2,-1,-3,0
8.877806,-1,-7,-9,-2,-2,-1,-1,0,0
8.890280,1,2,5,2,0,-2,-2,1,0
8.890311,0,0,-1,0,-1,-1,-1,-4,0
8.896953,-4,1,2,0,0,0,0,1,0
8.896974,-3,-1,1,1,0,-1,-1,0,0
8.913267,-1,-3,-1,-2,-5,-2,0,-2,0
8.915772,1,3,-5,0,-1,-2,-2,-1,0
8.915778,0,3,13,3,1,0,-1,1,0
8.915780,-1,-5,-11,-1,0,-2,0,-4,0
8.935476,-2,-2,0,-1,-1,-2,-1,0,0
8.935502,1,0,-3,-2,-2,-1,0,1,0
8.937497,-1,3,-1,-2,-3,-2,-2,-3,0
8.937503,-2,-12,-9,-1,-2,0,-2,0,0
8.949820,-4,9,13,1,2,0,2,-5,0
8.949840,-2,-4,1,-2,-1,-2,-1,-2,0
8.956554,-3,2,-3,-2,0,-1,-1,-2,0
8.956570,-1,-1,1,-2,-1,-2,-2,1,0
8.973015,0,-8,-13,-2,-1,-2,-2,0,0
8.973037,-3,1,3,-1,0,1,-1,-2,0
8.974528,-2,-7,-4,-2,-1,-1,-1,3,0
8.974544,-1,3,2,0,0,0,0,-2,0
8.995492,2,-2,0,-3,-1,-1,-1,-4,0
8.995511,0,6,9,3,-1,-2,0,0,0
8.998002,0,5,-4,-2,0,-1,-2,0,0
8.998005,1,-12,-3,-1,-1,-1,1,2,0
9.009943,0,11,18,2,0,-1,0,0,0
9.009959,1,-19,-15,1,0,0,0,-2,0
9.016790,0,-3,-7,1,-1,1,-1,-2,0
9.016815,-2,1,-1,-1,-2,-1,-2,-1,0
9.035176,0,0,-3,-2,0,-1,-1,2,0
9.035181,-1,3,2,0,-1,0,-1,-1,0
9.035183,0,-3,-2,-2,0,-2,-1,0,0
9.035184,1,1,2,0,0,0,-1,-1,0
9.055364,0,-4,-7,-1,-3,-1,-3,3,0
9.055492,2,1,-4,-3,0,0,0,1,0
9.056938,-3,-1,0,0,0,0,0,1,0
9.056948,1,4,0,1,-1,-1,-2,-1,0
9.069737,-2,-4,-3,-2,-1,-2,0,-2,0
9.069754,0,1,-2,-2,1,-1,-1,-1,0
9.076731,0,-3,0,-1,-1,-1,-1,-2,0
9.076750,-1,0,3,0,-1,1,-2,-2,0
9.094969,-3,-5,-5,-1,-2,-1,-1,-1,0
9.094979,-1,-2,1,1,0,1,-1,-1,0
9.094984,3,0,-1,-3,-2,-3,-3,1,0
9.094987,-1,-4,0,-1,-1,0,0,0,0
9.115574,1,-9,-10,-2,-1,0,0,-2,0
9.115588,1,7,8,0,-1,-2,-4,3,0
9.117196,-3,-12,-15,-3,-2,-2,0,0,0
9.117200,-2,15,13,2,1,-1,0,1,0
9.130061,0,-5,-2,-2,0,1,-2,-1,0
9.130170,-1,6,5,0,-1,-2,-2,-2,0
9.136660,0,0,1,-1,0,0,0,-3,0
9.136684,1,3,-1,-1,-1,-2,-1,0,0
9.153005,0,-6,-3,-1,-1,-1,0,0,0
9.153030,-5,-6,-4,-2,-1,0,-2,-3,0
9.155110,-2,1,3,-1,-3,-3,-3,1,0
9.155117,-3,-1,-3,-1,0,2,1,-2,0
9.175555,-3,5,4,-1,0,-1,-2,-1,0
9.175579,-1,-3,-3,-5,-2,0,-1,-1,0
9.177006,-1,-3,-3,-1,1,0,-2,-5,0
9.177023,3,2,8,0,-3,0,-1,-2,0
9.189095,0,7,0,0,1,-1,-2,-2,0
9.189111,-1,-14,-9,-3,-1,-1,2,-1,0
9.199267,-2,-1,13,4,-1,-1,-1,-1,0
9.199271,0,-6,-8,-3,-1,-2,-2,-4,0
9.213537,-4,6,9,1,-1,0,-1,-4,0
9.215048,-3,-3,-4,-2,-2,-1,-1,-3,0
9.215052,-2,-5,-11,1,-1,-1,0,1,0
9.215053,-2,3,2,0,0,-2,-2,-1,0
9.235343,1,-4,-5,0,-1,0,-1,-2,0
9.235363,-1,3,0,0,1,-2,-2,-1,0
9.236926,1,-2,1,-2,0,1,1,-2,0
9.236944,-3,-2,-9,-3,-1,-1,-1,-2,0
9.250212,2,-3,6,1,-1,-1,0,-1,0
9.250216,-1,2,1,-2,-1,-1,-1,-3,0
9.258782,0,3,1,-3,-1,-1,0,-3,0
9.258794,-4,-14,-14,-1,-1,-2,-2,-1,0
9.272953,-1,5,-3,1,-1,-2,0,-3,0
9.272971,0,-5,-3,2,0,-1,0,-2,0
9.274535,-3,6,3,0,0,-1,-2,0,0
9.274598,0,2,-2,-2,-2,0,-1,-1,0
9.295348,0,-9,0,-1,0,-1,-1,0,0
9.295356,1,1,-4,-2,0,-2,-1,-2,0
9.296842,0,-3,-6,-3,-2,0,1,1,0
9.296857,0,6,1,0,-2,-2,-2,0,0
9.310561,-7,-2,-4,0,-2,0,-1,-3,0
9.310566,2,3,4,-4,-2,-2,0,-3,0
9.319288,4,0,-2,1,-1,1,-1,-2,0
9.319294,-1,-6,-2,-1,0,-2,1,1,0
9.333057,-1,-3,-3,-4,1,-1,-1,-5,0
9.333073,0,0,2,0,0,0,-2,1,0
9.335022,-2,1,0,-3,-2,-2,-2,-4,0
9.335028,-2,6,6,0,0,0,-1,-2,0
9.356810,1,0,2,-2,-2,0,-1,0,0
9.356817,-2,2,-1,3,0,1,1,1,0
9.356893,-1,0,-3,-2,-1,0,0,0,0
9.357041,0,-3,-4,-2,-1,0,0,0,0
9.378034,-2,-3,-1,1,-1,0,0,2,0
9.378048,-1,4,-3,-3,0,-1,-2,-1,0
9.380057,-1,2,-2,1,-1,-2,0,1,0
9.380061,-2,-1,1,-4,-2,-1,-1,-1,0
9.393184,-1,-7,-14,-2,-1,0,0,1,0
9.394828,-2,-2,1,0,-1,-1,-1,0,0
9.394833,0,-3,0,-1,-1,-3,-1,1,0
9.394835,1,2,5,-1,-2,0,-2,1,0
9.415479,1,1,-1,-1,-2,0,-2,0,0
9.415498,-2,-10,-11,-3,-4,0,-3,1,0
9.417924,-5,2,9,1,0,-1,-1,0,0
9.417932,2,-3,1,-1,0,-1,0,-1,0
9.429263,0,0,-2,1,-1,0,-2,4,0
9.429282,-2,-3,-6,0,0,-1,-1,1,0
9.438762,0,-2,-4,-1,-2,1,-1,-2,0
9.438769,1,-1,-1,0,-2,-3,0,0,0
9.453337,0,3,3,0,0,-1,-1,-3,0
9.453355,0,1,-5,-2,-2,-1,-1,-1,0
9.454920,-2,-14,0,0,-1,1,0,0,0
9.454935,-1,0,3,0,0,-1,-2,0,0
9.482820,-1,-1,-4,-3,-2,-1,-2,-1,0
9.482856,-1,0,3,-1,-1,-1,0,3,0
9.484328,1,-1,-3,-1,1,-2,-3,0,0
9.484341,1,-6,-4,0,-2,2,0,1,0
9.489305,-2,4,-1,-1,-1,-2,-3,1,0
9.489330,-2,-8,-3,-3,-1,-2,-1,-2,0
9.498939,0,6,9,0,0,-2,-2,1,0
9.498945,-2,-1,-5,-1,-1,0,0,2,0
9.513168,2,3,2,2,-1,-2,0,-4,0
9.513172,0,-7,-3,0,-2,0,-2,-2,0
9.514312,-1,1,-2,-3,-2,-1,0,0,0
9.514324,0,-3,-5,-1,0,-1,-2,-3,0
9.535486,-2,5,3,-2,-3,-1,-3,-1,0
9.535506,0,-7,0,0,0,-2,0,0,0
9.537586,-1,2,-3,-2,-1,0,-1,0,0
9.537591,-2,1,0,-2,-1,-1,-2,-3,0
9.549180,2,-4,0,0,0,-1,0,1,0
9.549243,0,3,3,-1,-1,-2,1,-3,0
9.557973,-2,5,-1,-1,-2,0,-3,-1,0
9.557993,0,1,3,-1,-2,-2,-1,0,0
9.573154,-1,-5,-5,1,-1,0,0,-1,0
9.573160,0,2,1,0,-1,-1,0,-2,0
9.574416,-3,0,-7,-2,-4,-1,-1,-1,0
9.574433,0,-11,-8,-2,-1,1,-1,-1,0
9.595327,-3,-3,7,-2,0,-3,0,-1,0
9.595341,-1,4,0,0,0,0,-3,-3,0
9.596803,0,-2,-3,-3,-1,-2,-1,-2,0
9.596835,-2,2,2,1,-3,-2,-1,-2,0
9.609033,-1,4,5,-2,-1,0,0,-2,0
9.609053,-1,-11,-18,-1,-2,-1,-2,-2,0
9.620472,-1,-8,-6,0,-1,1,1,-1,0
9.620478,-2,7,7,0,0,-2,1,0,0
9.635739,-3,-2,-7,-3,-1,-1,-1,-4,0
9.635749,0,7,9,-1,0,-2,0,-2,0
9.635751,-1,-5,-3,1,-1,0,0,-2,0
9.635754,2,-13,-12,-4,-1,0,-2,0,0
9.655434,-1,15,9,0,-1,-1,-3,-1,0
9.655449,-2,-7,1,0,-1,-1,1,-2,0
9.656931,1,-2,-1,-1,-2,0,-1,-3,0
9.656951,-2,0,9,1,-1,-1,-1,-2,0
9.677975,-1,-5,-5,-2,-1,-3,-2,-1,0
9.678000,-2,2,1,0,-1,-1,-1,1,0
9.679895,1,1,3,-2,1,-1,-1,1,0
9.679910,0,3,-1,0,-1,0,-1,-2,0
9.692909,-2,-15,-17,-2,-1,-1,-1,-1,0
9.692928,4,6,5,1,1,-2,-1,0,0
9.694466,-1,-1,3,0,-1,-1,-1,-1,0
9.694483,-2,3,0,-2,0,0,0,-4,0
9.715504,-2,-3,-2,-1,-3,-3,-1,1,0
9.715530,-1,0,-1,-2,-3,1,-1,0,0
9.717035,-2,1,-1,-2,-1,-2,-2,0,0
9.717059,-2,-3,-3,1,0,-2,-2,-1,0
9.737834,0,-2,1,-1,-1,0,2,-1,0
9.737850,-1,0,0,0,0,-3,-2,0,0
9.739401,0,2,-2,0,0,0,-2,1,0
9.739416,-5,1,7,0,0,-1,0,-4,0
9.753081,0,-7,-2,-2,1,-2,-1,-1,0
9.753108,-3,3,-1,-1,-1,0,-1,0,0
9.754526,-2,-7,-3,-2,-1,0,-1,-2,0
9.754549,2,3,-5,-1,-1,0,-1,4,0
9.775395,0,1,-3,-1,-2,1,0,-2,0
9.775414,-1,0,2,-1,0,0,-2,-3,0
9.776851,3,0,-4,0,0,-1,1,0,0
9.776968,-1,-1,-2,-1,-2,-1,-1,-1,0
9.797905,0,-3,0,-2,-1,-1,-1,1,0
9.797918,0,-2,-1,-1,-1,-1,-2,0,0
9.799377,-2,-1,1,1,-2,-2,-1,-2,0
9.799408,-2,-3,-1,-2,0,-1,1,1,0
9.812138,-1,0,0,0,-1,-1,0,1,0
9.812153,0,1,-1,-3,-2,-2,0,-3,0
9.819244,0,-6,-5,0,-2,-2,-2,0,0
9.819266,0,3,12,1,0,-2,-2,0,0
9.835546,-1,6,1,1,0,0,0,-4,0
9.835577,-2,-4,-3,0,0,-1,-1,-1,0
9.837665,0,-4,-3,-1,-1,-1,0,-2,0
9.837671,-3,-5,-9,-4,-3,-2,-1,-3,0
9.858246,-3,0,2,0,0,1,0,0,0
9.858273,4,6,2,-2,-2,-2,0,2,0
9.860520,-4,-1,3,-1,-1,0,-2,0,0
9.860525,2,3,-4,0,-3,0,-2,-2,0
9.872387,0,-9,-1,-1,-2,0,-2,-2,0
9.872463,0,4,-4,-1,-1,0,1,-1,0
9.879372,1,2,2,-2,-1,-1,-2,0,0
9.879396,-1,3,1,0,-1,0,1,0,0
9.896189,-1,1,-3,-3,-2,-2,-2,0,0
9.896216,-2,-8,-5,-1,0,-2,-1,-1,0
9.899664,0,7,3,-2,1,-1,0,0,0
9.899671,1,-5,-3,-2,0,-2,-3,-1,0
9.917639,2,-3,-6,-2,-1,0,0,2,0
9.917686,-2,-6,6,1,-1,0,-2,-2,0
9.923927,-3,10,1,1,0,-1,1,-4,0
9.923942,-1,-19,-7,-2,-1,0,-1,2,0
9.932114,1,3,-2,0,-1,-1,0,-2,0
9.932144,0,-7,-1,-3,-2,-1,-3,-3,0
9.939026,1,-1,0,-2,-2,0,-1,-2,0
9.939043,0,2,0,1,1,1,-2,-1,0
9.955410,-3,1,0,-2,-1,-3,-2,-4,0
9.955426,-2,-1,-3,0,-1,-1,0,-2,0
9.958276,-2,4,3,0,0,0,-1,1,0
9.958280,-1,0,-2,-3,-3,-2,-1,-2,0
9.978929,1,-3,2,-1,4,-1,-3,1,0
9.978935,-2,3,1,-1,-1,0,-1,0,0
9.984371,-1,-10,-3,-1,0,-2,1,-2,0
9.984399,0,-1,-7,0,-1,-1,0,-1,0
9.993888,-4,1,2,-2,-3,-2,-1,-2,0
9.993892,1,-6,-9,0,0,-2,0,0,0
9.999170,-1,9,11,2,-1,-1,-1,-2,0
10.000742,-2,3,7,1,-1,-1,-1,-1,0
12.018483,73,-11,2,10,6,-2,-6,-1,4
12.018703,-35,-12,-13,-5,-6,2,-3,-13,4
12.025171,72,37,-32,-8,-3,-2,1,-5,4
12.025200,-33,-2,18,-3,4,1,4,3,4
12.039709,-69,-44,-12,-11,-2,-2,-8,-7,4
12.039727,71,108,60,22,5,3,0,-15,4
12.040353,-92,-51,-23,-10,-13,-5,-4,-4,4
12.040362,-11,-38,19,-2,-2,-3,-6,-3,4
12.062430,-26,20,21,-2,2,0,4,11,4
12.062570,3,-98,-4,4,1,3,6,12,4
12.065088,-17,38,8,6,2,0,0,-7,4
12.065093,-4,117,12,-4,-9,-3,-3,1,4
12.077113,99,-70,34,6,1,0,6,-13,4
12.077128,-9,-75,-22,5,0,-1,2,2,4
12.077977,-23,-40,-8,-8,-2,-3,-6,-3,4
12.077982,-24,-78,9,-9,-5,0,-3,-4,4
12.099623,33,-4,-8,-1,0,1,-1,-3,4
12.099642,14,11,25,7,-1,0,6,0,4
12.100764,23,-41,-8,-21,0,-5,-9,4,4
12.100780,-5,3,-16,15,6,1,6,4,4
12.122349,14,-71,5,-4,-6,-2,-4,-7,4
12.122370,77,-33,23,-1,0,0,4,9,4
12.123879,-1,95,10,6,-1,2,3,-8,4
12.123885,10,70,-12,5,-5,-2,-5,-12,4
12.136662,-53,33,-15,-14,-4,-3,-4,6,4
12.136681,-27,-9,-51,-6,-5,-6,-4,0,4
12.144593,10,16,-21,10,7,2,2,-2,4
12.144608,113,5,10,7,5,-1,2,-10,4
12.159721,-68,-60,-26,-15,-11,-4,-13,-36,4
12.159738,-28,68,2,-4,-6,-2,-2,-5,4
12.160345,-30,-52,-26,11,0,-1,1,4,4
12.160382,-10,30,-14,0,-6,-2,2,0,4
12.182142,-32,-48,5,-3,3,-2,0,-4,4
12.182157,0,-50,-9,-8,-2,-2,-11,1,4
12.182988,-34,-72,24,-4,8,2,1,-6,4
12.182992,-9,19,-11,3,1,0,1,9,4
12.196616,-52,79,-10,4,-1,-1,-3,-3,4
12.196635,-57,20,0,-2,-2,-4,-5,-2,4
12.204769,26,-35,-1,1,-5,1,6,-3,4
12.204792,-23,-89,-23,-10,-7,-3,-8,-12,4
12.220171,34,36,11,5,3,-1,2,7,4
12.220180,-32,26,-5,-10,-4,-4,-2,-17,4
12.227822,59,-38,-9,2,-3,-1,-3,-2,4
12.227852,-24,37,-27,-10,-7,0,2,4,4
12.242539,79,5,16,4,4,1,2,3,4
12.242567,-20,-29,27,4,3,2,5,8,4
12.244383,21,92,16,6,5,-2,-4,14,4
12.244394,-2,-59,7,-3,-1,1,2,1,4
12.256959,15,127,-28,8,1,0,0,7,4
12.257031,25,11,-35,-18,-9,-1,-1,6,4
12.264438,21,-20,38,0,-2,-1,3,7,4
12.264457,41,-19,18,14,10,1,1,4,4
12.280458,-101,-64,-38,-1,-9,-5,-3,0,4
12.280489,25,-6,57,0,8,1,1,22,4
12.282088,59,22,-7,1,-2,0,2,-5,4
12.282092,-77,-89,-12,-10,-5,-3,-2,4,4
12.302478,6,20,41,4,-3,1,-3,3,4
12.304081,-1,-49,-19,3,-2,1,2,-6,4
12.304088,-4,21,32,-1,0,-2,-4,-8,4
12.304090,-3,8,10,-6,3,-2,-4,5,4
12.316874,21,-43,13,-1,-3,0,1,-4,4
12.317057,-10,10,-44,1,-1,-1,-2,2,4
12.325174,-20,69,12,-1,-3,-2,-3,6,4
12.325213,28,76,25,2,-5,-1,0,-14,4
12.341067,22,-18,9,0,7,-1,0,16,4
12.341072,2,124,18,6,-1,-1,-6,-24,4
12.341074,-33,-89,-36,-1,-2,2,4,6,4
12.341076,-47,58,10,-5,-6,-1,-10,-18,4
12.362077,7,56,-25,-19,-7,-5,-1,-2,4
12.362093,20,48,27,10,5,2,1,3,4
12.363196,-8,-36,-17,-3,1,1,3,6,4
12.363200,-32,72,13,-4,-2,-1,-1,-2,4
12.376673,50,22,3,12,3,4,4,2,4
12.376688,-42,-39,-24,-2,-1,0,1,15,4
12.384950,51,14,0,1,-4,-3,-3,-11,4
12.384966,-8,9,10,0,-5,0,1,7,4
12.400225,5,9,10,1,18,-2,0,-10,4
12.400265,16,21,-9,11,2,-1,4,-5,4
12.402495,31,-41,26,-12,-4,-2,-7,-3,4
12.402516,-19,-25,-26,9,5,0,1,6,4
12.422171,-63,38,11,6,-7,-4,-6,-10,4
12.422192,-19,-65,-13,-20,-12,-3,-4,-13,4
12.422884,-62,-28,-1,4,7,2,3,18,4
12.422897,6,-84,-10,4,1,-2,-1,14,4
12.436941,-4,-64,-31,-1,-4,-1,-5,-5,4
12.436978,-42,-82,16,3,5,2,3,-5,4
12.444662,-43,50,13,4,-5,-2,2,-6,4
12.445784,-36,-60,-34,-15,-4,-2,-7,5,4
12.459612,72,27,52,-8,1,3,4,7,4
12.459629,46,-17,-7,0,-5,-4,-3,-1,4
12.460416,-16,16,-34,-4,-1,-1,-1,-10,4
12.460426,-13,67,5,4,4,-1,-3,-4,4
12.483362,-3,25,18,-1,-4,2,0,-3,4
12.483371,-42,50,29,-5,-4,-4,-7,-14,4
12.483375,-8,-42,-14,2,-1,0,-3,-15,4
12.483379,-18,-46,3,1,6,0,2,-8,4
12.505388,-13,-87,-37,-6,-11,-3,-4,0,4
12.505404,45,48,42,14,7,1,4,1,4
12.507929,-54,29,-38,-6,-4,-4,-3,-8,4
12.507934,-3,61,14,-7,-5,-2,-5,-2,4
12.519854,-8,-37,-15,-4,-1,-2,0,-5,4
12.519879,-24,93,-9,-15,-2,-5,-3,17,4
12.522304,8,7,0,-1,-2,-1,-3,-8,4
12.522309,78,-37,-11,0,1,0,6,2,4
12.542707,-4,13,-2,-2,-5,-2,-1,1,4
12.542735,-6,-36,3,11,1,1,0,-2,4
12.544750,102,101,26,2,-2,2,4,0,4
12.544756,10,76,23,2,0,-1,-1,6,4
12.565718,5,-38,-1,2,1,-3,-6,-6,4
12.565806,-14,-101,-30,-11,4,2,-2,-10,4
12.566932,-33,73,15,4,-3,-2,0,-3,4
12.566936,25,-62,20,3,2,-1,0,-7,4
12.579615,-8,16,-11,0,-3,-1,0,-3,4
12.579687,6,-79,-7,-9,-4,1,1,7,4
12.580638,-34,-21,14,3,7,0,0,0,4
12.580661,-17,-14,-21,-6,-12,-4,-6,-6,4
12.602391,-23,-7,3,-4,-2,0,6,33,4
12.602417,-34,-19,8,-1,0,-5,-6,-47,4
12.603908,29,-23,0,6,1,-4,-6,-2,4
12.603913,-18,-71,-5,-3,3,0,3,-8,4
12.626163,-5,37,-10,-2,-5,-1,-2,-13,4
12.626191,72,7,-24,1,-1,-1,1,3,4
12.626872,-49,-5,52,-2,-3,-1,1,4,4
12.626883,71,-23,-33,-1,5,0,-1,-14,4
12.639703,-4,-54,0,0,-1,2,-1,-6,4
12.639757,17,26,-36,-4,-3,0,4,8,4
12.640390,-39,6,-2,-14,-7,-3,-2,9,4
12.640406,37,18,-17,12,1,-1,-1,5,4
12.662468,37,104,60,6,3,2,0,-5,4
12.662491,-90,-33,13,3,1,0,0,9,4
12.664472,46,16,-42,0,-2,0,3,1,4
12.664476,-10,19,-23,-3,-1,-3,-2,-12,4
12.686362,-22,-1,-29,-2,-5,-4,-5,7,4
12.686369,18,-53,-28,-7,3,-2,-3,-4,4
12.686370,-20,-66,-5,2,3,4,-1,6,4
12.686372,35,52,31,16,5,2,8,18,4
12.701526,-72,-30,-21,2,-4,-3,-8,-7,4
12.701544,22,46,-6,-2,0,1,0,-1,4
12.701546,-24,-84,1,-10,-6,-1,1,17,4
12.701548,-1,-8,-10,-1,0,-1,-3,-1,4
12.722238,24,-11,40,14,7,3,0,-8,4
12.722253,-71,-57,0,-5,-6,-1,4,5,4
12.723132,62,29,-13,7,2,-1,-5,-18,4
12.723137,-15,-51,-3,-8,-3,-1,-3,-8,4
12.747545,-18,6,-38,-5,-2,-4,-7,4,4
12.747549,64,41,11,8,2,-1,-5,-12,4
12.747551,15,86,43,10,2,0,4,14,4
12.747553,-67,54,6,-3,-1,-2,-6,26,4
12.759873,31,-67,-26,-15,-9,-4,-1,-22,4
12.759896,71,11,10,8,1,-1,-3,7,4
12.761088,12,-20,-31,-1,19,2,-1,7,4
12.761093,-70,-63,31,0,-8,-3,-2,-6,4
12.782539,60,19,-3,-1,9,1,4,1,4
12.782562,17,44,12,3,-7,1,0,4,4
12.784266,40,1,-12,-23,-11,-4,-6,-10,4
12.784274,-26,-17,1,0,1,0,-2,-4,4
12.805618,-11,-6,12,2,3,-2,2,-5,4
12.805639,8,-18,0,-1,2,0,3,7,4
12.808627,12,-46,3,9,6,2,-4,-22,4
12.808632,11,-65,-8,-8,-6,0,2,3,4
12.819884,27,62,12,-13,0,-5,-6,8,4
12.819909,-51,75,15,-7,-2,1,-3,13,4
12.821641,-33,44,0,-4,-4,-2,1,1,4
12.821649,60,-10,-39,-12,-5,-1,-5,-11,4
12.842173,47,50,11,14,-5,1,0,11,4
12.842192,19,30,-19,-9,2,-2,-3,-12,4
12.843027,-33,64,19,9,-2,-3,-2,-6,4
12.843041,33,-109,-22,-11,-3,-1,3,2,4
12.865577,-19,39,-16,-5,-1,-1,0,-2,4
12.865592,-34,-87,5,-1,0,0,-1,21,4
12.867645,37,-15,10,13,1,0,-1,-11,4
12.867650,1,38,-6,-6,-2,-1,-3,2,4
12.879843,-4,26,13,4,0,1,-3,-1,4
12.879864,-26,-17,-30,1,-9,-2,2,-6,4
12.881462,25,17,-49,-15,1,-3,-1,0,4
12.881467,20,34,-4,12,10,-1,2,0,4
12.903473,-11,-53,35,2,1,3,2,-5,4
12.903479,0,38,-4,6,1,-3,0,-1,4
12.903481,-36,-35,2,-5,-10,-3,3,4,4
12.903483,-5,25,38,1,-3,-4,-4,-5,4
12.925985,-51,-52,-28,-4,-1,-1,3,6,4
12.926013,77,20,24,-7,-3,0,3,5,4
12.928617,-51,-70,-14,-13,-10,-3,-5,-12,4
12.928623,-8,86,66,9,8,-2,-5,5,4
12.939893,-62,-28,-5,0,5,-4,-6,-15,4
12.939915,10,-12,20,-2,2,1,1,-3,4
12.941731,64,-16,-7,-3,-4,-1,3,-3,4
12.941737,-54,-15,1,-4,-7,-2,3,-14,4
12.962904,5,66,-3,3,-4,-3,-1,13,4
12.962943,-1,44,-11,-5,2,0,-1,-13,4
12.965148,24,-39,-19,9,11,0,1,10,4
12.965153,-48,127,26,-3,-4,0,1,-4,4
12.985458,-3,45,-21,-13,-7,-3,1,5,4
12.985484,-60,-39,-10,8,-2,-4,-6,-10,4
12.987161,13,-89,4,-1,0,0,3,2,4
12.987167,-59,17,-22,-2,0,0,1,5,4
13.000054,26,29,-6,-4,-4,-4,-7,-13,4
13.000078,-10,23,-6,-3,0,-1,-4,-7,4
13.000689,-22,-31,1,-8,-1,0,-2,3,4
13.000717,45,-66,-10,1,-7,0,-1,5,4
13.022502,-21,-99,25,-1,3,-3,-5,-3,4
13.022526,34,21,14,10,12,0,2,6,4
13.024155,1,21,-3,-2,1,0,-1,5,4
13.024161,-20,-40,-24,-7,-4,1,-1,-12,4
13.045307,-12,-51,-3,-10,-6,-1,-2,-3,4
13.045343,-22,58,5,-11,-9,-4,1,23,4
13.046538,45,-32,19,6,7,-2,-2,-9,4
13.046559,73,-26,-32,6,0,-1,3,5,4
13.060944,12,-37,-12,-7,1,0,1,-5,4
13.061042,1,-62,-38,3,2,-3,-5,-15,4
13.061619,22,54,40,3,0,1,1,12,4
13.061653,-2,30,6,-1,-2,0,-1,-1,4
13.082171,-38,-97,-28,-12,-5,-4,0,-12,4
13.083427,93,127,-24,9,0,3,10,4,4
13.083431,-71,-65,-50,-18,-8,-4,-6,0,4
13.083433,-9,-23,33,10,8,1,0,-6,4
13.105370,-5,-17,-9,-4,-4,-1,-2,2,4
13.105388,-15,-34,-10,4,-1,-3,-10,-21,4
13.106013,-12,47,1,6,-3,1,2,2,4
13.106045,15,75,-16,-4,4,0,3,4,4
13.120001,25,-58,5,-8,-6,-2,-4,-14,4
13.120010,-28,-57,-25,2,1,-1,4,25,4
13.127248,-37,-64,0,4,2,1,-1,-8,4
13.127271,-10,39,-7,-11,-7,-3,-7,2,4
13.142838,29,69,56,7,3,1,6,4,4
13.142865,-21,-68,6,-3,-5,-3,-3,-9,4
13.145055,-20,-61,8,2,-1,2,2,-5,4
13.145059,29,-72,-22,-3,1,-2,1,4,4
13.166005,-39,38,-16,4,1,-1,-3,-6,4
13.166015,-57,-47,4,-11,-5,-1,-4,-4,4
13.166019,27,71,31,1,1,-2,-1,1,4
13.166022,-57,12,2,-1,-3,-3,-2,-14,4
13.179381,15,51,0,4,-3,-1,-1,5,4
13.181480,2,-54,-23,-3,3,0,3,3,4
13.187194,28,55,2,13,4,-2,4,16,4
13.187218,-74,-11,24,1,-1,2,3,4,4
13.202315,50,30,-6,-4,0,-3,1,0,4
13.202340,17,14,18,-3,1,-1,-3,-8,4
13.204763,14,-50,-18,-9,-8,-6,-5,-16,4
13.204771,17,1,-1,-2,-1,-2,-4,-1,4
13.225554,-39,-60,-6,2,-3,4,0,3,4
13.225576,11,63,40,1,0,0,1,12,4
13.227125,-15,-34,-5,3,1,0,1,-5,4
13.227130,5,19,10,-2,-3,0,-5,-4,4
13.239039,9,-39,36,0,2,1,0,-2,4
13.240351,-21,-14,-44,-2,-2,-1,-2,-8,4
13.247489,12,127,13,-12,-7,-1,-6,4,4
13.247517,-9,-8,-44,-13,3,-1,1,5,4
13.263196,-12,14,12,19,6,-1,2,1,4
13.263225,-24,2,3,-4,-7,1,-1,-6,4
13.264686,22,9,-8,-5,9,0,2,4,4
13.264690,13,26,16,1,-5,1,3,20,4
13.285493,-11,87,6,2,-1,-2,-2,6,4
13.285516,37,4,20,1,-3,0,-1,-4,4
13.286975,-32,-37,-9,-2,-5,1,1,8,4
13.286982,28,20,3,0,0,-3,-3,-8,4
13.307868,3,-67,-45,-8,-8,-3,-1,-4,4
13.307886,-17,23,29,3,-2,0,-3,5,4
13.308673,19,-4,9,4,0,1,3,2,4
13.308692,-5,-67,-5,-6,-4,-3,-1,-15,4
13.322288,-40,62,-11,1,-1,0,1,4,4
13.322304,44,36,-6,-4,0,-2,-2,-12,4
13.322927,7,-60,8,-3,2,-4,-7,-11,4
13.322945,30,36,24,8,3,2,3,3,4
13.345961,-50,-17,-33,-12,-3,-2,-6,-8,4
13.345993,1,93,33,5,-1,2,4,10,4
13.347687,2,-36,-50,-12,-6,-4,-7,-8,4
13.347691,33,95,30,11,5,2,5,16,4
13.368827,-3,24,-20,-8,-1,-5,-4,-5,4
13.368834,-43,-33,-7,-5,-2,-2,-3,6,4
13.368836,-15,-19,5,-4,-10,-2,1,-4,4
13.368838,34,-33,-34,-8,6,-2,-2,-15,4
13.384015,42,66,72,13,4,0,-1,4,4
13.384021,-11,-29,-21,-9,-1,-2,-5,-2,4
13.384023,-27,41,-33,-7,-8,-2,-2,-16,4
13.384025,-39,-121,9,3,0,2,-1,-2,4
13.405746,8,-30,25,-2,-1,1,2,2,4
13.405775,-6,13,24,12,3,1,2,4,4
13.408504,4,63,30,1,-11,2,-1,2,4
13.408510,56,9,-4,-8,14,-4,-7,-7,4
13.419287,3,-58,-26,5,7,1,-1,4,4
13.419310,16,-43,-5,-1,-1,-2,0,-13,4
13.427815,-12,-58,3,-4,-2,-1,-1,-1,4
13.427841,15,41,33,5,-8,-2,-3,-5,4
13.442788,-22,-13,-30,-10,-6,-2,-4,-18,4
13.442817,16,8,4,6,4,-1,-1,2,4
13.444653,4,78,32,4,2,1,2,2,4
13.444657,-43,15,-3,-1,-8,-5,-4,-24,4
13.465778,-38,-68,-18,-11,-4,-2,-7,-11,4
13.465794,49,45,7,-2,-1,-2,3,-1,4
13.467159,-3,-63,-15,0,2,-3,-5,4,4
13.467165,110,-14,10,10,2,3,9,2,4
13.488289,53,-94,-36,-4,-3,0,0,5,4
13.488306,11,5,6,-7,-3,-4,-3,-3,4
13.490273,65,84,17,7,3,2,2,-3,4
13.490282,-18,-69,-37,-4,-7,-3,0,6,4
13.502610,-8,25,26,2,12,1,2,11,4
13.504192,-40,-121,-46,-6,-3,-2,-2,-8,4
13.504197,-34,46,18,2,5,-2,-1,8,4
13.504200,15,-9,23,-4,-7,4,0,1,4
13.525416,9,113,21,2,-4,-2,-2,4,4
13.525442,-20,76,-10,-7,-3,-1,-1,1,4
13.526350,9,-83,-40,-9,-1,0,2,10,4
13.526506,-80,14,13,-3,-2,-4,-5,-11,4
13.547997,63,46,40,-4,-9,1,3,6,4
13.548013,12,-50,-3,-7,5,-2,-3,-14,4
13.549118,22,-40,34,-1,-3,-5,-5,-5,4
13.549123,1,7,-21,-11,-5,-3,-5,10,4
13.562254,64,-61,-2,2,-6,-2,1,-6,4
13.562317,-16,53,31,7,4,-1,-4,6,4
13.564612,-55,2,-23,-9,-3,-1,-2,-6,4
13.564616,28,24,-3,5,2,0,1,5,4
13.587052,-73,-15,-30,-6,-9,-4,-7,-19,4
13.587059,19,-1,-1,-5,4,5,5,23,4
13.587061,-31,97,37,18,6,1,-2,1,4
13.587063,21,-41,4,2,1,3,3,-8,4
13.615914,-90,35,-13,9,-1,0,-4,1,4
13.619172,54,-52,-13,-11,-6,-4,-5,-3,4
13.619186,0,-43,30,0,2,0,2,-2,4
13.619188,11,64,-23,16,2,-1,2,0,4
13.622233,-63,-12,-25,-10,0,0,1,0,4
13.622248,-47,-45,-9,-2,-5,-1,-3,-5,4
13.622831,20,-50,-20,-5,-3,0,1,-4,4
13.622844,-40,-50,-46,1,-2,-3,-4,-3,4
13.645248,37,3,27,-5,4,1,3,4,4
13.646891,23,91,17,8,2,-1,1,-1,4
13.646894,-23,-26,-39,-6,-11,-1,-1,-2,4
13.646896,29,-61,27,-7,8,-2,-2,-1,4
13.667778,98,90,14,14,6,-4,0,2,4
13.667793,-29,-78,16,1,-2,0,-1,0,4
13.668754,9,-25,-42,-2,-7,-2,0,0,4
13.668779,27,50,-31,3,4,0,1,5,4
13.682072,-69,-96,-16,-4,1,1,-4,1,4
13.682088,57,66,7,-14,-8,-4,-3,-4,4
13.682720,43,6,-19,4,0,-1,-5,-7,4
13.682728,-32,33,16,-4,-5,0,-3,-2,4
13.705362,109,37,-32,3,0,1,6,6,4
13.705381,-74,-12,-11,6,1,-3,-5,-18,4
13.706660,-17,69,18,-9,-1,1,2,11,4
13.706666,-75,-4,-7,1,-2,-3,-3,-11,4
13.727853,19,39,-4,-3,1,0,3,2,4
13.727889,-16,-37,-16,3,-1,-2,2,0,4
13.728530,8,-18,16,-2,2,-1,2,6,4
13.728562,-18,88,-10,-9,-6,-3,-7,-3,4
13.742435,48,-116,3,4,6,2,5,6,4
13.742451,-86,24,17,5,-1,0,-3,-1,4
13.742916,28,-27,-1,1,0,-2,3,2,4
13.742997,-47,-83,-31,-7,-2,-3,-4,-3,4
13.765460,-64,-11,-33,-11,-7,-2,-6,-12,4
13.765476,36,-86,-26,-6,-1,3,2,14,4
13.766646,-44,120,58,13,0,1,-2,-4,4
13.766654,-5,16,13,-3,-2,-4,-3,6,4
13.787830,14,5,12,0,1,-1,1,-2,4
13.787842,14,53,16,9,1,1,1,-6,4
13.788563,-31,-24,-35,-6,1,-2,-5,-4,4
13.788598,74,49,-6,-1,-8,-2,1,-3,4
13.803928,12,-68,10,-4,0,-2,-4,9,4
13.803936,56,-23,31,14,4,1,2,-26,4
13.803938,21,45,-62,-14,-7,-6,-9,-5,4
13.803940,-37,-128,60,-8,-3,-1,0,-1,4
13.825584,59,95,20,7,-1,1,1,0,4
13.825606,-30,63,-9,-9,-5,1,1,-2,4
13.827256,25,-39,13,10,9,3,4,6,4
13.827261,-10,-36,4,5,5,4,0,4,4
13.848205,-42,14,3,-6,-5,-4,-7,-16,4
13.848233,-5,-16,-15,-11,-5,-4,-2,11,4
13.851288,-22,-18,2,0,-2,-2,0,-12,4
13.851301,22,94,3,6,-1,-1,0,7,4
13.862114,-111,-128,-4,-1,0,-2,-3,-9,4
13.863344,45,91,-19,-6,-15,-5,-6,-6,4
13.863355,95,89,-6,-2,22,-1,-1,13,4
13.863359,-23,-77,42,2,-1,0,-1,-8,4
13.892997,26,125,7,8,-1,-1,2,13,4
13.894097,50,17,25,10,-1,1,3,8,4
13.894103,-20,-43,7,-8,-4,-1,-3,-5,4
13.894105,62,31,-7,-2,-2,-1,-1,-1,4
13.908080,-81,-77,-42,-7,-6,-5,-3,-3,4
13.908096,-28,-42,-22,-10,-2,-2,-1,6,4
13.910247,-81,-97,37,11,-1,3,5,3,4
13.910259,-5,8,-56,-10,-3,-1,0,7,4
13.922897,-9,-80,22,-6,-5,-2,-7,-18,4
13.922926,-74,-71,-33,-4,3,0,-3,6,4
13.925626,19,-42,-37,-8,-6,-3,-1,-2,4
13.925631,-2,-55,-21,-6,2,2,5,12,4
13.945423,45,28,-39,10,0,1,2,5,4
13.945458,-1,-124,19,0,7,0,1,-2,4
13.945967,-12,-64,13,3,-8,-2,-3,-5,4
13.945999,61,97,26,6,2,-2,-1,-6,4
13.968258,-18,-85,-20,-14,-2,-3,-6,-18,4
13.968287,80,12,-3,5,3,2,5,-3,4
13.970828,-100,75,23,-13,-2,-3,-3,9,4
13.970837,7,1,-6,2,-6,-2,-3,-8,4
13.982338,80,16,21,8,2,1,4,7,4
13.982354,-17,89,-14,-2,6,-1,-3,-11,4
13.984355,53,33,-49,-12,-12,-5,-2,-13,4
13.984360,-20,5,4,-5,0,-1,0,5,4
14.005718,-2,110,50,3,2,2,0,2,4
14.005729,-42,-68,-16,-8,-7,-3,-1,0,4
14.006323,-5,-70,-60,2,1,2,3,-1,4
14.006339,44,-1,27,-5,-4,-3,-1,-6,4
14.027842,-30,15,-30,-9,0,-1,0,0,4
14.027857,-14,-61,-29,12,5,1,4,19,4
14.030433,-29,36,31,1,1,-2,-9,-22,4
14.030453,-123,-128,-51,6,-1,0,-4,-6,4
14.041887,18,-11,-41,-16,-8,-2,0,-5,4
14.041915,37,-12,2,-3,-5,-1,-6,-11,4
14.052925,-21,-69,4,8,5,1,1,6,4
14.052934,15,-36,-46,-13,-5,-6,-5,-7,4
14.067465,-90,-16,13,-1,-5,0,1,1,4
14.067535,90,33,-3,-11,0,-7,-8,-12,4
14.067540,10,-5,0,9,2,-1,0,0,4
14.067544,-40,72,34,-16,-5,-2,-5,-2,4
14.088000,41,103,3,0,3,-1,5,8,4
14.088019,-23,22,53,10,-2,1,0,-5,4
14.089620,52,50,17,2,1,0,2,7,4
14.089631,2,-41,-32,-3,-1,0,2,-1,4
14.101617,5,40,33,8,1,1,-6,-5,4
14.101637,-90,13,-32,-1,-1,0,-1,1,4
14.109928,39,-72,-40,-6,-2,-1,-2,-6,4
14.109949,-58,50,11,-2,0,2,2,7,4
14.125437,49,-5,0,16,3,1,4,-5,4
14.125453,10,-64,-2,-4,-2,0,-1,7,4
14.127279,-81,116,27,-8,0,0,-1,-12,4
14.127284,33,10,11,12,1,-2,-1,18,4
14.147869,39,59,-33,-10,-2,-2,4,-3,4
14.147996,-37,16,-24,-4,-1,-2,-5,3,4
14.148835,19,-23,20,3,-4,0,2,9,4
14.148879,36,-18,17,-6,1,-2,-5,-14,4
14.161404,-25,-25,59,14,8,3,5,14,4
14.161418,-63,-67,-28,-3,3,-2,2,-13,4
14.170150,59,57,7,-3,-2,0,1,0,4
14.172370,-32,-70,-17,1,-2,-1,-1,-1,4
14.185708,18,-93,-15,3,0,1,0,-1,4
14.185760,-37,-21,-30,-10,-6,-3,-2,-1,4
14.187787,-2,-2,-8,0,-4,0,-3,-5,4
14.187795,33,11,35,6,2,-2,-2,-5,4
14.207814,-3,15,16,-1,0,-1,-2,5,4
14.207831,-59,-17,4,-1,-3,-1,1,-5,4
14.208477,56,53,-11,1,-2,-2,1,0,4
14.208511,44,-56,13,0,1,3,3,-1,4
14.221849,0,-28,-27,-10,-7,-4,-2,-4,4
14.221857,95,120,101,13,7,0,1,7,4
14.229661,-30,-105,11,-3,-3,0,2,5,4
14.229677,-23,127,53,10,-6,-2,-10,-9,4
14.245224,4,-47,-16,-14,2,-3,-9,-7,4
14.245239,39,127,26,3,-2,1,-2,2,4
14.245924,-13,-84,23,5,3,2,0,2,4
14.245960,5,-27,-43,-4,-2,-1,5,6,4
14.268265,-26,34,40,2,-3,1,3,41,4
14.268270,3,4,-23,-7,-6,-3,-4,2,4
14.268703,26,42,-6,-1,1,0,0,-4,4
14.268719,-22,15,-12,-4,-6,-2,-2,-4,4
14.282036,41,55,2,4,3,0,1,-7,4
14.282075,-16,-106,-5,-5,3,-2,-2,-3,4
14.289845,22,40,9,2,-2,-1,2,5,4
14.289866,16,-57,-5,3,6,1,3,-4,4
14.305423,9,-38,45,-1,-2,0,-3,-1,4
14.305439,-13,-15,-13,2,-3,-2,0,-8,4
14.305957,-78,3,-24,-7,-5,-4,-4,-11,4
14.305968,-18,11,18,1,-2,-3,-4,-7,4
14.327774,28,36,-8,4,-1,-1,-6,-11,4
14.327789,14,-23,-32,-3,-3,1,-2,5,4
14.328644,14,60,35,10,-3,0,-1,0,4
14.328648,-91,-53,25,2,4,0,0,-2,4
14.341981,-43,-46,-36,-5,-3,-5,-8,-7,4
14.342009,-29,53,18,1,-5,-2,1,-1,4
14.350244,19,-32,55,6,11,1,0,0,4
14.350273,17,-6,-32,0,-2,-1,-2,-7,4
14.365315,-23,22,-5,-2,-4,0,1,-3,4
14.365354,47,-20,18,-6,-3,-1,0,5,4
14.366019,-6,25,-4,-1,-5,-5,-4,-14,4
14.366043,31,-8,-25,2,3,1,5,9,4
14.388069,-77,-109,-32,-4,1,1,1,-3,4
14.388091,43,-28,-4,14,3,3,7,-3,4
14.390762,-25,107,10,-6,0,-1,0,2,4
14.390769,16,17,-7,-10,0,-1,-5,-1,4
14.410315,-2,-6,-14,-1,0,-2,-7,-5,4
14.410324,83,-16,-2,2,2,1,6,7,4
14.411125,-19,-65,-28,-5,-6,-3,-3,-7,4
14.411201,21,118,-1,3,2,-5,-2,-4,4
14.425287,-29,-35,-1,-7,-1,1,2,0,4
14.425323,-61,-81,-6,-1,1,-3,-6,-6,4
14.426104,72,-1,-15,1,-1,1,2,3,4
14.426186,-17,-7,-11,-12,-3,-2,-2,3,4
14.448576,98,57,-5,-6,-8,-1,1,-5,4
14.448599,-15,-14,19,4,7,2,-3,-2,4
14.450847,-43,-94,18,-5,-2,-3,-2,-1,4
14.450853,63,34,9,3,-1,2,5,6,4
14.470836,-35,63,2,-12,-7,-8,-8,-1,4
14.470842,-11,26,-16,-8,-3,2,0,-2,4
14.471092,-49,-65,-20,-1,-1,1,2,5,4
14.471100,-49,-37,-9,6,-2,-1,-3,-5,4
14.487554,4,-13,29,4,6,2,2,3,4
14.487561,-12,42,10,-3,-5,-3,-1,-3,4
14.487564,-80,-35,-20,-6,-1,-1,-6,-16,4
14.487566,38,-36,2,-3,0,-3,-1,1,4
14.507794,-4,58,-24,3,0,0,-1,-3,4
14.507811,4,-38,-9,-4,-7,-1,-3,-2,4
14.508623,39,-13,-18,5,5,1,0,-6,4
14.508642,58,-73,-20,-3,-2,-2,0,5,4
14.530647,36,3,38,4,0,1,0,-1,4
14.532606,-22,-5,-19,-4,-1,-3,-2,3,4
14.532615,-25,-3,6,3,-4,-3,-3,10,4
14.532617,-29,40,-3,-1,-1,0,0,-3,4
14.544476,-30,-46,-5,-5,-1,-5,-2,-5,4
14.544503,16,20,13,9,0,3,5,3,4
14.555282,-21,-64,-51,-11,0,-6,-5,1,4
14.555290,35,62,20,2,-1,0,0,-1,4
14.568070,39,-30,8,-2,-1,-1,1,1,4
14.568159,2,75,29,-1,-2,-1,-2,-2,4
14.569630,38,89,5,-8,-2,-1,-2,0,4
14.569647,-15,-8,-33,-3,-3,-1,-3,-3,4
14.591484,63,45,-16,-2,-4,2,2,3,4
14.591512,16,-1,-62,-10,-6,-6,-4,-2,4
14.594027,2,40,31,2,6,3,3,9,4
14.594031,-82,-115,0,1,-4,0,2,-8,4
14.604358,61,-22,-68,-3,-2,-6,-5,-5,4
14.604380,82,64,55,14,5,1,-1,-9,4
14.613917,-16,-81,-2,-6,-1,3,11,20,4
14.613922,39,127,-27,-7,-7,-7,-13,-10,4
14.628780,21,-76,24,8,0,5,6,2,4
14.628792,-68,-52,-7,-11,0,-5,-3,-8,4
14.629460,-49,-119,7,7,1,1,0,7,4
14.629529,19,16,17,-4,-1,1,3,0,4
14.650713,-23,95,-21,-2,0,-2,-3,-4,4
14.650728,29,-8,-20,-1,-2,3,0,-3,4
14.653170,20,109,13,6,-3,-2,2,1,4
14.653177,-23,-68,1,1,-2,0,0,1,4
14.664415,7,-34,4,2,-2,-2,-3,-5,4
14.664436,-38,14,-5,0,4,2,2,4,4
14.673982,21,44,-31,-12,-8,-4,-4,-4,4
14.673988,-13,-8,43,6,11,4,5,8,4
14.688831,-63,-80,12,-4,-4,-2,-4,-4,4
14.688837,-65,-75,-31,1,1,-1,2,-1,4
14.689303,79,-27,9,2,-1,-2,-5,-10,4
14.689311,-6,62,-8,-4,-3,0,1,0,4
14.710828,-1,58,28,7,4,0,-1,-1,4
14.713110,-77,-125,-30,-17,-5,0,-1,9,4
14.713115,28,120,45,6,1,-1,-1,-3,4
14.713117,-52,-58,-36,-20,-10,-7,-11,-10,4
14.725387,19,-9,4,4,-3,-1,2,6,4
14.725413,104,9,29,7,8,2,1,-4,4
14.731918,-28,-93,-29,1,3,0,0,5,4
14.731941,-12,24,13,5,2,-1,1,-2,4
14.747853,-48,50,7,-11,-7,-2,-2,4,4
14.747868,32,104,12,6,-8,-4,1,7,4
14.749276,30,43,13,8,1,1,-4,-18,4
14.749282,-14,-90,-23,-5,-1,-3,-5,-1,4
14.770498,-27,-72,-10,-6,-3,-1,-6,-6,4
14.770514,19,29,-5,-1,-1,-2,-2,4,4
14.771968,18,-61,-12,0,3,2,3,8,4
14.771983,38,-15,-3,5,-1,4,5,-2,4
14.784683,-56,-3,-22,5,5,-4,-1,-3,4
14.784743,-58,-40,24,1,-2,-2,-6,-6,4
14.791805,16,22,-15,-5,-6,-3,-5,-2,4
14.791825,19,-39,-21,6,0,1,1,3,4
14.807949,37,-42,0,-7,0,-2,2,0,4
14.807976,28,-48,-25,-1,-3,-3,0,-9,4
14.809620,-62,-65,14,0,-4,-1,-1,-3,4
14.809628,23,20,36,-5,1,-3,-1,8,4
14.830424,5,8,22,7,6,0,1,-4,4
14.830433,-7,-17,31,0,-1,-2,-2,-1,4
14.831773,-66,-63,-36,-16,-4,-1,-3,-7,4
14.831783,68,88,49,17,2,3,0,4,4
14.847450,0,-11,3,-5,-4,-3,-4,-4,4
14.847455,-27,-21,-8,-2,0,2,1,-6,4
14.851587,10,-6,-34,-8,-10,-2,1,-3,4
14.851603,56,-25,29,9,8,1,3,1,4
14.867933,-70,28,-17,-3,-4,-1,-4,0,4
14.867951,-12,34,-7,-5,-3,1,0,9,4
14.869616,44,47,71,12,6,-1,-1,-8,4
14.869622,2,-94,-17,2,-1,0,1,-4,4
14.890762,6,79,8,-8,-2,-1,-5,-4,4
14.890799,24,109,10,-8,-6,-3,-2,2,4
14.892652,46,35,12,-1,-1,-1,2,5,4
14.892657,10,-51,-34,6,-1,-1,2,-5,4
14.904243,21,-62,-10,-7,1,-1,-3,1,4
14.904263,6,76,14,10,0,1,2,4,4
14.914552,-25,39,-29,-6,5,0,-2,0,4
14.914556,-45,-34,-28,-8,-4,-2,0,-1,4
14.928079,29,59,12,9,-3,-1,1,0,4
14.928107,-17,-68,-22,-8,-1,-2,0,-2,4
14.929378,22,-66,-18,-4,-2,0,2,10,4
14.929412,37,100,59,4,-2,-3,-5,1,4
14.950411,-84,-23,-8,-1,0,1,-1,-10,4
14.950428,24,-1,5,4,1,-2,-6,-6,4
14.953120,-43,5,-30,-5,-5,-5,-4,-3,4
14.953127,-112,-31,-18,-9,-3,-1,-1,-4,4
14.964336,81,-14,5,-5,-4,0,0,1,4
14.964365,40,-45,-12,-5,-2,-4,3,-8,4
14.974203,-23,-24,-4,3,1,0,-7,-1,4
14.974208,26,34,9,-4,-1,-4,-8,-8,4
14.987863,84,57,20,9,5,2,7,5,4
14.987879,-59,-88,-44,-10,0,-3,-5,-7,4
14.989384,45,56,26,-4,-1,2,5,-4,4
14.989401,-53,15,18,4,1,0,4,10,4
15.010647,2,77,32,8,0,2,-4,-5,4
15.010675,-21,19,-4,-10,-8,0,-2,0,4
15.013091,18,-11,3,-3,0,-2,0,1,4
15.013095,-49,43,-26,5,-1,-3,-6,-17,4
17.035583,1,3,0,-2,-2,0,1,-2,0
17.036118,2,7,-1,0,-1,-1,-3,3,0
17.037952,1,-4,-1,-2,-1,-2,-2,1,0
17.037956,-1,2,2,-2,-2,-1,-2,-1,0
17.049149,-2,-2,0,0,-1,-1,-4,-1,0
17.049179,0,-9,-4,0,-2,0,1,-1,0
17.060521,3,-1,0,-2,-1,-1,-1,-4,0
17.060527,-4,-18,-3,-2,0,-1,1,-2,0
17.072751,-1,-35,-4,2,-2,-3,-2,0,0
17.072810,-3,21,0,0,-1,0,-1,-3,0
17.074386,1,-6,2,-1,0,-3,-3,-2,0
17.074401,2,20,-1,-3,-1,0,0,-2,0
17.095280,-3,4,2,2,0,0,0,-1,0
17.095301,1,-5,3,-1,-2,-3,-1,1,0
17.096858,-3,7,-9,-3,-1,-1,-2,1,0
17.096901,2,4,1,-1,1,-2,-1,-2,0
17.109142,2,-5,1,0,-2,0,-1,0,0
17.109164,-3,3,-1,-1,-1,-1,1,-1,0
17.119848,-1,10,-1,0,-1,0,0,-1,0
17.119854,-3,-26,-2,-1,-1,-1,-1,-2,0
17.132817,-2,-2,-1,-2,-2,-1,-1,0,0
17.132823,-1,13,-4,-1,-1,-2,0,-2,0
17.134574,2,-3,1,-4,-3,0,-1,-2,0
17.134615,0,9,2,-1,0,-3,-1,0,0
17.155477,2,8,5,8,3,-1,-1,0,0
17.155494,0,-9,-2,0,0,0,-3,-1,0
17.157700,-8,-1,-3,0,-1,-1,-2,-2,0
17.157709,0,9,1,-6,-4,-1,-1,-2,0
17.169144,-2,-13,-3,-6,0,0,0,-1,0
17.169167,2,-6,-4,1,-1,-1,-2,-3,0
17.179659,3,41,5,1,0,-2,0,0,0
17.179665,-8,-47,-4,-1,-1,0,-1,0,0
17.194221,-1,6,-3,-4,-1,-4,-3,-2,0
17.194227,3,10,-6,-1,-2,-1,1,-1,0
17.201597,-2,-21,-3,-1,-1,1,-2,-3,0
17.201604,0,23,5,0,0,0,0,-3,0
17.215259,-2,2,-6,-1,0,0,-1,-2,0
17.215273,1,-8,-1,-3,0,-1,-1,-2,0
17.217412,-3,6,-4,-3,0,-1,1,-4,0
17.217417,0,-7,8,4,-2,-1,0,2,0
17.239455,-1,-32,-8,-6,-1,-1,-1,-3,0
17.239462,-1,20,10,4,1,-2,0,1,0
17.239465,-5,-8,-3,1,2,0,-2,1,0
17.239468,-1,5,-2,2,0,-3,-1,-1,0
17.260729,-1,14,0,-1,-1,-1,0,0,0
17.260756,2,-5,0,-2,-2,-1,-2,0,0
17.263192,-3,-15,-9,-4,-3,-1,-1,2,0
17.263198,0,5,1,3,0,-1,-1,0,0
17.275448,-1,22,-4,-2,-1,0,-1,2,0
17.275468,-6,-24,-4,-2,0,-1,-3,0,0
17.276934,2,-9,2,-3,0,-2,-2,-1,0
17.276948,-2,4,-2,-1,2,-2,-2,0,0
17.298224,1,3,2,2,0,0,0,0,0
17.298252,-2,7,-2,-1,0,-1,-1,0,0
17.300009,0,2,-3,-2,-2,-1,-1,-2,0
17.300013,2,0,-3,-3,-3,-2,-1,0,0
17.312945,-1,4,2,1,0,-1,-2,-1,0
17.312966,-5,-3,-1,-3,-1,0,-2,0,0
17.315232,-4,-9,3,1,0,-1,0,-3,0
17.315236,1,7,-2,0,-1,0,-1,-2,0
17.335851,-3,-10,-2,-2,1,0,-3,0,0
17.335863,-2,-3,-1,0,-1,-2,0,0,0
17.336978,1,0,1,2,0,0,0,1,0
17.336999,1,-1,-4,-1,-1,-2,-1,-3,0
17.358392,-1,-7,-1,-6,-3,-1,1,-2,0
17.358408,-1,-5,-2,1,1,0,-1,-1,0
17.365358,-4,7,-4,3,-1,-2,1,0,0
17.366291,1,-7,4,-1,0,-1,-2,3,0
17.372144,-1,23,-1,-2,-2,0,-3,1,0
17.373172,-2,-46,-3,0,-1,-2,-2,-3,0
17.378927,2,0,-1,-3,0,-2,-1,1,0
17.378943,-1,7,-5,2,-1,0,-1,0,0
17.395779,-1,6,6,-2,-3,-2,-2,1,0
17.395783,-1,12,-2,-4,-2,-1,-1,0,0
17.396939,0,-2,-2,-1,0,-1,-1,0,0
17.396949,-4,-3,-7,-4,-2,-1,-2,-1,0
17.417980,-1,-5,-3,1,0,-1,-1,1,0
17.418004,1,10,-4,0,0,-2,-1,-4,0
17.419750,1,-12,5,2,-1,-1,-1,-1,0
17.419760,-4,4,1,1,1,0,-3,-4,0
17.432663,-1,-10,1,-3,-2,0,0,0,0
17.435543,-1,6,-3,3,1,-2,-1,-3,0
17.439110,1,8,-3,-1,-2,-1,-2,0,0
17.439138,-4,-6,-2,-3,-2,-1,-1,0,0
17.455845,0,20,2,-2,-2,-2,-1,-3,0
17.457635,-5,-35,0,-1,-2,0,-1,0,0
17.457640,2,-5,1,1,0,0,0,-2,0
17.457642,3,3,-2,0,-2,-1,0,-5,0
17.478127,-3,-5,-9,-3,-2,-2,-2,-1,0
17.480283,-2,17,3,-1,-2,0,0,0,0
17.480290,-2,3,-4,-1,-3,-1,0,-2,0
17.480292,1,6,2,-3,-2,0,-2,-1,0
17.492719,-2,-6,4,4,0,-2,-1,-3,0
17.492781,1,7,-4,-1,1,1,-1,-2,0
17.499314,-2,-12,-1,-2,0,-2,-4,0,0
17.499336,0,5,-1,2,0,0,0,0,0
17.515705,0,4,0,-6,1,-1,1,-1,0
17.515731,-1,-9,-6,4,1,0,-1,-1,0
17.518824,0,-13,0,-2,-1,-1,-1,-1,0
17.518843,1,10,-2,-3,-2,-3,-2,1,0
17.538097,-2,-26,-3,4,0,0,-1,-4,0
17.538230,-2,18,3,-2,-1,-2,-1,1,0
17.539333,-3,9,-1,-5,-1,-2,-1,-3,0
17.539349,3,0,-4,3,0,0,-1,-3,0
17.552220,0,-7,-1,0,-2,0,-2,2,0
17.552236,-1,1,-3,-5,-4,-2,-1,-1,0
17.559074,-3,-4,8,0,0,0,0,-1,0
17.560151,0,-2,0,1,-1,-1,-1,-1,0
17.575729,4,19,-1,0,0,-1,0,-3,0
17.575925,-2,-24,-1,-3,-2,-2,-1,1,0
17.578407,-2,-2,-8,-3,-2,0,0,1,0
17.578413,-4,-6,-2,-3,-1,-1,-1,-2,0
17.598558,-2,-2,-1,1,0,0,0,-2,0
17.598565,0,8,2,-1,-2,0,-1,-1,0
17.599272,0,3,-1,-4,0,-2,-3,1,0
17.599280,-1,-6,-1,2,-1,-2,0,-1,0
17.614533,1,-6,1,-2,-1,-2,-1,-1,0
17.614537,0,8,0,-2,-2,-1,-1,-2,0
17.619357,2,2,1,2,-2,-1,1,-2,0
17.619374,-5,-8,-5,-3,0,-1,-2,-2,0
17.636105,-1,-5,-2,2,-1,0,-2,0,0
17.636128,0,4,-1,-3,0,-1,-2,0,0
17.637885,0,1,-6,-1,-1,0,-1,0,0
17.637891,-1,5,1,-4,-2,-1,-2,0,0
17.657782,-2,-18,-1,0,-1,-1,0,0,0
17.657800,0,4,2,-2,1,0,-1,1,0
17.659809,1,0,-2,3,0,3,-1,-1,0
17.659818,1,0,1,-2,-1,0,0,0,0
17.672405,-3,6,3,1,0,-1,0,0,0
17.672426,1,5,1,-7,-1,-2,-2,-1,0
17.679640,-4,-6,-2,6,-2,-2,-1,0,0
17.679669,-2,-2,-6,-4,-1,0,0,-1,0
17.695483,-3,-3,1,4,0,-2,0,-2,0
17.695508,1,-1,0,-1,-1,-1,0,-1,0
17.697660,-1,-1,-8,-6,-1,0,-1,-2,0
17.697665,-3,11,4,3,0,-1,0,-2,0
17.717997,2,-19,-4,-4,-1,-1,0,2,0
17.720704,-2,8,2,2,-1,0,-2,0,0
17.720711,2,-1,2,-2,-1,-1,-2,1,0
17.720713,2,-5,-3,-1,-1,0,-2,-1,0
17.731836,-2,14,-4,-5,0,-2,-1,-3,0
17.731863,0,-17,-2,0,0,-2,-1,-2,0
17.742328,-2,2,-1,-3,0,-2,0,-4,0
17.742334,1,-4,3,-2,-1,-1,-2,3,0
17.755323,0,4,1,-1,-3,0,-2,0,0
17.755352,-1,-1,-6,-6,-4,-1,-1,-3,0
17.756813,-1,5,3,-3,2,1,-2,2,0
17.756828,-2,-5,1,11,-2,-1,0,-3,0
17.778172,-1,-3,-2,-3,-2,-1,1,-2,0
17.778195,-2,3,-4,2,-1,-1,-2,-2,0
17.780189,-2,-10,-8,-3,-1,-1,0,-1,0
17.780193,2,3,2,-4,-1,-1,0,1,0
17.791790,0,-2,-4,-1,-2,-1,-2,1,0
17.791818,-1,2,1,-1,-2,0,-2,-3,0
17.803072,-1,-1,-3,1,-1,-3,-2,-1,0
17.803079,0,-3,0,-3,0,-1,-1,-2,0
17.815900,-2,3,-1,-1,-2,-2,-1,-3,0
17.815932,2,1,1,-1,1,0,-2,-3,0
17.818592,-5,10,-2,1,-1,0,-2,0,0
17.818607,-2,-23,0,-3,0,-2,-1,-3,0
17.837936,1,2,-2,-1,-1,0,-2,1,0
17.837963,-4,1,-2,0,0,-3,0,-1,0
17.839405,1,4,2,0,-2,-2,0,0,0
17.839421,-1,-8,-4,-6,-2,-1,-1,1,0
17.851597,-1,4,3,4,0,-1,-2,-1,0
17.851614,0,-4,-2,0,-1,-1,-1,-2,0
17.860786,0,4,4,0,-2,-1,-1,-2,0
17.860791,-1,1,-7,-4,-1,-1,-2,-1,0
17.875773,-1,-6,4,1,-2,0,-1,-4,0
17.875800,-1,1,1,-3,-1,-1,1,0,0
17.878314,0,-14,-9,0,-2,-1,-2,-3,0
17.878320,-1,10,-1,-1,1,1,-2,-1,0
17.897930,2,-1,2,-2,-2,0,-3,0,0
17.897965,-1,0,-1,-2,0,0,0,0,0
17.899268,2,1,-4,-2,-2,0,-1,-2,0
17.899284,-2,-6,0,-6,-2,0,1,-2,0
17.914801,-2,-9,-4,4,1,-2,-1,0,0
17.914808,1,-1,2,2,0,1,0,0,0
17.922310,1,-4,1,-2,-2,-1,1,-2,0
17.922317,-1,7,-6,1,-1,-2,0,-2,0
17.935398,-2,6,-1,-3,-1,0,1,-3,0
17.935418,-5,-2,-5,-3,-3,-2,0,-3,0
17.937174,-3,-3,5,2,0,-2,-1,1,0
17.937250,1,5,2,0,-1,-1,-1,1,0
17.958494,-1,-10,-11,-4,-1,-2,-2,-1,0
17.958507,0,7,6,1,-1,-2,-1,3,0
17.959282,0,1,-1,-1,0,0,-2,0,0
17.959290,1,3,-6,-4,-2,2,-2,-3,0
17.980340,-4,-14,8,-2,0,0,0,-3,0
17.980354,0,-3,-9,4,1,1,-2,-1,0
17.981962,-4,0,1,-2,-2,-2,0,-1,0
17.981970,1,-4,3,0,-1,-2,-1,-2,0
17.995522,1,2,-9,-3,-1,-2,-1,-2,0
17.995545,0,16,5,-1,-1,-2,-1,1,0
17.997711,-3,-26,-2,0,-1,-2,-1,0,0
17.997717,-1,0,-4,-1,-2,-1,-2,0,0
18.020590,-1,3,-5,-3,-2,-1,-2,0,0
18.020603,-3,-2,1,-2,-1,0,-1,0,0
18.020605,2,6,7,2,1,-1,-1,2,0
18.020607,-4,1,-2,-3,-2,-1,-1,0,0
18.031681,0,-5,2,0,0,-1,-3,0,0
18.031702,0,-13,-10,-1,1,0,-2,1,0
18.042217,0,11,18,1,-1,-2,-3,-3,0
18.042223,-1,-1,1,0,1,-3,-2,-1,0
18.055682,-1,8,3,-3,-4,-1,0,1,0
18.055697,1,-5,-7,-1,-2,2,0,1,0
18.057446,-1,-4,-7,-4,-2,2,0,-1,0
18.057469,0,8,3,2,-2,-1,-1,-1,0
18.077793,-1,-13,-4,-5,0,-1,1,-1,0
18.077919,2,-1,3,5,0,-2,-1,0,0
18.079373,-1,2,-4,-1,0,0,-1,-1,0
18.079387,-4,1,0,-1,-2,-1,-1,-1,0
18.091586,-3,0,0,1,-2,0,-2,0,0
18.091621,0,-5,0,-2,-3,-2,-1,-3,0
18.102126,0,1,-5,-3,-1,0,-1,0,0
18.102133,-1,2,-1,1,-1,-3,-1,-2,0
18.115602,-1,-15,-2,1,-2,-1,-2,1,0
18.115618,-4,0,-4,-2,-1,0,-2,-1,0
18.116851,0,3,-3,-3,1,-2,0,1,0
18.116868,0,-8,-2,1,0,0,-2,0,0
18.138012,2,7,-6,-3,1,-1,-1,-1,0
18.140002,0,6,9,-1,-3,-1,-1,-2,0
18.140009,-1,-6,-4,-3,-3,-2,-1,1,0
18.140011,-2,-2,-2,3,0,-1,-2,0,0
18.151476,1,3,-2,1,1,-1,-2,0,0
18.151496,-1,-5,-4,-4,0,-1,-1,0,0
18.166565,-2,4,-2,-3,-1,-2,-1,-1,0
18.166578,-1,-3,1,-2,1,-1,-1,-1,0
18.176077,0,-2,3,0,-1,0,0,1,0
18.176083,-1,3,-2,-3,0,-1,0,-4,0
18.181598,-1,-8,1,5,-1,-2,-2,0,0
18.183397,2,5,3,-2,-1,0,-1,-2,0
18.197966,-4,3,-2,-1,-1,1,1,0,0
18.197985,0,-3,-2,-4,-2,-3,0,-2,0
18.201112,-3,1,-4,-5,0,0,-1,0,0
18.201121,-2,-5,-2,-2,-3,-1,1,-3,0
18.222252,1,5,2,0,0,0,1,-5,0
18.222258,-1,-2,-1,0,0,0,1,-3,0
18.222261,0,3,-3,-1,-2,-1,1,-1,0
18.222263,-3,-16,-11,-2,-1,-3,-2,0,0
18.235410,-2,17,21,0,0,-1,-1,-3,0
18.235432,-1,-1,0,-1,0,-2,-2,-2,0
18.237262,-3,-5,-1,-1,-1,0,1,-3,0
18.237268,-1,1,-2,-2,0,0,-1,-1,0
18.257884,-1,0,-7,-2,-1,-1,-1,-3,0
18.257902,0,-2,1,-2,-2,0,-3,0,0
18.259505,0,2,3,5,1,0,0,-2,0
18.259521,-1,2,-1,-7,0,1,0,0,0
18.280276,-2,-10,-3,7,-1,-2,-2,2,0
18.280292,-2,-3,4,-2,-2,0,-2,-2,0
18.281890,-1,-6,-1,-1,-3,-1,-1,-1,0
18.281974,1,6,-2,0,0,-1,-1,-2,0
18.295864,0,3,-2,-3,-2,-1,0,-1,0
18.295893,-2,-2,-3,-1,-3,-1,-2,0,0
18.297700,-1,1,-3,-1,-1,-1,-2,0,0
18.297704,-2,-5,4,-1,1,1,-1,0,0
18.317868,-2,2,-3,-3,1,-1,-1,0,0
18.317891,-2,-3,-1,0,0,-2,1,-1,0
18.319359,0,-1,-1,-3,-1,0,-2,-2,0
18.319391,-1,-6,-2,-2,-1,-2,1,-2,0
18.340390,-1,14,8,2,0,-2,0,-4,0
18.340409,-1,-14,-9,-1,0,0,-2,1,0
18.342254,0,4,3,3,2,-1,0,-2,0
18.342333,1,-3,1,1,-2,-1,2,0,0
18.354733,-2,0,-6,-4,-2,-1,-2,1,0
18.356432,1,6,3,-2,-1,0,-2,-1,0
18.361576,-1,-11,-8,1,-2,0,-2,0,0
18.361601,-1,2,1,1,-2,1,-1,-1,0
18.379549,-2,-5,-3,-5,-2,-3,0,-2,0
18.379557,-1,3,-1,0,-2,1,-1,-2,0
18.379562,-2,-6,-2,-2,-3,-3,-1,1,0
18.379566,-1,1,1,-3,-1,-1,-2,2,0
18.400739,-1,-7,-4,2,-2,1,-2,1,0
18.400768,-1,-4,-1,0,1,0,-3,-1,0
18.402899,0,2,-1,-2,-2,-1,-1,-2,0
18.402907,1,0,0,0,1,-2,0,0,0
18.414628,1,-1,5,-2,-1,0,0,0,0
18.414643,1,-2,-5,2,-1,-3,-2,-2,0
18.421820,0,11,4,-2,0,-1,-2,1,0
18.421836,-5,-4,-5,-2,-1,-1,-1,0,0
18.445465,2,-6,-3,1,-2,-2,1,-2,0
18.445480,0,-1,0,0,-1,-2,-1,-1,0
18.447671,-1,-5,-2,-3,-1,-1,-3,-2,0
18.447676,-1,14,0,-5,-1,-1,-1,-1,0
18.460236,-2,-25,3,4,-1,-1,-1,-1,0
18.460251,-2,3,-2,-1,-1,-1,1,1,0
18.461749,1,2,4,3,0,0,0,-3,0
18.461764,-2,7,5,-2,0,-1,-1,1,0
18.474608,0,0,-15,-6,-1,-2,-1,1,0
18.474626,-2,1,-1,1,-2,-1,0,1,0
18.481888,-1,-5,-2,-3,-1,-1,-2,0,0
18.481916,2,-1,1,0,-1,-2,-1,-3,0
18.497962,0,5,-3,-1,0,0,-1,-1,0
18.497977,0,-5,4,0,-1,0,-1,1,0
18.500194,-2,8,-2,-4,-2,0,0,2,0
18.500201,-1,-7,2,1,-1,-2,-2,-1,0
18.519480,-1,-3,-3,-2,-1,-2,-1,-5,0
18.519496,-2,11,2,0,2,-2,-1,3,0
18.530620,-2,-16,-3,0,-1,0,0,0,0
18.530625,3,-2,5,2,0,0,-1,2,0
18.534769,-3,-3,-3,-1,-1,0,-3,1,0
18.534796,0,0,-6,-3,0,-2,0,-1,0
18.541654,1,2,0,0,2,-1,-2,-1,0
18.541679,-1,-12,-7,0,-2,0,-1,-2,0
18.558655,1,1,-3,-2,-3,-2,-3,-2,0
18.558684,-1,1,-1,1,-2,-2,-2,-2,0
18.561214,1,-1,-1,-6,-1,-3,-1,-1,0
18.561220,0,2,-3,4,0,-1,-1,-1,0
18.587879,-2,1,4,2,-2,0,-1,1,0
18.587937,-2,-7,-4,-2,0,-1,1,-1,0
18.589402,-1,0,-1,-2,0,0,0,1,0
18.589412,0,0,-1,-1,-1,-2,-2,-2,0
18.594713,2,6,5,0,-1,-1,0,0,0
18.594728,-1,-1,-2,-3,-1,-2,-1,-2,0
18.601544,-2,-3,-8,-5,-3,-1,0,-2,0
18.601563,-1,-2,0,0,2,0,-1,2,0
18.617890,-2,-1,2,1,0,-2,-2,-1,0
18.619185,1,0,2,0,0,0,-1,-3,0
18.619480,-4,-3,-11,-7,-3,-3,-1,-1,0
18.619496,-3,-3,3,3,0,-1,1,-2,0
18.640282,1,3,-5,-3,0,-1,0,-2,0
18.640300,0,-4,4,2,-1,-1,-2,3,0
18.642186,0,3,3,2,0,0,-3,1,0
18.642194,1,-1,-1,-4,-1,-1,-2,-2,0
18.654975,-2,-3,-6,-2,-1,-1,0,-1,0
18.654991,-2,1,-1,-5,-2,-2,-1,-2,0
18.661475,-2,-1,1,3,0,-1,-1,-1,0
18.661490,-1,8,1,0,-2,-3,0,-3,0
18.677760,-3,-15,-7,-1,-2,-3,0,-2,0
18.677775,-5,-3,-7,-6,-1,-1,0,-3,0
18.679372,-4,2,11,11,0,-2,1,-4,0
18.679407,1,-4,-3,-2,-3,0,0,1,0
18.700468,-3,7,0,-1,0,0,-2,-1,0
18.700485,-1,0,0,-4,-2,0,-2,1,0
18.702747,-1,-6,-4,-3,-3,-1,-2,-3,0
18.702755,1,4,-2,-2,-4,-2,-1,1,0
18.714417,0,7,-1,-1,-2,-2,-2,0,0
18.714446,-2,-13,-3,-4,-3,-2,-2,-1,0
18.724065,1,4,8,7,3,0,-1,-2,0
18.724071,-1,-5,-2,3,-1,-1,0,-3,0
18.738100,1,1,-3,-2,-1,-2,-2,-2,0
18.738228,-1,9,7,1,-1,-2,-1,-3,0
18.739566,-1,-3,-6,-4,-2,-2,0,1,0
18.739583,-4,-2,-5,-3,-3,-2,-1,-2,0
18.760265,0,-4,3,1,0,0,-1,0,0
18.760281,-1,5,1,1,-1,-3,0,-2,0
18.761854,0,-5,2,-3,-2,-3,1,-1,0
18.761868,-2,-2,4,-2,-1,-1,-3,-2,0
18.774097,-2,-5,-8,-5,-3,-1,0,-1,0
18.774120,2,12,10,7,0,0,-1,0,0
18.783460,-3,-1,1,-2,1,1,-2,0,0
18.783465,-2,-21,-5,-3,-1,-2,-1,2,0
18.799801,-1,0,-2,-4,1,1,-1,-5,0
18.799815,-1,-6,-3,-2,-1,-1,-2,0,0
18.799820,-1,1,-4,-1,-3,0,0,1,0
18.799824,-1,5,2,-2,0,-1,-2,-2,0
18.820577,-1,2,3,0,-1,-1,-1,0,0
18.820595,0,-9,-7,-4,1,-1,-1,-2,0
18.822963,-1,3,-9,0,-2,-1,0,-2,0
18.822969,-2,0,4,-1,0,0,-1,-1,0
18.834679,0,4,5,4,0,1,0,1,0
18.834699,-1,0,-3,-1,0,1,-1,-3,0
18.845352,-1,-5,-1,-2,-1,-1,-1,1,0
18.845356,-1,-2,-4,-2,-1,-2,0,-1,0
18.860957,1,-2,-2,-5,-1,-3,-1,-3,0
18.860964,0,-4,-5,5,-1,-2,-1,1,0
18.860966,-1,4,3,-4,-3,-1,-1,-1,0
18.860968,0,-2,-8,3,1,1,1,1,0
18.888260,-1,6,1,-2,0,-1,1,-1,0
18.890421,-1,-7,3,-1,-1,-1,-1,2,0
18.890430,-2,-5,-2,-1,-1,-1,-1,0,0
18.890432,-2,5,2,-4,-1,0,-2,0,0
18.893987,-2,-7,-5,2,-1,-2,-2,2,0
18.894003,1,9,0,0,1,-1,-1,-4,0
18.904171,0,1,-3,-2,-1,-3,-1,1,0
18.904188,-3,-3,0,-2,-3,0,1,2,0
18.918267,0,2,1,1,-1,-1,1,-3,0
18.918305,-2,-4,-4,-3,-3,-1,-1,-1,0
18.920990,-1,-1,1,0,1,1,-2,-2,0
18.920997,-1,0,-1,-6,0,-1,-1,0,0
18.940377,1,-3,3,7,1,1,-4,0,0
18.940394,-2,-3,-3,-1,-2,0,-1,-1,0
18.941962,-1,-5,-3,-2,-1,-2,-1,-1,0
18.941983,0,1,-5,-1,-3,-1,-1,0,0
18.954112,-1,5,11,-3,-2,-1,-2,-2,0
18.954133,-2,-3,3,3,0,0,-1,-2,0
18.963128,-1,0,-2,-2,0,-1,-1,-2,0
18.963133,1,6,-4,-3,-1,-3,-2,-2,0
18.977777,-3,-17,-10,-2,-1,-1,0,-2,0
18.977792,0,-3,-3,-1,-1,-1,-1,0,0
18.979457,-1,10,5,-1,-1,-2,-2,-3,0
18.979544,0,-15,-4,0,1,0,-1,1,0
19.001899,-1,3,4,-3,-1,-1,0,-3,0
19.001913,-1,0,-5,0,1,-2,-3,2,0
19.001982,-1,10,-2,-2,0,0,1,0,0
19.002166,0,3,2,-3,-2,-2,-2,-2,0
19.016086,-2,0,-7,-2,-1,-1,0,2,0
19.016092,-2,-7,-4,4,1,1,-1,-4,0
19.023753,0,-2,0,-1,-1,0,-2,-2,0
19.023758,-1,0,-3,-3,-1,-1,-2,0,0
19.038169,1,-2,2,3,0,0,-2,2,0
19.038187,0,0,1,-5,-3,-2,-1,-3,0
19.039396,-2,-7,-2,-1,-3,-1,-2,-2,0
19.039437,-1,-4,-4,-2,0,-2,1,-3,0
19.062759,-3,11,-3,-4,-1,-2,0,-2,0
19.062763,1,-11,3,-2,0,0,0,0,0
19.062765,-2,-3,-5,-3,0,-1,-2,1,0
19.062767,-2,-2,2,1,-1,0,-2,-5,0
19.074611,-1,-2,-3,-1,-2,-2,0,1,0
19.074749,-2,7,-1,0,-1,-1,-1,-1,0
19.084966,-2,-4,0,-1,0,-2,-1,-1,0
19.084975,3,2,2,0,-1,-2,-1,0,0
19.098354,-1,-3,-4,2,0,-2,0,-1,0
19.098382,-5,4,7,-5,-2,-3,0,-1,0
19.100492,-1,-10,-11,-1,-1,-1,-1,0,0
19.100506,-2,4,-1,1,0,-1,0,0,0
19.120511,0,-2,1,1,0,-1,-2,-2,0
19.120537,2,4,1,-3,-2,0,0,1,0
19.122043,-1,-3,-7,-1,-1,-2,-1,-3,0
19.122050,-2,-4,-1,-3,-3,-1,-1,-3,0
19.142844,2,2,-2,-1,-3,-2,-2,-1,0
19.142912,-3,-6,1,2,0,0,0,0,0
19.144303,1,-5,-5,-1,-1,0,-1,0,0
19.145390,0,17,7,-1,0,-1,-2,1,0
19.158072,-3,-17,5,-2,0,-1,-2,0,0
19.158110,1,2,-5,-3,-1,-1,-2,-2,0
19.159630,1,-4,3,2,1,0,-1,-1,0
19.159642,-3,-1,-2,0,-1,-1,-1,-2,0
19.180612,-1,6,-2,-5,-1,-1,-2,-3,0
19.180639,0,-1,-3,-2,0,-2,-2,-2,0
19.183197,-1,-1,0,-4,-2,0,-1,-4,0
19.183201,1,-2,-5,2,-2,1,-2,1,0
19.202875,2,1,2,-1,1,0,-2,0,0
19.202893,-1,-5,-4,-2,-1,-1,1,-1,0
19.204419,-1,1,1,-2,-2,-1,0,0,0
19.204547,-1,-4,-2,2,-1,0,-3,1,0
19.219123,1,10,-3,-2,-2,-2,-2,-1,0
19.219138,1,-13,0,0,0,-2,-1,1,0
19.219408,-1,4,2,0,-1,1,-1,0,0
19.219420,-2,-5,-2,1,0,1,0,2,0
19.240292,0,10,-2,-3,-1,0,-1,-2,0
19.240312,-1,-10,-6,-2,-2,1,-3,-2,0
19.242296,-2,12,13,3,0,-1,-2,2,0
19.242302,-2,-5,-3,0,-1,-1,-1,-1,0
19.263251,-2,2,-1,-5,-1,0,-2,0,0
19.263279,0,-1,-4,3,-1,-1,-2,1,0
19.265975,1,-1,-4,0,2,-2,0,-1,0
19.265981,1,-3,0,1,-1,0,-1,0,0
19.277325,-1,-7,1,0,0,-3,-1,1,0
19.277346,0,8,8,-3,0,-2,-1,-2,0
19.284650,1,-2,-2,2,0,0,-2,1,0
19.284676,0,1,-2,-1,0,-1,-2,-1,0
19.308228,-3,-6,-3,-1,-1,0,-1,-2,0
19.308254,-2,2,-5,-3,-1,-1,0,0,0
19.310467,0,-1,-3,-3,-3,-2,0,-1,0
19.310471,0,-2,-3,-1,0,-2,-2,-4,0
19.322919,-1,-6,-3,0,-2,-3,0,-1,0
19.322935,0,5,-1,0,-2,-1,0,-1,0
19.324973,0,2,3,0,1,-1,-2,0,0
19.324979,0,-11,0,-2,-1,-1,1,-4,0
19.337274,0,-1,-3,-1,0,0,-1,-1,0
19.339291,-1,5,0,0,-1,-1,-2,-3,0
19.344260,-3,-6,-4,-2,-1,-2,-2,-1,0
19.344282,0,5,1,-1,-1,0,-1,-2,0
19.360343,-2,7,-4,-1,-1,-1,-2,-3,0
19.360360,1,-18,0,-1,-1,-2,-1,-2,0
19.361839,-2,3,-1,3,0,-1,0,0,0
19.361855,-3,1,-3,-1,-1,-2,1,-3,0
19.382975,-2,-3,6,-1,0,0,2,-3,0
19.382996,-2,-3,-10,-2,-1,-1,-1,1,0
19.385084,0,-2,0,-3,-1,0,-1,-3,0
19.385089,1,1,7,-1,2,-1,-1,0,0
19.397472,-1,-5,-6,1,-2,0,0,-1,0
19.397501,-1,7,2,-5,-1,0,-1,-1,0
19.404084,-1,-11,-10,-3,-1,-1,-2,-1,0
19.404136,-3,3,0,-4,-1,-1,-1,0,0
19.421058,-2,10,2,0,-1,0,-2,-1,0
19.421066,-4,-10,-5,0,-2,0,-2,-1,0
19.421830,1,-1,0,-2,0,-4,-1,-1,0
19.421840,-4,-3,-4,-3,-2,-1,-1,-3,0
19.443677,-1,0,0,-3,1,-1,-2,-3,0
19.446013,1,6,-2,-1,-2,-1,-1,-3,0
19.446018,0,11,6,0,0,1,-1,1,0
19.446020,0,-21,-10,0,0,-1,0,3,0
19.457202,-1,-9,-2,1,-3,-2,-2,0,0
19.457223,-2,9,8,-3,-1,-1,0,-1,0
19.464413,-3,-2,2,2,-2,1,-2,-2,0
19.464428,-1,5,3,1,-1,-3,1,0,0
19.480778,0,-4,-2,-5,-2,1,-1,-3,0
19.480805,0,-2,-11,7,1,0,-1,0,0
19.482930,0,1,-3,-3,-1,0,0,0,0
19.482934,-1,2,5,0,-1,-2,-2,0,0
19.503076,-1,-9,-9,-4,-2,-2,-2,0,0
19.503106,1,8,2,-4,0,0,-2,0,0
19.504530,-1,-4,3,1,1,-1,0,1,0
19.504546,0,3,-3,0,0,0,-2,1,0
19.517226,1,2,0,-3,-1,-1,0,-1,0
19.517246,-2,-7,1,1,-1,-1,1,-2,0
19.524009,-2,-5,-4,-3,-1,-1,-2,-1,0
19.524034,-1,0,2,-1,0,1,-1,-2,0
19.540765,1,3,0,4,-1,0,-1,2,0
19.540793,-2,-3,-6,-2,0,-1,0,-3,0
19.542694,0,-1,0,0,-1,-1,0,-3,0
19.542698,0,0,2,1,-2,-1,-2,2,0
19.562858,0,5,2,0,-1,-1,-2,1,0
19.562874,1,0,-3,-4,-1,-1,-1,3,0
19.564235,0,-5,-2,-7,-2,-2,-1,-2,0
19.564245,-1,2,-3,-3,-1,-1,-2,-1,0
19.577399,-1,-8,-2,2,1,1,0,-1,0
19.577447,0,5,-1,-3,-1,-3,-1,-1,0
19.584120,-1,-4,0,3,0,-1,0,-1,0
19.584139,1,2,-6,-1,0,0,-1,-1,0
19.600540,-2,-8,0,-2,-1,-1,-1,2,0
19.600559,-2,-2,1,-4,0,0,-2,-1,0
19.603219,0,5,-2,1,-2,-2,-2,0,0
19.603225,-4,-2,1,0,-2,-2,0,-1,0
19.624665,0,-4,-5,-3,-1,-2,0,-3,0
19.624670,0,2,3,3,2,0,1,0,0
19.624672,1,1,-1,-3,-2,1,-1,0,0
19.624674,-1,-7,-6,0,-3,-1,-2,-1,0
19.636618,-3,9,9,-2,0,0,0,-1,0
19.636652,-1,-11,0,1,-1,-2,0,-1,0
19.647059,0,-2,-3,0,-2,-1,0,-1,0
19.647065,0,3,-3,-5,-2,-2,-1,1,0
19.660264,-1,1,-3,-1,-2,-2,-1,-1,0
19.660289,-3,2,-5,-2,-1,-2,-1,0,0
19.661753,-2,0,1,0,-2,0,-2,-1,0
19.661762,0,-6,0,-1,-1,-1,0,-1,0
19.682276,0,3,0,-1,0,-2,0,-2,0
19.682292,1,2,0,-1,1,-1,-1,1,0
19.683725,-3,-6,-7,-3,-2,-3,-1,-4,0
19.683745,-2,3,6,0,-1,-1,0,-4,0
19.704626,2,0,-3,2,-1,-2,-1,-2,0
19.704648,2,1,2,-2,1,2,0,-1,0
19.712173,0,-6,-9,1,-1,-3,-1,-1,0
19.712188,-1,7,-2,2,-2,-2,-1,-1,0
19.720070,-1,-5,6,-1,-1,-1,-2,0,0
19.721826,-1,-19,-4,-1,-2,-2,-3,-3,0
19.721832,-1,2,9,-3,-1,0,0,-3,0
19.721833,-1,3,-4,-3,-2,-2,-2,-5,0
19.742550,1,0,-4,-2,1,0,0,-1,0
19.742578,-5,8,0,-2,-2,-2,0,-1,0
19.744750,1,-1,2,2,1,-1,0,-2,0
19.744755,1,-6,-3,2,-1,0,-2,-1,0
19.764549,-3,0,2,0,0,0,-2,1,0
19.764559,-1,1,0,-2,-2,-1,0,-2,0
19.765236,-1,1,1,-2,0,-1,1,-1,0
19.765244,1,-4,-3,-2,-1,0,-1,-3,0
19.779768,1,-5,-3,-1,-2,-1,2,-2,0
19.779795,-2,4,2,1,-1,0,-2,1,0
19.781700,0,-1,-5,-1,-2,-1,-1,1,0
19.781706,-3,3,2,-2,0,-1,-1,-2,0
19.802516,0,-2,-7,-1,-1,-1,-2,-3,0
19.802535,0,1,1,1,-2,-1,-1,-4,0
19.804357,-1,-5,-5,-3,-1,-1,-3,-3,0
19.804365,0,-3,6,2,1,-1,0,-1,0
19.825609,0,-3,-4,-3,-1,-1,0,-1,0
19.825616,-1,7,-3,0,-1,-2,-2,0,0
19.825695,-3,1,4,-9,0,0,-3,1,0
19.825727,-2,4,3,8,1,-1,-2,-1,0
19.839974,-1,-7,-4,-1,-3,-1,-1,0,0
19.839989,1,-3,-3,-1,-1,1,-2,0,0
19.847246,0,-6,-3,1,-2,-2,0,2,0
19.847259,0,3,0,-7,-2,-1,1,-2,0
19.862167,-1,2,3,0,-1,-1,-2,-5,0
19.862188,-4,-4,-6,-2,-1,-2,-1,-2,0
19.863327,-1,8,8,1,0,-1,0,0,0
19.863332,1,1,-2,-3,0,-1,-2,0,0
19.884926,-4,-6,-2,-1,1,0,1,1,0
19.884945,3,-6,-5,-3,-2,-2,-1,-1,0
19.887016,-1,1,-3,1,0,-1,-1,-3,0
19.887023,-4,-6,-5,-2,-1,-1,-2,1,0
19.900216,-2,-3,-2,-2,-2,-2,-1,5,0
19.900242,-3,15,8,1,1,-1,-1,0,0
19.903462,-1,-16,-3,2,-1,0,1,-1,0
19.903481,-1,-9,-1,-3,-1,-1,1,1,0
19.922251,1,7,-6,0,-1,-1,-2,0,0
19.922270,-1,4,0,-2,0,-2,-1,-2,0
19.922953,0,3,-1,1,0,0,-2,-2,0
19.922967,-1,-6,-4,-3,-1,-1,0,0,0
19.944607,0,-1,3,-2,-1,0,-1,1,0
19.945920,1,-2,-2,0,-3,0,-1,1,0
19.945931,-3,1,2,-5,-2,-1,-1,-3,0
19.945935,-2,-1,-2,0,-2,-1,-2,-1,0
19.959564,-1,6,3,-1,1,1,0,1,0
19.959581,-2,-15,-1,0,-1,-1,0,-2,0
19.960382,0,-1,-2,0,-2,-1,-1,0,0
19.960386,0,1,-3,-3,-1,-1,-1,0,0
19.982235,-1,-2,1,2,0,-1,-3,-2,0
19.982243,0,0,-2,2,-1,-1,-1,-2,0
19.982896,1,3,-1,1,-1,-2,-1,1,0
19.982910,-2,1,2,1,0,-3,-1,2,0
20.004732,0,-4,-2,-2,-3,-2,0,0,0
20.004747,0,-4,-3,-4,-1,-2,-1,-2,0
20.006945,0,0,1,3,0,0,-1,1,0
20.006949,-1,-1,-3,0,-1,-1,-1,0,0
22.030279,2,-3,26,8,4,3,2,-17,4
22.030908,0,32,23,10,5,1,0,6,4
22.030970,0,-18,-2,0,-4,-2,-3,0,4
22.031036,27,16,-2,2,2,-2,0,-1,4
22.044533,-12,-4,-11,-3,-8,0,0,-12,4
22.044545,26,29,-11,-14,-9,-3,-2,0,4
22.045296,3,-63,-10,3,-1,-1,1,0,4
22.045331,-13,74,43,5,0,2,1,-4,4
22.068037,13,15,-6,0,-4,-1,-1,1,4
22.068056,-16,-42,-45,8,-7,-4,-2,2,4
22.069949,12,1,11,2,7,1,2,-2,4
22.069959,-5,-19,-44,-17,-4,-7,-6,-9,4
22.090228,-14,52,60,6,-1,-1,0,3,4
22.090281,22,-19,-24,4,8,2,-2,9,4
22.090943,-34,22,2,2,-4,1,1,-2,4
22.090951,9,24,23,14,9,3,2,4,4
22.105517,-5,-27,-49,-16,-8,-3,-2,0,4
22.105530,15,-28,-4,-14,-6,-2,-1,-11,4
22.105532,9,-11,-9,-9,-2,-2,-2,2,4
22.105534,10,-2,9,4,4,1,1,0,4
22.127782,15,-19,-6,1,-3,-1,0,-9,4
22.127806,2,17,22,2,3,1,0,9,4
22.129161,0,10,0,-3,-5,-1,-3,-2,4
22.129168,1,-30,-22,-3,-4,-1,0,-2,4
22.152404,10,33,-5,3,-3,-3,-2,-5,4
22.152410,-2,-48,13,0,4,1,0,3,4
22.152412,19,65,-1,-4,-3,-1,-3,-1,4
22.152414,4,18,-16,-3,1,-3,-3,-5,4
22.164728,-24,-83,7,9,-3,0,0,3,4
22.164750,16,64,-6,-13,-6,-4,-4,-5,4
22.167461,-7,2,9,-4,5,2,2,3,4
22.167467,-6,10,9,1,0,-3,-1,-3,4
22.187814,0,16,-3,0,1,-2,0,-3,4
22.187831,-6,-53,3,-1,0,0,1,-2,4
22.188660,-22,-7,2,2,-2,-1,-2,2,4
22.188672,49,13,3,3,-1,0,0,1,4
22.209927,-14,14,-10,0,-1,-4,-1,-4,4
22.209943,-67,-43,-6,-8,-1,-2,-4,-4,4
22.211167,14,42,8,4,-1,-1,0,1,4
22.211175,-16,-4,11,-2,-2,0,1,1,4
22.225213,-4,-33,-4,-4,-1,1,-2,2,4
22.225243,-10,9,-43,-4,-2,1,4,2,4
22.226520,19,-36,32,12,-6,-3,-2,-1,4
22.226524,-27,-31,12,-2,-1,1,0,-2,4
22.247974,36,50,15,8,5,2,3,-1,4
22.248000,-31,-11,-16,4,5,-2,-1,-4,4
22.248656,5,48,16,5,-1,-2,-1,1,4
22.248670,-7,-3,-15,-9,-2,-2,-2,0,4
22.270474,-24,63,-4,-5,-5,-1,-3,-2,4
22.270495,23,-49,5,-5,-2,0,-1,6,4
22.272432,-32,-65,-29,-13,7,-2,-5,-8,4
22.272438,-10,12,15,2,4,0,1,1,4
22.284777,-19,-21,-18,-7,-3,-4,-5,1,4
22.284802,46,127,16,-4,-3,-3,-3,-3,4
22.286569,-51,-124,-10,-4,-6,0,1,2,4
22.286577,-16,-9,-21,-4,-6,0,-2,-4,4
22.307748,0,-12,-3,0,4,1,1,-6,4
22.307760,-48,6,12,-1,-3,-3,-1,2,4
22.308450,41,22,2,-1,-3,-1,-2,0,4
22.308459,11,69,-24,2,-4,-3,0,-3,4
22.330582,1,-105,-12,-8,-3,-1,-1,7,4
22.330610,29,76,48,13,1,-1,-1,-7,4
22.332867,-1,53,5,-6,-1,0,1,7,4
22.332871,-16,-37,-15,-1,-3,0,0,-16,4
22.344629,30,30,2,-7,0,0,1,0,4
22.344645,-1,-34,-9,-3,-5,-1,-1,9,4
22.345509,7,-6,-8,1,-2,0,1,4,4
22.345513,-61,24,18,-5,-3,-2,-7,-3,4
22.370151,-38,33,2,7,4,0,2,6,4
22.370162,9,-119,-8,-2,-2,1,-1,-27,4
22.370164,26,52,-1,5,-4,-1,1,-7,4
22.370166,16,46,11,6,14,1,-2,1,4
22.390976,16,-57,-4,-3,-2,-1,-4,-7,4
22.391006,24,14,5,3,6,1,1,12,4
22.391583,-70,-17,-13,-5,-6,-2,-2,0,4
22.391602,-30,-10,-5,-5,-3,0,-2,-8,4
22.404905,26,48,9,-1,-1,0,3,0,4
22.404926,-18,70,1,-1,-3,-3,-4,-6,4
22.405502,1,-107,-38,-8,5,2,1,7,4
22.405573,6,7,15,4,-2,0,1,10,4
22.428205,-21,71,-5,-12,-5,-2,-4,-2,4
22.428233,29,72,-2,2,-5,0,0,8,4
22.430240,44,79,17,11,1,0,-1,-6,4
22.430244,7,-48,-2,-11,-3,-3,3,14,4
22.450443,-68,-115,-23,-6,-4,-6,-9,-10,4
22.450472,18,-63,-6,-5,-1,-5,-5,-28,4
22.451381,7,32,-9,-12,-4,-5,-3,-14,4
22.451408,77,0,2,8,4,0,1,1,4
22.464548,-7,24,7,5,-3,-2,-2,1,4
22.464587,-7,-46,-8,-6,-15,-3,-2,15,4
22.465298,-84,61,3,-20,8,5,-2,-8,4
22.465333,15,9,14,16,3,3,0,14,4
22.488277,-29,-78,-6,0,2,1,-3,-12,4
22.488295,1,43,-4,-3,2,0,3,-1,4
22.490030,78,31,2,-1,-4,-4,0,20,4
22.490035,6,-11,-2,-2,-5,-1,-1,1,4
22.510624,20,9,6,1,0,-1,5,17,4
22.510628,47,-21,1,5,0,2,-1,13,4
22.510918,3,-10,-2,-2,6,-5,-8,-24,4
22.510926,-19,26,1,-2,-5,-1,2,9,4
22.527230,31,-22,-5,-2,-2,-2,2,2,4
22.527236,-35,11,-1,-9,-15,-3,-2,-10,4
22.532478,18,-8,9,3,2,-1,3,7,4
22.534090,5,10,2,1,11,0,0,13,4
22.548051,-1,21,-3,-3,-11,0,-4,-24,4
22.548067,8,82,7,-5,19,3,1,14,4
22.549283,-25,-43,-9,14,-5,-2,-2,-7,4
22.549293,-21,-44,1,-2,-6,-1,0,-15,4
22.569698,37,57,6,1,1,2,2,8,4
22.569724,-61,-65,-1,4,-2,-3,-3,6,4
22.587231,-40,1,1,4,-6,-2,0,-4,4
22.587235,-49,0,-8,-12,0,-3,-4,-2,4
22.587617,62,49,24,12,1,-1,-1,7,4
