timestamp,emg1,emg2,emg3,emg4,emg5,emg6,emg7,emg8,label
10.027057,26,45,9,-2,0,-1,0,1,-0.064188489
10.027176,-22,-41,-3,1,-2,1,-2,-2,-0.064188489
10.028583,-15,-34,-14,-3,-3,-2,-1,2,-0.064188489
10.028593,14,-1,-8,1,-2,-3,-1,-4,-0.064188489
10.040236,2,1,11,3,1,2,0,-3,-0.064188489
10.040264,-10,-35,-11,-3,-4,-1,0,4,-0.064188489
10.050507,5,16,0,-2,-1,-2,1,0,-0.064188489
10.050520,-3,24,3,3,1,-1,-1,0,-0.064188489
10.063750,17,10,-13,-4,-5,-3,-2,0,-0.064373267
10.063758,-14,-26,5,-4,0,-2,-2,-5,-0.064373267
10.065591,-1,28,-6,-2,-1,0,-1,-4,-0.064373267
10.065613,-7,27,-1,-4,-1,-2,-2,-6,-0.064373267
10.086363,-4,-72,-15,0,3,1,-3,0,-0.064373267
10.086383,14,12,15,5,0,0,-2,-2,-0.064373267
10.088708,11,27,0,-4,0,-1,-3,-1,-0.064373267
10.088723,-2,-5,-2,2,0,0,-1,-5,-0.064373267
10.100004,-12,12,-7,-6,-3,-2,0,0,-0.064373267
10.100027,-7,7,11,4,2,-1,-1,-1,-0.064373267
10.109255,0,-14,8,-1,-1,0,0,0,-0.064373267
10.109271,-7,-1,-6,-5,-1,-1,-1,-1,-0.064373267
10.123934,-8,-6,7,-7,-2,-1,1,-2,-0.064373267
10.123960,30,7,-6,6,-1,-1,-2,-1,-0.064373267
10.125563,-15,123,-3,-4,0,-1,-1,-4,-0.064373267
10.125575,16,-59,0,-6,-5,-3,-2,6,-0.064373267
10.146809,-8,-14,-5,7,1,1,0,0,-0.064373267
10.146834,-21,-5,-5,-4,-3,-1,0,-6,-0.064373267
10.147813,25,22,5,6,0,-1,-1,5,-0.064373267
10.149313,-7,6,-2,0,-1,-1,1,0,-0.064373267
10.160741,10,-1,-22,-8,-8,-3,-1,-2,-0.064373267
10.160757,-17,29,49,9,3,0,0,-1,-0.064373267
10.172082,10,4,-14,-3,-4,-4,-4,-2,-0.064373267
10.172095,-9,-26,-3,-4,-1,-1,-1,-2,-0.064373267
10.184766,2,-20,3,5,-3,0,-1,1,-0.064373267
10.184810,-20,2,-14,-3,-3,-2,0,1,-0.064373267
10.187354,21,10,-5,-3,-2,-1,-1,-1,-0.064373267
10.187366,-42,-8,8,-5,-1,-2,-2,-3,-0.064373267
10.206426,-5,21,10,6,4,1,0,0,-0.064373267
10.206443,24,-7,-16,-3,-2,-1,0,1,-0.064373267
10.208011,-6,-22,3,0,1,0,-1,-1,-0.064373267
10.208030,7,13,-9,-6,1,1,0,-3,-0.064373267
10.221244,-7,-5,1,-5,-1,-4,-3,-4,-0.064373267
10.221256,6,-2,-7,-2,-1,-1,-2,2,-0.064373267
10.229807,-12,-1,1,-6,-3,0,0,-2,-0.064373267
10.229820,5,-54,5,10,4,-1,0,4,-0.064373267
10.243907,-10,41,-8,-5,-4,-2,-2,-3,-0.064373267
10.243931,28,-74,6,-3,-1,-2,-1,3,-0.064373267
10.245488,-18,5,-5,1,3,1,1,-1,-0.064373267
10.245543,30,22,-15,3,0,0,-2,3,-0.064373267
10.268130,-16,2,28,3,1,1,-1,-4,-0.064373267
10.268149,-21,4,-18,-3,-3,0,-1,-3,-0.064373267
10.268156,-3,-10,-1,-5,-2,-1,-1,0,-0.064373267
10.268161,2,-10,5,0,0,0,0,-1,-0.064373267
10.280146,9,15,-12,-3,2,-1,0,0,-0.064373267
10.280178,-9,25,-5,-3,-3,0,-1,0,-0.064373267
10.289789,21,-50,2,2,-2,-1,-2,-1,-0.064373267
10.289803,-52,25,-8,-2,-3,-2,-1,-8,-0.064373267
10.311372,3,9,6,3,-1,0,-2,-2,-0.064373267
10.311390,4,62,2,-5,0,0,-2,3,-0.064373267
10.313157,-7,-67,-2,5,1,0,-2,-2,-0.064165958
10.313189,15,-39,6,-3,-4,-3,-1,-1,-0.064165958
10.326558,-17,-42,-4,4,0,-1,-1,-4,-0.064165958
10.326579,4,3,0,1,1,-1,-1,1,-0.064165958
10.328029,-4,36,-2,-2,-2,-1,-1,-2,-0.064165958
10.328045,3,3,0,-1,1,0,-1,-1,-0.064165958
10.340022,-2,12,3,-5,-1,0,0,-4,-0.064165958
10.340042,1,-18,-20,-5,-3,0,-1,1,-0.064165958
10.351565,6,14,11,5,-1,-3,-2,-2,-0.064165958
10.351575,-15,20,12,5,4,2,1,1,-0.064165958
10.364209,14,11,3,-1,0,-1,-2,-2,-0.064165958
10.364238,-21,26,-5,-3,-1,-3,-2,-8,-0.064165958
10.365675,20,-72,-23,-8,-5,0,-1,2,-0.064165958
10.365696,10,13,6,-1,-2,-1,0,-1,-0.064165958
10.386624,0,-18,-5,-5,2,2,0,5,-0.064165958
10.386651,-8,-6,0,5,0,0,-1,-2,-0.064165958
10.388336,-13,22,8,0,3,-1,-1,-2,-0.064165958
10.388350,7,20,-1,-2,-2,-2,-1,0,-0.064165958
10.410014,-7,-20,-9,-3,-4,-3,-2,-3,-0.064165958
10.410028,11,-13,1,0,-1,-1,-3,-1,-0.064165958
10.410297,-9,11,2,1,0,-1,-1,-2,-0.064165958
10.410304,1,-6,-7,-3,-5,-1,-1,-5,-0.064165958
10.425891,5,20,-17,-9,-1,-3,-1,6,-0.064165958
10.425902,-6,29,28,6,3,1,0,1,-0.064165958
10.425906,2,-43,5,12,3,-1,-2,-2,-0.064165958
10.425908,29,55,-14,-5,-3,0,-1,1,-0.064165958
10.446522,-40,-72,4,1,-2,-2,-3,-3,-0.064165958
10.446530,3,-25,-13,-7,-3,-1,0,-4,-0.064165958
10.448612,-3,49,-1,-3,-2,-2,-1,-3,-0.064165958
10.448626,6,0,3,-1,-1,-2,-3,-2,-0.064165958
10.469043,0,41,-3,4,-1,0,0,3,-0.064165958
10.469073,9,-3,0,-1,-1,-1,0,0,-0.064165958
10.471446,-5,-4,-3,-2,0,1,0,-1,-0.064165958
10.471459,-44,-27,-7,-2,0,-1,-2,-4,-0.064165958
10.484586,9,25,11,4,1,0,0,1,-0.064165958
10.484615,-6,-28,1,2,-1,-1,-1,-2,-0.064165958
10.487841,-7,8,-3,-12,-1,-1,1,-2,-0.064165958
10.487854,20,17,3,8,0,-1,2,2,-0.064165958
10.506516,-9,-60,-8,0,-3,-1,-2,-8,-0.064165958
10.506534,-39,25,23,7,2,0,1,-2,-0.064165958
10.508119,-1,-58,-10,4,-3,-1,-2,-1,-0.064165958
10.508147,16,1,5,-8,1,-1,-1,4,-0.064165958
10.529219,-4,17,-13,-5,-3,-1,-3,-5,-0.064165958
10.529307,22,26,17,3,-1,0,-2,1,-0.064165958
10.530733,8,12,-2,-3,1,0,0,1,-0.064165958
10.530746,-50,-27,-9,3,-1,0,-3,-7,-0.064165958
10.544736,22,25,5,-3,-2,-1,-1,3,-0.064165958
10.544768,-12,-24,-15,-9,2,-2,-1,-2,-0.064165958
10.547469,-2,35,5,1,-1,-1,0,-1,-0.064165958
10.547475,-1,-53,-6,-4,-2,-2,-3,-1,-0.064165958
10.566476,13,37,-9,-3,0,-2,-1,-2,-0.064165958
10.566490,12,53,17,3,-3,-1,-1,0,-0.064165958
10.568232,-9,-63,-2,-3,0,-2,0,-1,-0.064165958
10.568279,2,1,-27,-1,0,-2,0,2,-0.064165958
10.588962,-4,-7,35,4,-2,-1,-1,0,-0.064319186
10.590590,14,-12,-16,-1,-2,-1,0,0,-0.064319186
10.590602,-12,26,-11,-7,-3,-1,-2,-2,-0.064319186
10.590605,10,33,11,4,0,0,0,-4,-0.064319186
10.603326,3,-5,11,6,2,-1,-3,0,-0.064319186
10.603345,1,-21,-11,-4,1,-3,-1,3,-0.064319186
10.610069,4,36,3,3,-2,-2,-1,0,-0.064319186
10.610086,7,-72,-2,-2,-2,-3,-1,0,-0.064319186
10.626545,8,44,1,-1,0,-1,0,-2,-0.064319186
10.626576,5,-63,-10,2,-2,-1,-2,-3,-0.064319186
10.628717,-15,-22,1,-3,1,-2,-2,-1,-0.064319186
10.628727,2,24,6,4,-3,-1,-3,0,-0.064319186
10.649266,6,3,-3,-1,-2,-1,1,0,-0.064319186
10.649291,-5,6,-39,-7,-5,-3,0,-1,-0.064319186
10.652073,3,28,46,-2,-1,0,-1,5,-0.064319186
10.652089,12,-2,3,9,3,1,-2,-8,-0.064319186
10.663664,-12,-10,-6,-4,-2,-1,2,0,-0.064319186
10.663741,-3,-25,-19,-5,-2,-1,-2,0,-0.064319186
10.670342,7,62,-17,-4,-2,-2,-1,0,-0.064319186
10.672516,0,-74,8,-3,-3,-2,-3,-1,-0.064319186
10.686378,-1,-17,-4,-3,-2,0,-1,1,-0.064319186
10.686400,2,-1,3,-7,1,0,0,-4,-0.064319186
10.688781,-19,-21,-9,5,-1,-1,-1,-3,-0.064319186
10.688792,7,40,12,-3,0,-2,0,-1,-0.064319186
10.708977,-9,-16,-13,-1,-2,-1,-1,-2,-0.064319186
10.709015,1,-8,11,-4,-1,-1,-2,4,-0.064319186
10.710587,7,2,-17,3,1,0,-1,-2,-0.064319186
10.710691,-10,36,22,3,1,0,-1,-1,-0.064319186
10.723223,-4,6,11,2,0,-1,-1,3,-0.064319186
10.723235,21,11,4,4,2,-1,-2,0,-0.064319186
10.730256,-2,-10,-5,-3,-3,-3,-5,-7,-0.064319186
10.730287,-19,11,-16,-7,-3,-2,0,-1,-0.064319186
10.746335,22,18,-3,-4,1,0,-1,0,-0.064319186
10.747025,-6,11,10,8,-1,0,-1,0,-0.064319186
10.747915,1,-12,-3,-3,2,-1,-1,0,-0.064319186
10.747938,-2,-17,-8,-2,0,-1,-1,1,-0.064319186
10.769002,4,22,-2,-2,-2,-1,-1,-2,-0.064319186
10.769017,-6,-12,-13,-1,-2,-1,-1,-2,-0.064319186
10.770559,-1,-31,-6,-4,-2,-1,1,0,-0.064319186
10.770575,-4,11,28,2,3,-1,-3,1,-0.064319186
10.785617,-16,1,-10,-6,0,-1,-1,-1,-0.064319186
10.785633,0,40,19,5,2,1,-2,0,-0.064319186
10.790164,-59,-25,-26,-5,-3,-2,-4,-4,-0.064319186
10.790182,13,-45,6,-5,-4,-2,0,-2,-0.064319186
10.806416,-9,-10,-8,-1,-2,-2,-2,-2,-0.064319186
10.806435,-5,2,-14,-7,-2,-1,-2,-8,-0.064319186
10.808070,35,49,32,4,-1,-1,0,10,-0.064319186
10.808085,-9,16,-4,2,-1,1,0,1,-0.064319186
10.828928,1,-17,3,4,0,-2,-2,0,-0.064206519
10.828967,-22,4,-4,-4,-2,-1,-1,-6,-0.064206519
10.830885,38,-20,-8,1,0,2,0,-2,-0.064206519
10.830892,-24,-2,-17,-2,-1,-2,-1,-2,-0.064206519
10.843365,-1,-4,9,0,-1,-3,-1,-1,-0.064206519
10.843386,0,-21,1,3,0,-1,-1,0,-0.064206519
10.850203,0,-15,-11,-5,-1,0,-2,-3,-0.064206519
10.850223,16,25,5,-6,-3,0,0,3,-0.064206519
10.866717,8,19,-21,6,0,0,0,-2,-0.064206519
10.866763,-9,-17,17,-2,1,-2,0,-1,-0.064206519
10.868786,-6,-28,11,-2,-1,-2,-3,-2,-0.064206519
10.868806,8,26,-7,0,-2,0,-2,0,-0.064206519
10.889072,-10,-10,1,-1,1,-1,-2,0,-0.064206519
10.889097,25,43,-5,-4,-3,-1,-1,0,-0.064206519
10.891156,-8,-36,2,2,-1,0,0,-2,-0.064206519
10.891172,10,2,-11,-8,1,0,-2,-1,-0.064206519
10.902995,9,-8,3,1,0,-2,0,0,-0.064206519
10.903029,-13,-15,3,1,0,0,0,1,-0.064206519
10.912906,-3,33,2,2,1,-1,0,-7,-0.064206519
10.912912,7,6,-4,-4,-1,-1,-1,9,-0.064206519
10.926348,-10,-32,-9,-4,-2,-2,-1,-2,-0.064206519
10.926365,18,8,3,-1,-2,-3,-1,2,-0.064206519
10.927902,-14,17,14,2,0,0,-3,-10,-0.064206519
10.927911,1,25,-12,1,0,-1,0,0,-0.064206519
10.949233,8,-57,8,-6,-2,-2,0,5,-0.064206519
10.949258,2,-2,-7,-2,-1,0,-3,4,-0.064206519
10.951385,11,21,0,-1,-1,-1,-1,5,-0.064206519
10.951392,-3,-1,-7,2,-2,-2,0,-6,-0.064206519
10.962939,-4,56,9,2,-1,1,1,-1,-0.064206519
10.962956,-6,-44,-6,0,0,0,0,-4,-0.064206519
10.977492,-1,-1,-3,-1,-1,0,-2,-1,-0.064206519
10.977516,1,18,-12,1,-1,-1,0,1,-0.064206519
10.986501,-2,52,15,-5,-4,-3,-3,-2,-0.064206519
10.986519,6,-101,-7,-3,0,-1,-2,-3,-0.064206519
10.988144,-16,22,10,5,1,0,-1,0,-0.064206519
10.988166,-7,-14,-2,1,-2,-2,-1,-5,-0.064206519
11.008826,-4,-11,0,-2,1,0,-1,-2,-0.064206519
11.008843,22,68,-1,-5,-2,0,2,0,-0.064206519
11.011566,-9,-61,-8,4,1,1,-3,0,-0.064206519
11.011573,0,-53,5,3,0,-2,-1,-1,-0.064206519
11.022682,-18,12,7,-1,1,1,-3,-4,-0.064206519
11.022749,11,15,-2,-7,-1,-3,-2,0,-0.064206519
11.033107,19,46,-5,3,-7,-2,1,1,-0.064206519
11.033115,-14,-66,-4,-6,-1,-1,-2,-3,-0.064206519
11.048239,6,-6,-10,2,-1,0,-2,-2,-0.064206519
11.048248,-20,3,6,3,-1,-2,-1,-7,-0.064206519
11.048251,18,31,-7,-7,-3,-2,-1,8,-0.064206519
11.048254,-4,13,0,-2,0,-1,-1,-2,-0.064206519
11.069224,10,12,-7,2,-4,-2,-2,0,-0.064206519
11.069250,-30,-13,7,1,1,-1,0,-2,-0.064206519
11.070814,4,-26,-2,0,-1,-2,-3,1,-0.064206519
11.070826,0,35,11,0,-1,1,-1,1,-0.064206519
11.082543,-10,-68,-10,-4,1,-1,0,-2,-0.064409318
11.082577,4,38,14,-5,0,-1,-1,-1,-0.064409318
11.093601,-13,35,-8,2,1,-2,0,-7,-0.064409318
11.093611,-18,-58,-7,-5,-3,-1,-1,-1,-0.064409318
11.106579,13,42,0,3,0,2,0,-1,-0.064409318
11.106603,-4,-54,-11,0,-1,-2,-1,1,-0.064409318
11.108933,0,19,-29,-21,-2,-1,0,0,-0.064409318
11.108945,-18,-5,44,9,2,-2,-2,-7,-0.064409318
11.128936,8,5,-1,8,4,0,-1,5,-0.064409318
11.128959,4,19,-3,6,0,0,-1,3,-0.064409318
11.130408,-11,-11,15,1,1,0,0,-2,-0.064409318
11.130429,5,17,-18,-6,-2,-1,0,-4,-0.064409318
11.142562,-7,7,-3,-7,-3,-3,-2,-2,-0.064409318
11.142585,-8,-9,-2,-1,-1,-1,-1,-1,-0.064409318
11.153544,8,-11,-3,-1,-1,-1,-2,0,-0.064409318
11.153563,12,51,-1,0,-1,0,-2,1,-0.064409318
11.166503,-25,-61,2,-1,-1,0,0,-3,-0.064409318
11.166527,5,15,-9,2,-1,-2,0,-2,-0.064409318
11.168620,-12,-46,-1,-5,-3,-1,0,-3,-0.064409318
11.168632,36,21,2,-3,-2,0,-1,1,-0.064409318
11.189135,-34,4,-6,8,0,-1,-3,-3,-0.064409318
11.189181,-29,-3,14,6,1,1,-1,-7,-0.064409318
11.190565,1,-11,9,7,-2,0,0,0,-0.064409318
11.190581,-5,-10,-14,-1,-1,-2,-1,-1,-0.064409318
11.202612,12,21,1,-12,-6,-2,0,-1,-0.064409318
11.202630,0,-1,-10,1,1,0,0,-1,-0.064409318
11.212134,8,-21,6,2,1,-1,0,1,-0.064409318
11.212146,16,-44,-17,-4,0,-1,-1,-1,-0.064409318
11.226411,-7,4,-1,-1,-1,-2,-1,0,-0.064409318
11.226433,8,35,-1,-1,-2,-2,-3,-2,-0.064409318
11.227915,-10,33,4,0,0,0,0,-4,-0.064409318
11.227964,-3,-10,-13,0,0,0,-1,-1,-0.064409318
11.249547,-2,-21,-7,-9,0,-1,-1,-3,-0.064409318
11.249583,-5,-6,36,0,-1,-2,-1,0,-0.064409318
11.251130,6,22,-2,1,-3,-2,-3,-2,-0.064409318
11.251146,-5,28,7,6,1,1,-1,4,-0.064409318
11.264008,9,-9,-7,1,0,0,-1,0,-0.064409318
11.264015,-5,9,-13,-3,-2,0,-1,0,-0.064409318
11.273167,5,-22,10,2,-1,-2,-3,4,-0.064409318
11.273179,-16,6,5,-4,-1,-2,-2,-4,-0.064409318
11.286543,11,20,-2,6,-1,-1,0,1,-0.064409318
11.286568,-3,10,-6,-2,-3,-3,-2,0,-0.064409318
11.288510,-10,-3,-5,-4,1,0,0,-1,-0.064409318
11.288523,17,16,-1,1,-2,-1,0,1,-0.064409318
11.310786,-20,0,-1,-7,0,-1,-2,-4,-0.064409318
11.310795,3,14,-6,-10,-2,-1,-2,-3,-0.064409318
11.310799,-3,-36,-2,0,2,1,-1,-2,-0.064409318
11.310801,-1,-26,-1,-5,-2,-1,0,1,-0.064409318
11.322593,11,28,-9,5,4,-1,0,-5,-0.064409318
11.322616,-15,-6,15,-1,-4,1,-1,1,-0.064409318
11.332751,25,-21,12,-1,5,-1,-2,-1,-0.064409318
11.332764,-2,14,-3,1,0,-1,0,-1,-0.064409318
11.346743,7,-7,6,-4,-2,-1,-1,7,-0.064116382
11.346775,4,-19,-11,3,0,-1,-1,-11,-0.064116382
11.348597,18,36,-2,-5,-2,0,1,8,-0.064116382
11.348609,-15,-21,1,1,-2,-2,-2,-2,-0.064116382
11.371614,-9,-5,-1,-5,1,-1,0,1,-0.064116382
11.371633,-24,-35,-19,0,-4,0,0,3,-0.064116382
11.371640,3,20,-6,-2,-2,-2,-3,-9,-0.064116382
11.371646,4,35,10,3,-1,-1,-2,-2,-0.064116382
11.391705,17,14,3,-7,-3,-1,-1,-3,-0.064116382
11.391734,10,-14,-3,6,1,0,0,3,-0.064116382
11.392881,-23,25,-20,2,-4,-2,-1,-2,-0.064116382
11.392888,-5,-34,12,-7,1,-3,-2,0,-0.064116382
11.406487,10,-9,-2,-4,-5,-2,-2,-4,-0.064116382
11.409361,-20,-7,-5,-1,3,-2,-1,1,-0.064116382
11.409370,1,17,6,2,-2,-2,1,0,-0.064116382
11.409373,11,28,-4,1,-1,0,0,-2,-0.064116382
11.429451,-16,-40,-1,-2,-3,-2,-1,-4,-0.064116382
11.429483,23,37,-3,-7,-1,-2,-2,1,-0.064116382
11.432112,-13,-28,-5,-1,-2,-2,-1,-1,-0.064116382
11.432120,-31,-7,-5,-2,-1,1,-1,-2,-0.064116382
11.452204,11,26,8,4,2,0,-1,-1,-0.064116382
11.452227,-7,-25,-8,-3,3,-1,-2,-1,-0.064116382
11.453181,11,32,11,8,1,-1,-1,0,-0.064116382
11.453207,21,10,-11,-5,-2,-1,-2,0,-0.064116382
11.466342,-36,-49,5,2,-1,-1,-1,-3,-0.064116382
11.466351,7,10,-5,-6,-1,0,0,5,-0.064116382
11.467883,-4,-10,7,1,-2,0,-1,6,-0.064116382
11.467891,3,40,1,1,1,-1,0,-2,-0.064116382
11.488954,18,5,-11,2,-2,0,1,2,-0.064116382
11.488974,12,-13,4,-5,0,-1,-3,-5,-0.064116382
11.491108,-7,-1,-13,-1,0,1,-1,-4,-0.064116382
11.491124,7,-20,10,2,0,-2,0,1,-0.064116382
11.511844,-3,23,8,-1,0,-1,-1,0,-0.064116382
11.511854,10,-40,-15,2,-4,-2,-1,0,-0.064116382
11.512858,23,-3,5,-4,1,0,-1,-1,-0.064116382
11.512867,-52,-44,-1,-2,1,-3,-2,-5,-0.064116382
11.528206,9,-2,0,-1,0,-2,-1,-1,-0.064116382
11.528241,12,54,-4,1,-1,-1,0,3,-0.064116382
11.533038,-12,-14,-14,1,0,0,0,-2,-0.064116382
11.533064,15,9,12,-5,0,1,-1,-4,-0.064116382
11.549891,-10,-2,-1,2,-3,0,0,1,-0.064116382
11.549907,-1,7,7,2,-1,-2,-2,-4,-0.064116382
11.552085,10,30,-5,-6,-2,-1,-1,-1,-0.064116382
11.552102,-4,-57,-8,-2,-2,-4,-2,-4,-0.064116382
11.571411,4,16,-6,-3,-1,-1,-2,4,-0.064116382
11.571436,11,16,5,-2,-5,-2,0,0,-0.064116382
11.573765,-30,2,-5,-1,-1,-2,0,-7,-0.064116382
11.573777,11,-22,-4,-3,-2,-1,-2,1,-0.064116382
11.586107,-14,-27,13,0,0,-2,-2,-3,-0.064116382
11.588654,-9,-7,2,8,3,2,0,-1,-0.064116382
11.593271,-1,21,7,-6,0,-2,-3,0,-0.064156943
11.593294,-32,-9,-8,-2,1,0,1,-2,-0.064156943
11.608840,22,-8,-11,-4,-2,-2,-3,-2,-0.064156943
11.608857,-15,4,8,-7,-1,-1,-2,-1,-0.064156943
11.610361,2,2,-1,-8,1,0,-1,-2,-0.064156943
11.610369,11,8,-6,4,-2,-1,1,0,-0.064156943
11.631723,10,5,-4,3,-1,-1,0,-1,-0.064156943
11.631748,-19,-9,1,-5,1,-1,-2,-3,-0.064156943
11.632880,-14,-26,1,7,0,-2,-2,0,-0.064156943
11.632890,7,22,-2,-4,-4,-1,-4,0,-0.064156943
11.646222,1,-6,3,0,-2,0,0,-3,-0.064156943
11.646255,5,18,-5,0,0,-1,1,-2,-0.064156943
11.652662,19,-12,-1,-4,-1,-1,-1,1,-0.064156943
11.652696,-20,-21,8,-1,0,-1,0,-1,-0.064156943
11.669069,-27,-33,-8,-6,-3,-2,-1,-6,-0.064156943
11.669092,11,10,2,3,2,0,-1,-1,-0.064156943
11.670633,4,-13,6,0,1,0,1,-1,-0.064156943
11.670655,21,59,-6,0,0,1,1,-3,-0.064156943
11.690598,-15,4,-4,-2,-2,0,-1,6,-0.064156943
11.690625,24,-32,4,-7,-2,-1,-2,1,-0.064156943
11.699200,-22,60,-10,0,-3,-2,0,-1,-0.064156943
11.699224,13,-85,12,-1,-1,-1,-1,4,-0.064156943
11.705771,-23,-7,13,10,-1,1,0,-3,-0.064156943
11.705796,11,18,-7,1,-1,-3,-2,-1,-0.064156943
11.712740,-1,-11,2,0,-6,-2,-2,-2,-0.064156943
11.712756,4,51,-13,-6,-2,-2,-1,2,-0.064156943
11.729480,7,3,-10,-5,0,1,-3,-4,-0.064156943
11.729489,-13,-10,7,9,-1,1,0,-1,-0.064156943
11.731400,7,-30,-8,-5,3,-2,-1,1,-0.064156943
11.731422,21,47,0,3,1,0,-1,-3,-0.064156943
11.751446,-17,-16,-3,-3,-1,1,-1,-3,-0.064156943
11.751465,-11,3,-6,-8,-3,-3,-2,-6,-0.064156943
11.754254,15,24,2,0,-2,-2,-1,-1,-0.064156943
11.754266,-18,-39,1,-3,-3,-1,-1,-2,-0.064156943
11.766263,6,29,3,-1,0,-2,1,-2,-0.064156943
11.766293,-32,-44,-5,-3,-3,-2,-3,-6,-0.064156943
11.772590,-2,11,8,-1,-1,1,-1,1,-0.064156943
11.772604,-1,-11,1,1,0,-1,-2,0,-0.064156943
11.790407,11,9,-5,1,-1,-1,-1,-1,-0.064156943
11.790418,-4,7,-9,-7,-1,-2,0,2,-0.064156943
11.790558,-18,-31,-7,0,-1,0,-1,-5,-0.064156943
11.790566,1,34,9,1,0,0,0,2,-0.064156943
11.811313,17,6,-2,-1,0,-2,-2,0,-0.064156943
11.811328,6,-3,2,-3,-1,-2,0,1,-0.064156943
11.813292,-4,7,-4,-5,0,-2,-2,-3,-0.064156943
11.813306,1,-30,4,6,0,1,-1,2,-0.064156943
11.825828,22,-33,-7,0,-3,-2,1,-1,-0.064156943
11.825852,-12,1,-10,-2,-4,-2,-2,5,-0.064156943
11.832670,-6,-26,1,-5,-2,-1,-2,-4,-0.064156943
11.834039,-17,35,5,5,2,-1,-2,-1,-0.064156943
11.849081,22,51,13,3,-2,-1,0,0,-0.064165958
11.849097,-11,-51,5,5,5,2,0,-3,-0.064165958
11.851461,8,-54,-10,-1,-1,-1,0,3,-0.064165958
11.851482,-18,40,0,-3,-4,-3,-1,0,-0.064165958
11.871386,-5,-55,-13,-9,-1,-2,-3,-2,-0.064165958
11.871404,11,4,-9,-3,-2,0,0,-1,-0.064165958
11.873093,-4,11,-2,0,-1,0,-2,-5,-0.064165958
11.873114,8,6,0,0,1,0,0,2,-0.064165958
11.885072,-15,-5,2,2,0,0,-1,3,-0.064165958
11.885089,20,16,-8,-7,-4,-2,-3,-1,-0.064165958
11.894587,12,-1,2,2,-1,0,0,1,-0.064165958
11.894600,-2,0,-6,-3,-2,-3,0,-5,-0.064165958
11.909388,-28,12,-5,-4,-3,-2,-1,-2,-0.064165958
11.909420,4,10,4,-3,0,0,0,-4,-0.064165958
11.912855,-6,-47,-1,1,-2,-1,-1,0,-0.064165958
11.912862,13,-20,-7,0,0,0,0,0,-0.064165958
11.932732,-18,24,-1,5,-2,-2,-2,-1,-0.064165958
11.932740,12,23,-25,-2,-1,-3,-2,-1,-0.064165958
11.932842,-33,55,56,3,2,-1,0,-3,-0.064165958
11.932849,26,-52,-13,-7,-1,0,0,1,-0.064165958
11.945643,4,24,-3,-3,-1,-1,-1,-6,-0.064165958
11.945677,-20,-72,-8,-3,-2,-3,-2,-4,-0.064165958
11.955592,8,26,-18,3,-1,-1,-2,-2,-0.064165958
11.955604,-5,31,-10,0,-4,-2,-1,-2,-0.064165958
11.968342,32,-4,14,1,3,0,1,3,-0.064165958
11.968365,-56,-6,6,1,-1,1,1,-3,-0.064165958
11.976768,10,2,-8,-5,-1,-1,-1,-1,-0.064165958
11.976774,-17,12,2,-2,-1,-1,-2,-2,-0.064165958
11.992120,5,4,-9,-7,-2,-1,-1,-2,-0.064165958
11.992152,6,35,10,1,1,-1,-1,0,-0.064165958
11.994575,-1,12,0,3,1,0,-1,2,-0.064165958
11.994586,-19,-73,-9,-1,-2,-4,-2,-1,-0.064165958
12.005205,30,17,10,-3,-1,-1,-2,1,-0.064165958
12.005234,-13,12,10,-1,-2,0,-1,-1,-0.064165958
12.016277,30,-6,-18,-3,-6,-2,4,6,-0.064165958
12.016284,-8,45,6,-1,0,1,-5,1,-0.064165958
12.029084,-16,-56,-9,2,2,1,-1,-3,-0.064165958
12.029149,15,0,12,1,-3,-1,0,1,-0.064165958
12.030556,6,5,-10,-6,-1,-2,-2,-3,-0.064165958
12.030575,-7,5,2,2,-2,-1,2,-1,-0.064165958
12.051491,-1,35,0,-5,-3,-1,-1,-2,-0.064165958
12.051517,26,12,0,1,0,2,0,3,-0.064165958
12.053202,-34,-16,-16,-1,-1,-2,-3,-3,-0.064165958
12.053224,14,-7,0,-6,-3,-2,0,-5,-0.064165958
12.065174,-26,-7,3,2,1,-2,-2,4,-0.064165958
12.065201,30,25,-9,5,1,-2,-1,-2,-0.064165958
12.074540,2,0,13,0,0,-1,-2,1,-0.064165958
12.074559,0,8,-4,-2,-1,-1,-3,-1,-0.064165958
12.090332,4,13,-2,-5,-1,-2,1,0,-0.064165958
12.090348,-13,-26,-2,-6,0,0,0,-1,-0.064165958
12.090586,4,2,8,2,1,2,0,-3,-0.064165958
12.090612,-4,-33,-24,-1,-1,-2,0,-1,-0.064165958
12.111633,13,46,19,4,-2,0,2,2,-0.064373267
12.111653,7,-4,5,6,1,0,-1,-1,-0.064373267
12.113163,5,-31,-1,-6,-4,-3,-3,-5,-0.064373267
12.113173,0,25,2,-2,0,0,-1,5,-0.064373267
12.125696,7,-12,-21,0,-2,-3,-2,-7,-0.064373267
12.125720,-6,13,9,-6,0,-2,1,7,-0.064373267
12.136370,-47,-13,1,-2,-1,-1,-1,-2,-0.064373267
12.136399,12,-10,-5,-3,-4,-1,-2,-14,-0.064373267
12.149498,12,30,4,-1,0,-1,-1,1,-0.064373267
12.149530,-23,-63,-6,0,-2,-2,-3,-4,-0.064373267
12.152450,18,8,-3,-1,1,0,-1,0,-0.064373267
12.152470,-18,1,19,1,-3,-2,-2,-1,-0.064373267
12.171408,-17,-22,-3,5,3,0,-2,-3,-0.064373267
12.171421,12,26,-7,-8,0,-2,0,-3,-0.064373267
12.173037,0,12,-5,-12,-4,-1,-1,2,-0.064373267
12.173053,3,-9,-6,6,1,0,1,1,-0.064373267
12.186950,0,-31,-1,0,-2,0,-2,-2,-0.064373267
12.186961,2,12,22,6,3,-1,0,5,-0.064373267
12.194255,-7,-14,-4,-3,-1,0,-1,-3,-0.064373267
12.194261,21,76,10,2,0,-1,0,0,-0.064373267
12.209015,-24,-80,-17,0,-5,-2,-1,0,-0.064373267
12.209040,11,8,-10,-7,-2,-1,-2,-3,-0.064373267
12.210444,-10,-37,-10,5,0,-1,-1,-3,-0.064373267
12.210459,2,6,7,0,-1,-2,-2,-1,-0.064373267
12.233783,-7,27,-3,-4,-1,-1,-2,2,-0.064373267
12.233792,7,-2,5,2,-1,-2,-2,-2,-0.064373267
12.233795,13,10,0,0,-1,-2,0,0,-0.064373267
12.233798,1,-12,-9,-4,-2,-1,0,1,-0.064373267
12.245686,3,12,5,-2,1,-2,0,-1,-0.064373267
12.245731,0,-15,-10,-3,-2,-2,-2,-3,-0.064373267
12.255394,5,11,-3,3,0,-1,-3,-2,-0.064373267
12.255401,-8,9,13,0,1,0,0,1,-0.064373267
12.269564,27,-4,7,3,2,0,-2,0,-0.064373267
12.269620,9,24,-15,-4,-1,-1,-3,-1,-0.064373267
12.272355,-12,-42,1,-2,0,-3,-1,-3,-0.064373267
12.272367,22,46,-8,-3,-1,-1,-2,-5,-0.064373267
12.291405,-13,-45,-16,-9,-4,-1,0,2,-0.064373267
12.291422,5,43,26,6,1,0,4,2,-0.064373267
12.294223,6,17,-3,1,-1,-1,-5,-1,-0.064373267
12.294235,-7,-56,-3,-1,-2,-1,0,-1,-0.064373267
12.314086,-1,15,3,0,1,0,-1,-1,-0.064373267
12.314108,7,38,-11,2,-1,-2,1,1,-0.064373267
12.315843,-18,-59,-7,-17,-7,-2,0,-3,-0.064373267
12.315871,7,25,11,15,3,1,-2,-1,-0.064373267
12.329021,-20,-11,-4,2,-1,-1,0,-3,-0.064373267
12.329051,13,0,1,-3,-3,0,-1,3,-0.064373267
12.330446,-8,56,8,3,2,1,1,2,-0.064373267
12.330467,9,-36,-26,-11,-2,-2,-2,1,-0.064373267
12.351671,-4,49,19,0,-1,0,0,-3,-0.064373267
12.351691,-31,-65,1,0,1,0,-2,-5,-0.064373267
12.353515,5,-26,-7,1,0,-2,-4,-2,-0.064373267
12.353528,4,21,0,-5,-1,-2,0,0,-0.064373267
12.373979,24,39,-3,-2,1,-2,-1,-2,-0.064296651
12.374019,-32,-7,-5,1,0,0,-1,-1,-0.064296651
12.375627,6,-2,2,2,-2,-1,2,-4,-0.064296651
12.375727,-23,-15,-3,0,-3,-1,-3,6,-0.064296651
12.389037,9,-44,-10,1,-4,-2,-3,-2,-0.064296651
12.389053,8,19,10,-5,-4,-3,-2,-4,-0.064296651
12.390489,4,18,3,6,4,0,0,1,-0.064296651
12.390523,-6,7,5,1,-1,0,1,-2,-0.064296651
12.411503,17,36,0,-7,1,-1,0,1,-0.064296651
12.411527,-39,-89,-21,-6,-2,1,-3,-5,-0.064296651
12.413168,1,13,-13,-2,-2,-1,-3,-3,-0.064296651
12.413178,-12,-11,6,-1,0,-1,-1,-2,-0.064296651
12.434342,2,26,0,6,-1,-1,-1,0,-0.064296651
12.434349,22,-30,3,0,2,0,-1,-2,-0.064296651
12.435700,-40,23,7,-2,-2,-3,-1,-4,-0.064296651
12.435726,-3,-10,-5,-1,1,1,-2,-2,-0.064296651
12.449487,-5,-2,6,-1,-1,-2,0,-1,-0.064296651
12.449498,0,50,-7,2,-3,-2,-1,-5,-0.064296651
12.450477,11,-5,0,-8,-2,-1,1,3,-0.064296651
12.450547,2,-12,-7,2,-2,-2,-2,-6,-0.064296651
12.471529,-19,5,12,1,3,-1,-1,7,-0.064296651
12.471548,14,-9,22,9,0,0,-2,-1,-0.064296651
12.473081,8,15,1,-6,3,0,-2,0,-0.064296651
12.473101,3,-39,-14,-1,-4,-1,-2,-4,-0.064296651
12.494609,-16,-51,-10,-4,-3,-4,-2,-6,-0.064296651
12.494737,-3,17,-13,-7,-2,-3,0,0,-0.064296651
12.497328,5,34,7,6,-3,-1,1,3,-0.064296651
12.497338,0,-34,0,-3,2,-1,-2,-2,-0.064296651
12.508633,4,-3,-6,6,-1,0,-2,-3,-0.064296651
12.508665,-7,-5,-4,-2,0,-2,-2,-2,-0.064296651
12.515615,12,18,5,4,-1,0,-1,0,-0.064296651
12.515646,-16,26,3,-3,0,-1,-1,-1,-0.064296651
12.531808,3,-17,-11,-7,-4,0,-3,-3,-0.064296651
12.531890,30,51,12,1,-2,-1,-1,-1,-0.064296651
12.533074,-17,-25,-8,-8,1,-2,-1,-1,-0.064296651
12.533102,3,9,-6,5,1,0,-1,1,-0.064296651
12.554109,-8,-9,19,4,1,1,-2,-4,-0.064296651
12.556211,-10,14,0,5,2,1,1,1,-0.064296651
12.556226,2,-19,0,0,-1,-1,-3,0,-0.064296651
12.556229,-13,-31,-7,-9,-5,-3,-1,-1,-0.064296651
12.569028,2,23,-6,1,-1,0,2,1,-0.064296651
12.569072,2,-26,-15,-3,-3,-1,0,-5,-0.064296651
12.575450,13,32,14,-1,0,0,-1,3,-0.064296651
12.575467,-18,-24,-1,-7,1,0,3,1,-0.064296651
12.591462,8,-2,4,6,0,-2,-6,-4,-0.064296651
12.591500,0,4,2,2,0,0,-1,0,-0.064296651
12.592934,-7,2,-6,0,-1,0,-2,-4,-0.064296651
12.592941,1,40,1,0,-2,-2,0,0,-0.064296651
12.614978,20,3,3,-10,-1,-1,2,3,-0.064296651
12.615008,-44,-10,-3,2,-2,-3,-2,-4,-0.064296651
12.617120,21,11,0,6,-1,0,0,0,-0.064260600
12.617126,-1,15,-6,-2,-1,-1,-3,1,-0.064260600
12.628305,8,-68,6,-2,-3,-2,-2,-3,-0.064260600
12.628328,-4,-5,2,-3,3,-1,-2,0,-0.064260600
12.637584,3,-5,-5,7,-1,0,1,-2,-0.064260600
12.637601,-6,28,18,3,-1,-2,-1,-2,-0.064260600
12.652180,-16,11,-15,-7,1,-1,-2,-3,-0.064260600
12.652200,-7,-9,-2,-3,-2,0,0,2,-0.064260600
12.652988,5,-1,-12,-9,-5,-6,-3,-3,-0.064260600
12.653006,6,-5,8,7,1,0,-2,-2,-0.064260600
12.674144,-8,17,6,5,-1,0,1,-1,-0.064260600
12.674169,-1,-14,2,1,1,2,0,-3,-0.064260600
12.675836,8,-4,-9,0,0,2,0,5,-0.064260600
12.675842,-6,-47,-9,-4,-2,-1,-3,-4,-0.064260600
12.688458,-10,21,-2,-3,-1,-2,0,-6,-0.064260600
12.688483,-9,1,-4,-4,-4,-2,-3,1,-0.064260600
12.695661,-15,28,0,-2,0,-1,-3,-6,-0.064260600
12.695690,7,-18,-11,-6,-3,-1,-1,1,-0.064260600
12.711938,-9,19,-1,1,-1,-1,-2,-2,-0.064260600
12.711971,22,-7,-8,-5,1,-1,-1,0,-0.064260600
12.714527,-8,-21,12,2,2,-1,1,-1,-0.064260600
12.714535,-2,36,-1,-1,1,0,1,-1,-0.064260600
12.734600,8,-67,-8,-2,-4,-2,-1,1,-0.064260600
12.734645,15,33,2,-1,-4,-1,-3,-2,-0.064260600
12.737295,3,-24,2,7,1,-1,-1,0,-0.064260600
12.737308,-6,32,10,9,3,2,0,-1,-0.064260600
12.748600,5,11,-6,1,1,0,1,2,-0.064260600
12.748612,10,2,-12,2,0,-1,1,2,-0.064260600
12.755053,-12,-6,1,-7,-3,-1,-3,-1,-0.064260600
12.755072,20,13,-11,-5,-2,-3,0,-2,-0.064260600
12.771594,-27,23,21,1,-1,-2,-2,-9,-0.064260600
12.771626,-3,-10,10,1,-3,-1,-1,5,-0.064260600
12.773330,13,18,-5,-5,-1,-2,-1,-2,-0.064260600
12.773339,-16,-86,-4,-1,-2,0,0,1,-0.064260600
12.793973,-9,25,-12,1,3,0,0,2,-0.064260600
12.793990,12,3,-1,-5,-1,-1,-1,-1,-0.064260600
12.795374,-3,24,4,1,-1,1,1,-2,-0.064260600
12.795381,22,36,1,0,-1,-2,-1,2,-0.064260600
12.808833,-67,-53,2,-5,-4,-3,-1,-6,-0.064260600
12.808850,-15,-16,3,2,2,-1,0,-3,-0.064260600
12.817695,19,-47,-15,1,0,0,0,1,-0.064260600
12.817702,-2,15,11,-3,-1,-1,-2,-3,-0.064260600
12.831857,33,49,-14,2,-1,1,1,3,-0.064260600
12.831882,-20,24,12,4,-3,-2,-1,-3,-0.064260600
12.833496,-4,-4,2,-7,-2,-1,-2,-4,-0.064260600
12.833509,-1,-2,-3,3,1,-2,-2,0,-0.064260600
12.856069,11,-8,-4,-3,-1,0,-1,3,-0.064260600
12.856083,-5,13,-19,-5,-1,-2,0,0,-0.064260600
12.856087,9,10,19,3,3,-1,-1,0,-0.064260600
12.856090,-12,-3,3,1,-1,-2,-3,-4,-0.064260600
12.868172,17,-8,1,-5,-1,-2,0,8,-0.064260600
12.868214,3,28,-11,-3,-2,-1,-1,-4,-0.064260600
12.879330,-3,-49,-3,-2,-1,0,-1,-3,-0.064323691
12.879344,-38,-47,3,4,3,-1,0,4,-0.064323691
12.891408,10,11,0,-2,1,-2,0,-5,-0.064323691
12.891527,9,5,-2,-1,-1,-1,-3,8,-0.064323691
12.892923,-13,13,-10,2,-5,0,-1,-3,-0.064323691
12.892932,15,5,-8,-10,-3,-2,-1,-2,-0.064323691
12.914262,1,30,28,1,0,0,-1,-1,-0.064323691
12.914287,1,-45,-6,-1,-2,-1,-1,-3,-0.064323691
12.915586,10,37,-2,0,0,-2,-2,0,-0.064323691
12.915603,-8,-25,-2,6,-2,1,-2,0,-0.064323691
12.927637,-6,-16,-13,-4,-4,-2,-1,-2,-0.064323691
12.927669,16,-7,5,-6,0,0,-1,-4,-0.064323691
12.938357,-2,29,4,5,1,-2,0,2,-0.064323691
12.938372,19,16,2,-1,-2,-2,-2,0,-0.064323691
12.951657,-13,-17,-7,-2,1,0,1,-3,-0.064323691
12.951687,-19,-14,3,-1,0,0,-2,-4,-0.064323691
12.953118,4,-13,-21,-5,-1,-2,-1,-1,-0.064323691
12.953147,8,21,-1,-4,-2,-2,-1,-1,-0.064323691
12.974557,9,19,8,6,2,2,0,1,-0.064323691
12.974590,3,39,2,-4,-2,0,0,2,-0.064323691
12.977632,-19,-106,-15,-1,-2,-1,-1,-3,-0.064323691
12.977638,4,25,17,-2,-2,0,-2,-6,-0.064323691
12.987871,10,-9,-12,-4,-2,-3,-3,2,-0.064323691
12.987965,1,-3,3,5,1,1,0,-2,-0.064323691
12.998230,-6,10,1,-6,0,-1,0,-1,-0.064323691
12.998254,-9,1,0,0,1,0,0,-2,-0.064323691
13.011418,-4,-6,-7,-4,-2,-2,-2,-1,-0.064323691
13.011426,4,-20,6,0,0,-2,-1,-1,-0.064323691
13.012890,0,45,-1,-2,-1,-1,-1,-2,-0.064323691
13.012925,4,-42,-11,-4,0,-2,0,0,-0.064323691
13.034280,-27,9,1,0,2,-2,-2,-1,-0.064323691
13.034351,3,7,1,7,-1,-3,-2,-3,-0.064323691
13.037042,-8,18,-12,-1,-2,1,-2,-2,-0.064323691
13.037055,22,-7,22,-1,-1,-2,-2,1,-0.064323691
13.047850,-3,-16,-1,3,-1,0,0,-3,-0.064323691
13.047874,13,-8,-5,-6,-2,-1,-1,-1,-0.064323691
13.056664,-18,36,7,3,-1,-1,-2,-1,-0.064323691
13.056681,-7,-21,-25,0,2,-1,-2,-2,-0.064323691
13.072068,4,10,-1,0,-1,0,0,-1,-0.064323691
13.072086,1,-5,13,-3,-1,-2,-1,-3,-0.064323691
13.073089,0,-45,-1,-2,-3,-1,1,0,-0.064323691
13.073097,-8,8,-5,-4,-1,-2,0,1,-0.064323691
13.094675,4,-13,-8,-2,-1,0,0,-2,-0.064323691
13.094703,-8,27,-1,-1,0,-1,-2,7,-0.064323691
13.097024,-1,-66,-1,-5,-2,-2,-1,1,-0.064323691
13.097032,22,51,5,0,0,0,0,-1,-0.064323691
13.107763,-39,-30,-3,-4,-2,-2,-3,-2,-0.064323691
13.107796,1,-17,13,2,-1,-3,-4,-8,-0.064323691
13.124303,11,15,6,4,-2,-2,-3,1,-0.064323691
13.124334,-9,-7,5,1,0,0,-1,0,-0.064323691
13.131735,21,41,0,0,-1,-1,-2,2,-0.064102862
13.133958,-9,-26,-13,-2,0,0,-2,-1,-0.064102862
13.133977,-2,5,2,-4,0,-1,-1,-1,-0.064102862
13.133983,2,12,-3,-3,-3,-1,-2,-3,-0.064102862
13.154603,4,15,-3,-1,0,-1,0,-2,-0.064102862
13.154629,-5,-20,-12,-2,-2,0,-1,-1,-0.064102862
13.155435,8,23,0,-6,-1,-1,0,0,-0.064102862
13.155451,-20,-11,20,15,3,1,1,-2,-0.064102862
13.168042,-18,-22,-7,1,1,-1,0,-2,-0.064102862
13.168095,-11,-9,0,-3,-1,-3,-2,-4,-0.064102862
13.176916,8,-8,-9,-2,-3,0,-1,2,-0.064102862
13.176928,-2,13,-6,-3,-2,-2,-2,-2,-0.064102862
13.191622,14,20,5,-2,0,0,-2,0,-0.064102862
13.191646,-1,-20,-11,0,-2,1,-2,0,-0.064102862
13.194302,-11,17,10,-2,0,-1,0,-2,-0.064102862
13.194308,24,83,-4,-2,-3,-2,-1,0,-0.064102862
13.213988,-24,-95,-11,0,-2,-3,-2,-4,-0.064102862
13.214025,2,37,2,3,2,0,0,1,-0.064102862
13.215773,0,1,-2,0,1,-3,-2,-5,-0.064102862
13.215795,2,28,19,1,-1,1,-1,5,-0.064102862
13.229114,8,-13,6,-6,-1,-1,-2,-6,-0.064102862
13.229121,2,5,-6,-2,-1,-2,1,4,-0.064102862
13.238229,-3,-13,-3,-1,0,1,-2,-1,-0.064102862
13.238242,5,-45,-12,-6,-4,0,1,-1,-0.064102862
13.251805,-24,51,-3,-1,-1,0,0,2,-0.064102862
13.251839,15,-76,-3,0,1,0,-2,-7,-0.064102862
13.253708,23,-1,-2,5,1,-1,-2,0,-0.064102862
13.253721,-46,-38,-6,-10,-1,-5,-4,-2,-0.064102862
13.275991,21,5,1,2,-2,-1,-1,1,-0.064102862
13.275998,-2,42,6,-4,2,1,0,1,-0.064102862
13.276002,-8,17,2,-1,1,-1,0,-3,-0.064102862
13.276004,3,-19,-8,-2,-2,-1,-2,-1,-0.064102862
13.296546,9,-11,-6,-5,-1,-2,-3,2,-0.064102862
13.296575,-4,18,6,0,-3,-1,0,1,-0.064102862
13.298202,-3,38,-11,-3,-4,-3,-3,-3,-0.064102862
13.298270,-1,-51,-4,3,2,1,0,-4,-0.064102862
13.311396,-10,-21,12,3,0,0,0,-4,-0.064102862
13.311422,7,5,3,3,0,-1,0,4,-0.064102862
13.314018,-3,18,11,4,0,-1,0,-1,-0.064102862
13.314025,1,20,-12,-8,-3,-2,0,-1,-0.064102862
13.334598,7,17,-6,5,-4,-2,-1,-1,-0.064102862
13.334632,-21,-6,-19,0,-4,-2,-4,-7,-0.064102862
13.337407,-2,23,26,-3,3,-1,-2,-2,-0.064102862
13.337419,6,-80,-4,-3,0,-2,-2,-1,-0.064102862
13.355530,6,11,-9,0,-1,0,0,1,-0.064102862
13.355547,-7,22,7,-4,-2,0,-1,-2,-0.064102862
13.366188,-1,-14,-10,-2,-2,-1,0,0,-0.064102862
13.366198,-10,24,8,2,-1,2,-2,-5,-0.064102862
13.371575,25,36,3,-2,2,-2,-1,0,-0.064102862
13.371593,-30,-29,-3,3,-2,-2,-2,-3,-0.064102862
13.373262,-16,-37,-4,-2,-1,-2,0,0,-0.064102862
13.373276,5,25,-2,1,2,0,0,0,-0.064102862
13.393998,2,-20,-1,5,-4,-1,-1,0,-0.064138918
13.394023,15,35,-16,-12,1,-6,0,1,-0.064138918
13.395458,-11,-59,24,6,4,10,0,1,-0.064138918
13.395473,-11,19,1,4,-3,-10,-2,-3,-0.064138918
13.416787,4,-16,-4,-4,-1,2,-1,-2,-0.064138918
13.416828,8,18,-1,-5,-5,-4,-3,0,-0.064138918
13.418167,-11,2,1,2,1,-1,-2,0,-0.064138918
13.418189,19,9,-3,-5,-2,3,-2,0,-0.064138918
13.430738,3,37,4,4,1,-1,-1,-1,-0.064138918
13.430746,21,-23,-6,-4,1,-1,-1,1,-0.064138918
13.437783,-41,-29,-18,-2,-2,-3,-2,-5,-0.064138918
13.437808,-11,-69,-15,-2,-7,-2,0,-2,-0.064138918
13.454136,3,-6,-1,-6,-3,-4,-3,0,-0.064138918
13.454154,8,29,17,4,2,1,2,-1,-0.064138918
13.455987,24,36,0,1,-2,-2,-2,0,-0.064138918
13.456000,-11,10,-6,1,1,0,-3,-1,-0.064138918
13.477269,-4,-2,-12,-7,-2,0,1,0,-0.064138918
13.477278,-3,-25,-2,3,0,1,-1,1,-0.064138918
13.477989,6,18,-3,-3,-4,-4,-1,-4,-0.064138918
13.478022,5,17,1,-7,0,0,0,4,-0.064138918
13.492804,-5,-2,2,1,2,0,2,2,-0.064138918
13.492821,16,10,5,-4,-2,0,-1,-1,-0.064138918
13.497847,3,-11,-2,0,-3,-3,-2,-1,-0.064138918
13.497862,15,42,2,-1,-2,0,-2,-4,-0.064138918
13.513969,-9,-65,-1,0,0,-1,-1,-1,-0.064138918
13.513992,-20,39,0,5,-2,0,0,-2,-0.064138918
13.515418,6,-20,-15,-5,-1,-2,-1,-2,-0.064138918
13.515432,-6,-3,-2,-3,-1,1,0,0,-0.064138918
13.536822,6,31,9,3,1,0,0,-2,-0.064138918
13.536882,2,-17,-18,-10,-4,-1,-1,-2,-0.064138918
13.539133,-11,3,21,-5,-4,-1,0,-2,-0.064138918
13.539152,-4,19,21,17,4,-1,2,1,-0.064138918
13.550774,-1,-18,-8,-5,0,-2,0,1,-0.064138918
13.550787,8,-1,-5,5,2,2,-2,-5,-0.064138918
13.557713,-3,-60,-28,-9,-3,-1,-3,-5,-0.064138918
13.557741,-5,27,-1,-4,-2,-2,-2,0,-0.064138918
13.573999,-3,1,0,-2,-1,-2,-2,-3,-0.064138918
13.574018,0,-3,-2,-4,-2,-1,-1,2,-0.064138918
13.575594,9,34,5,4,-1,-1,0,1,-0.064138918
13.575612,2,1,3,1,1,-2,1,-3,-0.064138918
13.596821,-2,14,0,1,-3,0,0,-4,-0.064138918
13.596853,-16,-10,-3,-1,1,-1,0,5,-0.064138918
13.598788,-23,-55,-6,-4,1,-2,-2,-1,-0.064138918
13.598801,22,-4,-8,6,0,-1,-2,-2,-0.064138918
13.610877,-21,-10,1,-9,0,0,-1,-3,-0.064138918
13.610902,-2,-9,10,10,-2,-4,0,-3,-0.064138918
13.617729,6,14,-5,-4,-2,-1,1,1,-0.064138918
13.617749,-8,-15,-10,-1,4,1,-1,-1,-0.064138918
13.634982,6,12,5,-6,-5,-3,-2,-1,-0.064138918
13.635042,-6,-8,-6,1,0,1,-1,-4,-0.064138918
13.636525,5,5,10,5,2,0,0,2,-0.064138918
13.636552,-11,0,-8,-5,-3,-1,-2,-3,-0.064138918
13.656502,6,31,-21,1,-1,-1,-1,0,-0.064278625
13.656520,-8,-31,23,-2,-4,0,-1,-1,-0.064278625
13.657974,7,32,-2,9,3,-1,0,-2,-0.064278625
13.657988,24,-25,4,-4,-2,-2,0,1,-0.064278625
13.671055,-47,-33,-4,2,0,-2,-1,-2,-0.064278625
13.671080,15,-51,-27,-9,-1,-2,-3,0,-0.064278625
13.677973,6,8,-6,-3,-3,0,0,-2,-0.064278625
13.678003,-5,16,7,2,-1,1,-2,-1,-0.064278625
13.695538,17,13,4,7,0,1,1,-3,-0.064278625
13.695545,-4,19,0,-2,0,-1,-2,2,-0.064278625
13.695549,-1,2,5,-2,1,-2,-2,0,-0.064278625
13.695551,-7,-3,-4,-5,0,-1,-2,-2,-0.064278625
13.716425,7,-3,4,-4,-2,-1,-1,0,-0.064278625
13.716438,-7,23,0,2,1,-1,1,-2,-0.064278625
13.718253,6,-30,-18,-12,-4,-2,-1,2,-0.064278625
13.718268,-11,20,35,5,2,-1,-1,-2,-0.064278625
13.731147,47,32,5,2,3,2,-1,3,-0.064278625
13.731169,-69,-51,-2,-1,1,-1,-2,-10,-0.064278625
13.737851,15,7,-10,-1,-4,-1,-1,0,-0.064278625
13.737879,-17,9,-16,-6,-4,-2,-1,-1,-0.064278625
13.754096,17,52,6,-3,-3,-2,-2,0,-0.064278625
13.754114,21,-65,-1,-3,0,0,-2,3,-0.064278625
13.756388,-8,-12,6,1,-2,-2,-1,0,-0.064278625
13.756402,-11,10,-7,2,-4,0,0,-1,-0.064278625
13.777014,-7,1,-2,-4,-1,-1,-1,0,-0.064278625
13.777024,29,62,-2,-2,4,-1,-1,1,-0.064278625
13.777941,-34,-30,9,4,2,1,-1,-4,-0.064278625
13.777948,11,-33,-13,2,-3,-1,-1,1,-0.064278625
13.790231,-8,-5,5,1,-1,-1,-2,-3,-0.064278625
13.790250,29,57,-25,-8,-6,0,-1,0,-0.064278625
13.799953,-6,-33,37,4,2,-2,-2,-2,-0.064278625
13.799964,18,2,0,-4,2,-2,-1,2,-0.064278625
13.814375,-21,-13,-6,0,0,-1,-1,-1,-0.064278625
13.814400,-4,42,4,-7,-4,0,1,-4,-0.064278625
13.815768,9,-20,-17,9,0,-2,-3,0,-0.064278625
13.815778,-17,-9,-15,-9,-4,-1,-1,-6,-0.064278625
13.836716,0,-10,-1,2,-1,-1,-1,0,-0.064278625
13.836738,-1,1,20,8,1,0,-1,-2,-0.064278625
13.838155,-7,23,-16,-12,0,1,0,1,-0.064278625
13.838164,-3,27,0,0,-2,-1,-1,-1,-0.064278625
13.850843,15,-46,-12,-1,0,-1,-2,-6,-0.064278625
13.850850,-26,-14,6,-1,1,1,1,7,-0.064278625
13.859592,33,18,-6,1,-5,-1,-1,0,-0.064278625
13.859602,-11,2,0,-5,1,-1,-1,-2,-0.064278625
13.874153,-9,25,4,-3,-3,-1,0,0,-0.064278625
13.874172,-21,-49,-1,1,-4,-3,-2,-5,-0.064278625
13.875645,1,15,11,-1,-1,-1,-1,0,-0.064278625
13.875660,28,55,-29,2,0,0,-1,0,-0.064278625
13.898891,-26,4,47,5,-2,-3,-2,-1,-0.064287640
13.898900,12,-38,-13,-4,0,0,-2,-3,-0.064287640
13.898903,0,20,13,3,0,0,0,0,-0.064287640
13.898906,1,-4,-5,-2,-4,-2,-2,-2,-0.064287640
13.919028,-1,17,-11,-3,-1,-1,-1,2,-0.064287640
13.919071,10,-2,-4,-2,-2,-1,-2,-1,-0.064287640
13.922059,-24,18,-9,2,3,-1,-2,-4,-0.064287640
13.922072,5,-41,5,2,0,0,0,1,-0.064287640
13.933949,0,-21,-8,-4,-3,-1,-1,0,-0.064287640
13.933968,2,7,0,-4,-1,0,-2,0,-0.064287640
13.935826,-11,3,-2,2,-1,-1,-1,-1,-0.064287640
13.935853,-9,-19,11,0,-1,-2,-2,0,-0.064287640
13.956513,7,-16,-11,-2,1,1,-1,0,-0.064287640
13.956532,-36,25,-3,1,0,0,-1,-3,-0.064287640
13.958484,19,-39,0,-3,-3,-1,-2,-2,-0.064287640
13.958500,-7,-13,-3,-1,-3,-1,-1,0,-0.064287640
13.970266,5,13,0,-3,-3,-1,-2,0,-0.064287640
13.970285,10,11,0,4,0,-1,-1,0,-0.064287640
13.981234,6,17,-4,-4,-2,-1,-1,0,-0.064287640
13.981242,-22,-15,10,2,0,0,1,-4,-0.064287640
13.994035,7,16,6,-5,-2,-1,1,3,-0.064287640
13.994053,3,-27,-4,4,1,1,-1,-1,-0.064287640
13.995457,-1,-9,-8,1,-3,-2,1,2,-0.064287640
13.995470,16,-3,-3,-2,-2,-2,-2,-2,-0.064287640
14.016754,-10,3,-9,-3,-3,0,-2,-5,-0.064287640
14.016778,2,8,1,-7,2,4,0,-1,-0.064287640
14.019348,15,52,7,11,0,-10,0,0,-0.064287640
14.019362,-31,-81,-1,0,0,0,-2,-1,-0.064287640
14.030653,0,-8,3,6,1,-3,-1,-1,-0.064287640
14.030708,28,0,-8,1,-2,-2,-2,1,-0.064287640
14.040522,4,24,-3,-7,-1,2,-2,-4,-0.064287640
14.040529,-17,-4,-2,-4,-2,-1,0,-1,-0.064287640
14.054125,-11,-12,3,-1,-1,-1,-3,-3,-0.064287640
14.054140,8,6,2,2,0,-2,-1,-1,-0.064287640
14.055652,10,14,-4,-6,-1,2,0,2,-0.064287640
14.055663,6,31,-6,1,-1,-3,-2,-1,-0.064287640
14.076543,10,-49,-15,-2,1,1,0,-1,-0.064287640
14.076565,-10,8,-3,1,-2,-2,-1,0,-0.064287640
14.078412,-10,-3,2,-3,1,-1,-1,-1,-0.064287640
14.078419,0,4,16,2,1,-1,-2,-2,-0.064287640
14.090760,7,1,-7,2,0,-2,-2,-3,-0.064287640
14.090793,-7,-13,4,0,-2,-4,-2,-3,-0.064287640
14.099528,3,15,-12,-7,-3,2,-1,4,-0.064287640
14.099535,4,-65,-7,-9,0,-1,0,1,-0.064287640
14.115469,-8,13,7,3,0,-1,-1,0,-0.064287640
14.115477,-5,6,1,2,0,-2,0,-2,-0.064287640
14.115549,0,-6,4,2,-1,1,0,-2,-0.064287640
14.115556,0,35,-3,-1,-1,0,0,0,-0.064287640
14.136747,-1,-8,-17,-8,-3,-1,-1,-2,-0.064287640
14.136776,33,95,30,14,4,1,1,-2,-0.064287640
14.138930,-14,-89,12,7,1,0,0,0,-0.064287640
14.138949,3,-30,-16,-2,-2,-2,-3,0,-0.064287640
14.150586,-27,-8,5,1,-1,0,-1,3,-0.064287640
14.150610,13,19,-8,-15,-4,-1,-1,-5,-0.064287640
14.161526,11,6,-8,1,1,-1,0,0,-0.064192999
14.161535,2,21,3,3,-1,-2,-1,-1,-0.064192999
14.174451,11,-6,-1,-4,-1,0,-2,-3,-0.064192999
14.174483,-16,-27,-4,-1,-2,-1,-1,1,-0.064192999
14.176602,-6,8,-4,-5,0,-1,-2,-3,-0.064192999
14.176612,-9,20,0,-5,-3,-1,-1,0,-0.064192999
14.196648,5,-12,-19,-2,-2,-1,-1,-2,-0.064192999
14.196676,-7,-58,25,-5,-5,-3,-2,-1,-0.064192999
14.200249,-7,6,2,1,6,1,0,0,-0.064192999
14.200264,11,19,2,0,-1,1,-1,-2,-0.064192999
14.219160,-10,27,11,3,-1,0,0,-1,-0.064192999
14.221957,16,11,-14,2,-2,-2,-1,1,-0.064192999
14.221971,-33,-8,-9,-11,-7,-5,-3,-7,-0.064192999
14.221974,27,28,6,2,0,-2,-2,-1,-0.064192999
14.234412,-19,22,2,0,1,-1,-3,1,-0.064192999
14.234445,4,-39,-13,-4,-4,-3,-1,-3,-0.064192999
14.236459,-14,-35,3,0,-2,0,-2,-2,-0.064192999
14.236473,4,-11,12,8,9,0,1,0,-0.064192999
14.256546,1,3,13,3,-1,1,-1,-2,-0.064192999
14.256567,6,12,-7,1,1,-1,-1,-1,-0.064192999
14.258307,-6,3,-2,-6,-3,0,0,2,-0.064192999
14.258325,-13,-24,-12,-6,-3,-1,-3,-4,-0.064192999
14.279651,44,28,-5,-1,-1,-2,0,2,-0.064192999
14.279684,-23,14,0,-1,0,-1,0,-2,-0.064192999
14.282049,10,-49,-12,-2,-3,-2,0,0,-0.064192999
14.282055,-15,6,-4,-4,-3,-1,-1,-2,-0.064192999
14.294421,2,4,7,4,-2,-2,-1,-1,-0.064192999
14.294453,-2,10,1,-2,0,0,-2,2,-0.064192999
14.296216,13,16,-6,-3,-2,-2,-2,-2,-0.064192999
14.296222,-13,-5,8,-4,-2,-3,-1,-2,-0.064192999
14.316474,-5,-17,-6,8,-1,-1,1,-1,-0.064192999
14.316484,-8,-10,3,8,2,0,0,-1,-0.064192999
14.318028,4,31,-11,-5,-1,0,-3,1,-0.064192999
14.318064,20,19,25,3,0,-1,0,0,-0.064192999
14.339256,-5,5,-6,-6,-3,-1,-1,-2,-0.064192999
14.339274,-34,-40,-7,-2,-1,-2,-2,-2,-0.064192999
14.341396,-4,-27,-2,2,1,-1,-1,-1,-0.064192999
14.341410,-3,13,-14,-4,-2,3,0,0,-0.064192999
14.354085,-2,-24,-2,-4,1,-3,-1,0,-0.064192999
14.354113,2,23,3,-4,3,6,0,0,-0.064192999
14.355895,0,10,4,-2,-3,-17,-1,-2,-0.064192999
14.355908,-16,-10,-18,-11,-8,1,-2,-2,-0.064192999
14.377787,-2,4,20,10,2,-2,-1,1,-0.064192999
14.377805,0,27,-6,-6,0,-1,-1,0,-0.064192999
14.378037,3,-77,2,6,1,3,1,-1,-0.064192999
14.378044,-1,57,14,-8,0,-1,-1,-1,-0.064192999
14.399351,4,-30,-14,-9,-4,-1,-1,-1,-0.064192999
14.399371,-8,15,-6,0,-1,-2,0,1,-0.064192999
14.400661,16,25,5,4,-1,2,-2,-1,-0.064192999
14.400667,-21,-25,-11,2,1,-5,-1,-1,-0.064192999
14.413809,12,9,-2,-2,-1,1,-2,-4,-0.064296651
14.413838,-7,-6,0,-8,-2,-4,-1,3,-0.064296651
14.420352,-8,52,-1,2,-2,2,-1,-3,-0.064296651
14.420369,7,-79,-9,-6,1,-1,-2,1,-0.064296651
14.443967,-9,-16,-6,-5,-2,-2,0,-2,-0.064296651
14.444044,-2,6,0,2,-2,0,-1,-2,-0.064296651
14.446115,0,28,-4,-3,0,-2,-2,-3,-0.064296651
14.446122,-5,22,15,2,0,-1,-2,0,-0.064296651
14.459410,6,-20,-5,-1,-1,-1,-3,0,-0.064296651
14.459438,10,58,-8,-10,-3,-2,-1,-1,-0.064296651
14.461569,2,30,1,-2,-4,1,-3,-4,-0.064296651
14.461577,6,-78,-18,6,1,-2,0,1,-0.064296651
14.473355,-1,-4,19,3,0,1,0,1,-0.064296651
14.473369,8,0,-9,4,-2,-1,-1,-1,-0.064296651
14.480641,-10,3,7,-3,0,-1,1,0,-0.064296651
14.480668,8,40,-1,-2,-3,-2,0,1,-0.064296651
14.497161,-15,4,-8,-8,-3,-3,-3,-2,-0.064296651
14.497192,2,-28,-7,-1,2,-2,-2,-3,-0.064296651
14.499947,26,2,-1,-3,-1,0,1,-1,-0.064296651
14.499956,-43,-29,4,5,-2,-3,-4,-5,-0.064296651
14.519424,4,-6,-7,-3,2,1,-2,0,-0.064296651
14.519459,-3,-5,5,3,0,0,-1,-2,-0.064296651
14.520681,8,4,-5,-2,-1,0,-1,3,-0.064296651
14.520701,2,71,7,-3,-1,0,-2,0,-0.064296651
14.533283,-3,-42,6,2,-3,-1,-2,-1,-0.064296651
14.533326,10,-23,1,-1,1,0,0,-2,-0.064296651
14.540198,-9,7,14,9,2,0,0,7,-0.064296651
14.540219,-14,6,-22,-2,-2,-1,-2,-1,-0.064296651
14.556635,-12,38,16,-2,-4,0,-1,-4,-0.064296651
14.556659,20,-14,1,-2,-2,-2,-2,-2,-0.064296651
14.559499,6,-10,-2,1,2,0,0,-1,-0.064296651
14.559506,10,6,-2,1,0,-1,-1,0,-0.064296651
14.578953,-9,-27,-8,-3,-1,1,0,1,-0.064296651
14.578960,-13,-1,-5,-1,-2,0,-2,-1,-0.064296651
14.580523,1,19,0,-5,-3,-3,-3,-3,-0.064296651
14.580556,6,-6,3,2,0,-1,-1,0,-0.064296651
14.593744,11,-1,-13,-2,0,-2,-1,-1,-0.064296651
14.593753,-8,-11,17,4,-1,0,-1,-2,-0.064296651
14.600005,-5,-28,-7,-2,2,-1,0,-2,-0.064296651
14.600019,47,18,2,0,0,-1,-1,1,-0.064296651
14.616490,-38,-2,-8,-2,0,0,-2,-2,-0.064296651
14.616513,6,35,-2,-2,-3,-1,-1,0,-0.064296651
14.619924,-18,-50,-13,-3,1,-1,-1,-3,-0.064296651
14.619937,1,-3,11,-5,-3,-2,-1,-3,-0.064296651
14.639094,23,22,7,7,1,-2,0,2,-0.064296651
14.639105,0,-21,-5,1,-1,-2,-1,0,-0.064296651
14.640519,8,20,3,-6,-1,-1,-1,-1,-0.064296651
14.640526,7,9,-9,-1,-2,-1,-1,-1,-0.064296651
14.655065,-3,35,-13,-6,2,0,-1,-1,-0.064296651
14.655079,8,-2,18,5,0,-1,-1,0,-0.064296651
14.660308,-12,-1,-20,-3,-3,0,-2,-3,-0.064296651
14.660330,-9,-15,28,15,5,-1,-2,0,-0.064296651
14.676577,8,34,-3,-1,-1,-1,1,-1,-0.064391292
14.676595,-28,-26,-8,-7,-4,0,-3,-4,-0.064391292
14.678021,4,9,-7,-3,-2,-1,-1,-2,-0.064391292
14.678057,2,25,-1,-3,-2,0,-1,-1,-0.064391292
14.699172,-23,-9,-9,1,-1,-2,-1,-4,-0.064391292
14.699196,8,-5,-1,1,0,-2,0,4,-0.064391292
14.701776,-1,2,9,0,-1,-2,-3,-3,-0.064391292
14.701790,12,-26,-8,-5,-2,0,1,3,-0.064391292
14.713746,8,25,-1,-2,1,-1,-1,-3,-0.064391292
14.713778,-7,-9,-6,0,0,-2,-1,0,-0.064391292
14.720352,-1,19,10,3,-1,0,-2,0,-0.064391292
14.720370,13,-51,-5,3,2,0,0,0,-0.064391292
14.736810,6,-35,4,2,-3,-2,-1,-1,-0.064391292
14.737046,-11,-13,-6,-10,2,1,-1,-4,-0.064391292
14.738184,-4,28,9,3,-1,-1,-2,0,-0.064391292
14.738205,8,39,7,-1,0,0,0,-1,-0.064391292
14.759001,-4,-14,-18,-2,-1,-1,-2,1,-0.064391292
14.759019,0,-4,-1,-1,-1,0,0,-1,-0.064391292
14.760597,-14,-17,1,-4,-4,-2,-1,-4,-0.064391292
14.760615,2,-16,-11,-4,-4,-2,-1,2,-0.064391292
14.781514,-7,-9,2,-1,1,-1,-1,-1,-0.064391292
14.781526,2,4,2,-2,-2,-1,-2,1,-0.064391292
14.783404,4,5,-9,3,0,-1,0,0,-0.064391292
14.783427,-19,7,-2,-8,-1,-2,-1,-2,-0.064391292
14.796644,5,-6,5,9,3,0,1,1,-0.064391292
14.796673,16,31,4,1,-3,-2,-4,-1,-0.064391292
14.797959,-9,-17,2,-6,0,-1,0,0,-0.064391292
14.797966,-12,-45,-14,-2,-1,-2,-2,-4,-0.064391292
14.819211,14,13,-1,0,-2,-2,0,0,-0.064391292
14.819234,0,14,0,-4,0,0,-2,-3,-0.064391292
14.820842,4,17,-9,1,0,-1,0,-1,-0.064391292
14.820855,-2,21,8,-2,-3,-2,-1,-2,-0.064391292
14.832744,-10,-6,4,-7,-1,-2,0,-3,-0.064391292
14.832777,-5,1,0,2,-2,-3,-1,1,-0.064391292
14.843654,1,-30,-2,-3,-2,-1,-3,1,-0.064391292
14.843661,-6,-12,-19,1,0,-1,-3,-2,-0.064391292
14.859073,7,16,5,-7,-4,1,-2,-1,-0.064391292
14.859084,-12,-15,-9,1,2,0,0,-3,-0.064391292
14.859088,24,18,16,2,-4,-3,-1,-1,-0.064391292
14.859091,-30,-32,-11,-11,-1,-1,-1,-3,-0.064391292
14.879088,16,22,13,5,1,-1,-1,0,-0.064391292
14.879116,-12,5,5,1,-1,1,-1,-1,-0.064391292
14.880456,9,10,-3,6,3,1,1,2,-0.064391292
14.880463,7,27,-3,0,-2,0,0,-1,-0.064391292
14.892685,-4,-19,3,-8,-3,-1,-2,0,-0.064391292
14.892722,4,-5,6,1,0,1,1,1,-0.064391292
14.904792,-10,7,2,-2,-3,-2,-1,-2,-0.064391292
14.904811,-8,33,-2,0,-1,-2,-3,-1,-0.064391292
14.917336,-9,-98,-11,-6,-3,-3,-1,-4,-0.064391292
14.917369,-1,-2,-13,-1,-3,-2,0,1,-0.064391292
14.920190,13,4,9,2,3,0,-1,-2,-0.064391292
14.920204,-29,26,23,7,3,-1,-1,-6,-0.064391292
14.939058,2,9,-9,5,1,0,1,6,-0.064179478
14.939075,5,1,-2,-3,-1,-2,-1,-2,-0.064179478
14.940707,-16,-23,-14,-7,-3,0,-1,-2,-0.064179478
14.940727,12,64,3,-1,-1,-1,0,-1,-0.064179478
14.952805,-1,-70,-5,-7,-1,0,-1,-5,-0.064179478
14.952902,3,-15,-19,-4,-3,-3,0,0,-0.064179478
14.962391,-28,18,28,7,3,0,0,1,-0.064179478
14.962404,5,-5,2,-3,2,1,0,2,-0.064179478
14.977123,25,56,8,3,-1,0,-1,5,-0.064179478
14.977154,-7,-8,-8,4,1,-1,-1,-3,-0.064179478
14.979637,19,-10,-15,-10,-2,-3,-2,-2,-0.064179478
14.979643,-4,-6,0,0,-2,-1,0,2,-0.064179478
14.998990,-15,28,-6,0,-2,-2,0,-2,-0.064179478
14.999047,5,17,7,-2,0,-1,-1,-2,-0.064179478
15.000559,-8,-76,-11,-1,-1,-3,-3,-2,-0.064179478
15.000593,8,-17,0,-2,-2,-1,-2,-2,-0.064179478
15.013627,-5,12,5,-1,0,1,-1,0,-0.064179478
15.013643,13,25,2,-2,-3,-1,-3,-4,-0.064179478
15.029718,-5,10,-2,1,1,0,-1,0,-0.064179478
15.029755,10,-6,-5,-3,1,0,-3,-2,-0.064179478
15.036002,-7,-14,-8,0,-1,-2,-2,-7,-0.064179478
15.036081,1,-15,14,3,1,-2,1,7,-0.064179478
15.037508,3,9,-6,-5,-3,-1,-1,-2,-0.064179478
15.037520,9,22,-2,0,-1,-2,0,-1,-0.064179478
15.060892,1,-31,-8,-3,-4,-2,-1,-5,-0.064179478
15.060902,-4,-2,2,0,1,0,-2,-1,-0.064179478
15.060905,-11,-24,-11,2,-1,-1,-1,-2,-0.064179478
15.060908,18,2,-18,-2,-3,-1,0,1,-0.064179478
15.080871,-20,6,20,-4,0,0,-2,0,-0.064179478
15.080894,-6,-13,-7,1,-1,0,-1,-5,-0.064179478
15.082274,18,19,-11,1,-4,0,-2,0,-0.064179478
15.082281,15,-42,15,-8,1,-3,-1,-1,-0.064179478
15.096183,-28,13,-1,-3,-2,-2,-3,-2,-0.064179478
15.096211,5,0,6,-1,1,2,0,1,-0.064179478
15.098697,-18,16,-2,-5,-2,-2,-1,-2,-0.064179478
15.098710,11,7,-2,2,-1,-1,-2,0,-0.064179478
15.118708,14,19,-6,-1,-1,-2,1,2,-0.064179478
15.118740,-14,-21,-3,0,0,-4,-2,-4,-0.064179478
15.121397,-7,7,0,-4,0,0,0,-1,-0.064179478
15.121412,0,-3,-3,2,-2,-1,-1,1,-0.064179478
15.141001,-1,-4,-2,-1,-1,-1,-1,-1,-0.064179478
15.141029,-8,6,0,-2,1,-1,-1,-2,-0.064179478
15.141781,1,-10,2,0,-3,-1,0,2,-0.064179478
15.141803,-11,40,6,-1,-2,-1,0,-2,-0.064179478
15.155869,3,-77,-18,-2,0,-1,-1,-1,-0.064179478
15.155890,-17,11,2,7,-2,-4,-1,-3,-0.064179478
15.157229,35,9,7,1,2,1,1,6,-0.064179478
15.157245,-26,13,18,3,6,0,0,-3,-0.064179478
15.178448,27,73,-9,-2,-3,0,0,1,-0.064125398
15.178472,-16,-24,14,-5,-2,0,0,-3,-0.064125398
15.179766,-20,-46,-9,-2,-3,-1,-2,-3,-0.064125398
15.179776,1,-27,-9,-2,-4,-2,-1,-1,-0.064125398
15.202644,12,26,2,2,0,0,0,0,-0.064125398
15.202664,3,-11,-17,-4,-2,-1,-1,0,-0.064125398
15.202667,6,45,16,1,-1,-2,0,-3,-0.064125398
15.202670,-1,-29,-16,-2,-1,0,1,-2,-0.064125398
15.219283,-12,5,5,-2,-3,-3,-1,-2,-0.064125398
15.219302,15,1,-10,-7,-4,-2,-3,5,-0.064125398
15.219308,-6,6,-1,5,1,0,-1,-2,-0.064125398
15.219314,1,-1,15,5,2,0,0,3,-0.064125398
15.238743,-32,-43,-4,2,-2,-2,-3,-2,-0.064125398
15.238771,24,27,-15,-1,1,0,-2,-9,-0.064125398
15.239144,-5,-4,8,-6,-3,-2,-2,1,-0.064125398
15.239160,-5,-35,-16,-6,-2,0,-1,-1,-0.064125398
15.261019,14,23,21,6,3,2,-1,0,-0.064125398
15.261051,-7,2,3,2,-1,-1,1,0,-0.064125398
15.263542,3,0,-9,-7,-2,-3,-3,-2,-0.064125398
15.263554,0,16,2,13,-1,-1,-3,1,-0.064125398
15.275988,-2,-1,-6,-1,0,0,-1,0,-0.064125398
15.276008,1,-1,4,-3,2,1,0,-1,-0.064125398
15.276756,12,-5,2,0,-2,-2,-1,-3,-0.064125398
15.276761,-44,-3,-17,-4,-1,0,0,0,-0.064125398
15.298694,-35,-31,-6,-2,-1,-2,-1,-2,-0.064125398
15.298720,9,-28,4,0,-3,-2,-1,0,-0.064125398
15.299341,-11,35,7,-1,0,0,-1,-3,-0.064125398
15.299364,17,9,-3,-5,-2,-2,1,1,-0.064125398
15.320886,9,4,-5,-8,-1,-1,-1,0,-0.064125398
15.320906,-5,43,-4,2,0,-1,-2,-2,-0.064125398
15.322535,10,-17,2,5,0,0,-1,-1,-0.064125398
15.322543,-40,-42,-7,-8,-1,-2,-4,-6,-0.064125398
15.336038,17,-21,-10,-3,-1,-2,-1,0,-0.064125398
15.336064,1,-13,4,-5,-4,-3,-2,-1,-0.064125398
15.338298,7,19,-5,-6,0,-2,-1,0,-0.064125398
15.338311,13,40,-2,2,-2,-2,-2,-1,-0.064125398
15.359415,4,-2,16,1,2,-3,-3,-1,-0.064125398
15.359432,-50,-37,-2,-2,0,1,0,-3,-0.064125398
15.359435,15,-14,-9,-7,-3,0,-2,-4,-0.064125398
15.359437,28,14,-2,5,-1,-1,1,0,-0.064125398
15.380856,-10,13,-4,-3,-1,-1,-2,-3,-0.064125398
15.380888,27,34,8,6,-2,-1,0,-1,-0.064125398
15.383269,-16,46,1,-6,0,-1,-2,-3,-0.064125398
15.383276,-5,-57,8,-1,-2,-1,-1,-1,-0.064125398
15.395850,8,6,-7,0,-1,0,1,2,-0.064125398
15.395883,21,3,-4,-2,0,-1,0,1,-0.064125398
15.399056,-31,4,-14,3,-2,0,-3,-2,-0.064125398
15.399062,21,19,29,2,0,-1,1,-1,-0.064125398
15.420165,-8,16,-8,3,-1,0,-1,-1,-0.064125398
15.420179,0,-1,7,-4,-1,-1,-2,-1,-0.064125398
15.420182,-1,-1,0,-3,0,-2,-1,0,-0.064125398
15.420186,3,-23,-7,3,0,-3,-1,0,-0.064125398
15.441154,9,17,-11,0,-3,1,-1,-1,-0.064382277
15.441178,2,-28,-21,-8,-3,-3,1,0,-0.064382277
15.442226,-6,-29,28,6,-1,0,0,-3,-0.064382277
15.442232,-13,51,-6,2,0,-1,-1,-3,-0.064382277
15.455884,12,-2,0,-2,0,-3,0,0,-0.064382277
15.455904,16,-19,-13,-1,-1,-1,-2,0,-0.064382277
15.457792,-24,-25,-5,-4,-1,-1,-1,-1,-0.064382277
15.457804,12,0,-10,-6,-3,-2,-3,-2,-0.064382277
15.478502,-13,-2,8,0,0,-1,0,-1,-0.064382277
15.478526,-20,18,-1,6,-1,1,-2,-3,-0.064382277
15.479871,20,6,1,-1,-1,-1,1,3,-0.064382277
15.479886,-22,-12,-5,-7,-3,-3,-3,-3,-0.064382277
15.500962,4,-44,-1,-8,0,-1,-1,-4,-0.064382277
15.500992,-22,-7,1,1,-1,0,1,-4,-0.064382277
15.501706,-23,8,5,7,2,0,-1,-1,-0.064382277
15.501726,5,26,5,0,-3,0,-1,0,-0.064382277
15.515914,15,13,4,1,-1,1,0,1,-0.064382277
15.515936,-5,2,0,-4,-4,-2,-1,-1,-0.064382277
15.516983,8,-13,-15,-3,-2,0,0,-1,-0.064382277
15.516997,3,-4,-7,-3,-1,-1,0,0,-0.064382277
15.538676,-4,24,-1,-2,-2,-1,-1,0,-0.064382277
15.538763,-2,-51,-3,-4,-1,0,0,0,-0.064382277
15.539727,13,74,3,5,1,-1,-1,0,-0.064382277
15.539749,-7,-57,-12,-3,0,0,-1,-2,-0.064382277
15.562374,-5,-19,7,6,0,0,-2,-2,-0.064382277
15.562383,-39,11,2,-7,-1,-3,-2,-5,-0.064382277
15.562386,24,-3,-10,2,-2,-2,-2,-1,-0.064382277
15.562389,5,-4,1,-4,-3,-2,0,3,-0.064382277
15.576175,-5,23,-5,-2,0,-1,0,-1,-0.064382277
15.576204,18,43,-2,0,-1,-2,-1,-1,-0.064382277
15.578388,-5,-96,-5,-2,-3,-2,0,0,-0.064382277
15.578397,1,12,-3,-1,-1,1,0,-4,-0.064382277
15.598756,-2,30,13,1,-2,-1,0,1,-0.064382277
15.598779,10,-61,-2,-4,0,-1,-2,-2,-0.064382277
15.599370,7,9,-6,-6,0,0,1,-5,-0.064382277
15.599391,-32,-22,-5,-3,-1,-2,-1,4,-0.064382277
15.621355,-21,5,-1,-8,0,-3,0,-2,-0.064382277
15.622493,12,6,2,5,0,0,1,1,-0.064382277
15.622504,-11,39,7,2,-2,-2,1,-1,-0.064382277
15.622511,15,-3,-9,5,3,-1,-2,-2,-0.064382277
15.636048,-2,-49,-1,0,-2,-1,-1,-2,-0.064382277
15.636071,28,27,6,1,-2,0,0,-1,-0.064382277
15.636901,-23,-21,-5,-2,0,-1,-1,0,-0.064382277
15.638523,-2,28,4,0,0,-1,0,-2,-0.064382277
15.658441,5,19,-1,-5,-3,-1,-2,-1,-0.064382277
15.658451,-3,41,-5,0,-1,-2,0,0,-0.064382277
15.659237,-4,-51,3,-4,-2,-2,-1,-3,-0.064382277
15.659244,-8,1,-3,2,0,1,-1,-1,-0.064382277
15.680842,19,4,-3,-2,0,0,-1,-1,-0.064382277
15.680859,-35,-57,-4,-6,-2,-2,-2,-1,-0.064382277
15.682760,2,64,-3,0,1,0,-1,-1,-0.064382277
15.682774,3,-79,5,-2,0,0,-1,-2,-0.064382277
15.695917,-8,-22,8,7,1,0,-1,-2,-0.064107372
15.695941,7,59,-1,-4,-3,0,-1,0,-0.064107372
15.697104,-4,-52,-5,-1,-3,-2,-2,-2,-0.064107372
15.697115,4,-4,-17,-4,-2,0,0,-1,-0.064107372
15.720985,19,10,18,-3,-2,-1,-1,-2,-0.064107372
15.721008,-9,8,8,5,1,-1,0,3,-0.064107372
15.721014,-8,-5,8,-4,1,-2,-1,-4,-0.064107372
15.721020,-5,20,1,-1,-1,0,0,1,-0.064107372
15.741425,24,15,-20,-8,-3,-2,-2,0,-0.064107372
15.741444,-20,12,4,-1,-1,-1,-2,-3,-0.064107372
15.743172,-6,-88,-12,-2,-1,0,-1,-5,-0.064107372
15.743179,21,28,4,-4,-3,-3,-2,5,-0.064107372
15.755342,-39,-11,-6,7,0,1,1,-4,-0.064107372
15.755366,15,8,1,1,-3,-1,-2,-1,-0.064107372
15.763682,-11,40,-9,-14,1,-3,-1,1,-0.064107372
15.763706,-11,-26,2,-2,-1,-1,-3,-6,-0.064107372
15.778794,3,2,-3,7,-1,2,0,1,-0.064107372
15.778825,-12,-57,-3,0,1,1,-1,-1,-0.064107372
15.780410,3,15,3,4,-1,-1,0,1,-0.064107372
15.780420,9,26,0,-8,-3,-1,-1,-1,-0.064107372
15.801872,-4,-36,-1,-2,-3,-3,-2,1,-0.064107372
15.801892,-9,-17,0,1,2,-1,0,1,-0.064107372
15.802637,2,37,-10,-7,-4,-1,-2,-1,-0.064107372
15.802665,30,40,-17,2,-2,-2,-2,-2,-0.064107372
15.815973,-1,-2,32,-3,2,-1,-1,-3,-0.064107372
15.816009,-17,-18,6,1,0,1,-1,-3,-0.064107372
15.823498,5,9,3,-3,-2,0,1,-1,-0.064107372
15.823522,-12,20,-7,1,-2,-2,-1,3,-0.064107372
15.838516,-3,-19,-16,-5,-3,-2,-1,-2,-0.064107372
15.838538,7,53,2,-9,6,-3,1,-1,-0.064107372
15.841346,-25,-90,-4,2,-2,-2,0,-1,-0.064107372
15.841360,15,6,6,0,0,-1,0,-1,-0.064107372
15.860815,11,26,-11,-9,1,-1,-1,1,-0.064107372
15.860825,-5,10,2,2,-3,0,-3,-2,-0.064107372
15.861714,15,51,11,4,0,0,0,-2,-0.064107372
15.861974,-24,-28,7,0,0,0,0,-4,-0.064107372
15.875573,-5,-8,-7,-2,-4,0,0,0,-0.064107372
15.875637,9,14,-12,5,-2,0,0,1,-0.064107372
15.883939,24,22,15,-4,2,-1,0,1,-0.064107372
15.883971,-5,29,12,1,-3,-2,-2,-1,-0.064107372
15.898376,-31,-69,-11,2,-2,-3,-1,-1,-0.064107372
15.898400,12,-12,-12,-7,-2,-2,-2,-4,-0.064107372
15.900251,-15,-7,2,2,1,-1,-2,1,-0.064107372
15.900264,18,33,13,4,0,0,1,-1,-0.064107372
15.921264,-12,47,-20,2,0,0,1,-1,-0.064107372
15.921277,1,-41,31,1,-2,0,0,0,-0.064107372
15.921608,13,16,-9,-1,-2,-2,-2,1,-0.064107372
15.921615,2,39,9,2,-1,0,0,-1,-0.064107372
15.935584,9,-23,-18,1,-2,0,0,-2,-0.064107372
15.935623,1,-72,6,4,0,1,0,1,-0.064107372
15.943931,4,5,-4,2,0,1,-1,0,-0.064107372
15.943965,-15,2,3,0,-4,-1,-1,-2,-0.064107372
15.958471,9,15,3,-3,1,-1,-2,0,-0.064319186
15.958489,10,48,-16,-8,-5,-1,1,0,-0.064319186
15.960044,-2,-13,8,-2,-2,1,1,-1,-0.064319186
15.960052,-6,-37,1,5,1,-1,-1,-2,-0.064319186
15.983078,-9,27,2,4,-1,-1,0,-3,-0.064319186
15.983085,4,-13,-7,-3,1,-1,0,0,-0.064319186
15.983088,7,64,-7,-2,-1,-2,-1,4,-0.064319186
15.983091,-32,-78,-2,-5,-1,-1,-3,-4,-0.064319186
15.997614,10,-10,8,-2,-3,-2,-3,-2,-0.064319186
15.997667,-23,13,-9,2,1,0,0,-4,-0.064319186
16.003567,-7,-23,-14,-5,-2,-2,0,-1,-0.064319186
16.003586,14,36,4,-3,1,0,2,-2,-0.064319186
16.018667,-10,40,10,-3,1,1,0,2,-0.064319186
16.018687,4,-22,2,4,-1,-1,1,1,-0.064319186
16.020159,-3,-2,-4,5,2,0,-2,-1,-0.064319186
16.020172,4,-34,-10,-4,-1,-2,-2,1,-0.064319186
16.041381,-1,-8,3,-1,-1,-2,-1,-1,-0.064319186
16.041473,6,21,-11,-4,-1,0,-3,1,-0.064319186
16.043781,-8,-15,8,3,1,0,0,-1,-0.064319186
16.043792,-4,1,4,-5,0,-3,-2,-2,-0.064319186
16.055450,19,16,-5,-1,-1,0,-1,1,-0.064319186
16.055476,5,-8,1,-2,-1,-2,-2,-2,-0.064319186
16.063951,4,40,6,6,-2,0,0,0,-0.064319186
16.063978,-23,-100,-12,-2,0,-3,-3,-5,-0.064319186
16.078561,1,2,3,-1,-1,-2,0,-2,-0.064319186
16.078591,6,-16,-8,-3,-3,-4,-2,-1,-0.064319186
16.079143,1,6,6,-2,-4,-1,-1,-2,-0.064319186
16.081068,7,29,-7,-7,-2,-2,-1,0,-0.064319186
16.100863,22,31,-8,5,0,1,-1,1,-0.064319186
16.100882,-23,51,11,-2,1,-1,1,1,-0.064319186
16.103436,10,-80,-6,5,-1,-1,0,-2,-0.064319186
16.103449,-1,32,-8,-3,-5,-2,-3,-2,-0.064319186
16.124222,-3,-23,2,-6,2,-1,-1,0,-0.064319186
16.124272,3,2,0,-1,-2,-1,-1,-3,-0.064319186
16.125090,-3,14,-3,-7,2,-2,-2,0,-0.064319186
16.125129,6,24,-1,-3,0,1,-1,-1,-0.064319186
16.138418,-6,-20,6,4,0,-2,0,0,-0.064319186
16.138431,2,7,-1,-2,-1,2,1,-1,-0.064319186
16.139093,-6,17,-2,-2,0,-1,-1,-2,-0.064319186
16.139100,36,17,6,-1,1,-1,3,2,-0.064319186
16.160929,-33,-88,-13,1,2,-1,-2,-6,-0.064319186
16.160952,21,57,12,3,-1,0,-2,2,-0.064319186
16.162956,-19,-44,-6,-2,-2,-1,-1,-3,-0.064319186
16.162969,9,39,9,-3,-2,-1,0,2,-0.064319186
16.184736,15,7,-5,-4,-5,-3,-1,2,-0.064319186
16.184747,-23,-39,0,2,1,-3,-3,-1,-0.064319186
16.184992,12,2,-7,0,1,-1,-1,-2,-0.064319186
16.185048,-2,-16,-4,-2,-3,0,0,1,-0.064319186
16.200710,-16,9,5,1,-4,-1,-1,-3,-0.064233559
16.200717,8,-13,0,0,-2,0,1,0,-0.064233559
16.200720,-26,-27,7,-3,-2,-2,-2,-4,-0.064233559
16.200723,-7,-14,-6,3,2,-2,-1,1,-0.064233559
16.221050,13,28,6,-3,1,-1,-1,1,-0.064233559
16.221088,-9,9,-13,-4,-3,-2,-2,-3,-0.064233559
16.221726,3,15,-17,-4,-3,-2,-1,2,-0.064233559
16.221744,-1,-33,16,1,1,0,0,-4,-0.064233559
16.244884,-18,-9,-5,-7,-2,-1,-2,0,-0.064233559
16.244916,1,35,7,7,2,-3,-1,0,-0.064233559
16.247127,3,-65,-6,-4,1,-2,1,-1,-0.064233559
16.247134,-6,-5,-15,1,-4,-1,-2,-1,-0.064233559
16.258550,15,58,9,1,-1,-1,0,1,-0.064233559
16.258574,3,-28,-6,-3,-2,0,0,-1,-0.064233559
16.260643,-2,47,14,2,-1,0,-1,1,-0.064233559
16.260649,3,-9,-12,0,-1,-1,0,0,-0.064233559
16.280822,5,8,9,-2,0,-1,-2,-1,-0.064233559
16.280830,-4,-36,-9,-4,-3,-3,-2,0,-0.064233559
16.281511,-4,42,7,1,0,-1,-2,-2,-0.064233559
16.281519,-4,-83,3,8,2,0,-1,1,-0.064233559
16.304236,11,14,-9,-1,-1,-1,0,0,-0.064233559
16.304258,-16,-29,1,-2,-3,-2,-3,-3,-0.064233559
16.305922,3,22,4,-6,-4,-4,-2,1,-0.064233559
16.305936,3,31,5,1,-2,-1,0,-2,-0.064233559
16.318523,4,-1,-1,4,-1,-1,-1,-2,-0.064233559
16.318550,-16,-16,-5,-1,-1,-2,-2,-1,-0.064233559
16.320745,7,-6,-11,-3,-2,0,1,0,-0.064233559
16.320755,-25,17,-2,-6,-3,-2,-3,-1,-0.064233559
16.340995,-6,-20,3,-3,0,0,-1,-2,-0.064233559
16.341007,20,58,5,0,-1,1,1,2,-0.064233559
16.341605,-10,-53,0,4,1,1,-1,-2,-0.064233559
16.341644,4,28,0,-1,3,-1,0,-1,-0.064233559
16.364202,-7,-5,1,-1,-1,-1,0,-2,-0.064233559
16.364226,17,14,-8,-9,-2,-1,-1,-4,-0.064233559
16.365922,10,5,1,-4,0,-1,-1,-1,-0.064233559
16.365935,0,1,-3,10,1,0,1,-1,-0.064233559
16.378414,-7,2,-5,-4,-5,-2,0,0,-0.064233559
16.378438,22,30,16,4,1,0,0,2,-0.064233559
16.380103,-27,-2,-24,-5,-2,0,-1,-1,-0.064233559
16.380117,-9,-83,-2,-2,-4,-2,-1,0,-0.064233559
16.402731,4,-5,18,2,2,0,-4,-3,-0.064233559
16.402752,12,14,0,5,1,-1,0,1,-0.064233559
16.402758,16,36,-1,0,-1,0,1,-2,-0.064233559
16.402764,-23,35,0,-6,-1,-2,-1,-3,-0.064233559
16.424344,-5,-11,-9,-8,-4,-1,1,1,-0.064233559
16.424376,5,-24,-2,-3,1,0,-3,-2,-0.064233559
16.427062,10,3,3,2,3,0,-1,0,-0.064233559
16.427068,6,14,9,0,0,-1,-2,-1,-0.064233559
16.438441,-6,3,-2,-1,1,-1,-1,-2,-0.064233559
16.438465,-7,-13,-1,-2,0,-2,-1,0,-0.064233559
16.440391,-9,-34,-2,-1,-2,-3,-1,0,-0.064233559
16.440405,19,31,-9,-2,0,0,-1,-4,-0.064233559
16.461200,16,5,10,1,-1,-1,-1,3,-0.064202009
16.461232,-51,-22,-12,-6,-4,-4,-4,-7,-0.064202009
16.463982,13,16,18,3,0,-1,1,1,-0.064202009
16.463990,6,25,-2,0,1,-1,-1,-1,-0.064202009
16.484595,0,-24,-1,0,1,0,-1,-4,-0.064202009
16.484627,9,-7,-6,1,0,0,0,2,-0.064202009
16.485106,8,2,7,-5,-2,-1,0,-1,-0.064202009
16.485128,-24,44,1,2,-1,0,0,-1,-0.064202009
16.498734,-4,-60,-17,-2,-2,0,-2,-4,-0.064202009
16.498848,2,-10,1,1,0,-1,-1,-2,-0.064202009
16.499373,-6,0,-6,-1,0,0,-1,-2,-0.064202009
16.499394,14,18,5,-3,2,1,-1,3,-0.064202009
16.520971,-3,16,-5,5,0,0,-2,0,-0.064202009
16.520993,4,9,-2,-2,-3,1,-1,-1,-0.064202009
16.521759,-3,-19,1,2,-3,-2,-2,-3,-0.064202009
16.521764,5,13,2,5,0,-1,1,2,-0.064202009
16.544068,-6,-32,-9,-5,-2,-1,-1,0,-0.064202009
16.544105,-5,-4,-1,-4,-1,-1,0,-2,-0.064202009
16.544735,-7,37,0,3,0,-1,-2,-2,-0.064202009
16.544742,-6,-35,-7,-10,-5,-1,-2,1,-0.064202009
16.560482,2,35,-26,-2,-7,-2,-2,-2,-0.064202009
16.560493,-5,-14,32,8,5,0,1,-1,-0.064202009
16.560496,7,0,10,6,2,0,0,2,-0.064202009
16.560498,10,14,-5,-4,-2,-1,-1,-1,-0.064202009
16.580941,-29,-30,3,-2,0,-1,-1,-2,-0.064202009
16.580972,0,39,-7,-4,-5,-3,-1,-1,-0.064202009
16.582016,0,-12,-8,-11,-3,-1,-3,-2,-0.064202009
16.582030,20,22,2,0,1,-1,-1,-1,-0.064202009
16.605884,-3,-48,9,6,1,-1,1,3,-0.064202009
16.605898,4,-8,-3,-2,-1,-1,-1,0,-0.064202009
16.605901,8,5,0,-2,-2,-2,0,0,-0.064202009
16.605903,-13,-7,-4,-2,-3,-2,-2,-2,-0.064202009
16.618143,31,42,-10,-8,-1,0,0,1,-0.064202009
16.618175,-14,-34,-1,-2,-1,-1,-2,-4,-0.064202009
16.625917,11,58,5,5,3,-1,-1,0,-0.064202009
16.625936,-11,-78,-4,1,-1,-1,-2,-1,-0.064202009
16.641171,-6,37,1,1,1,-1,0,-1,-0.064202009
16.641194,15,-4,-19,-7,-4,-2,1,0,-0.064202009
16.642091,-8,16,-9,-6,-4,-1,-1,0,-0.064202009
16.642101,-9,-70,-3,2,-1,0,-2,-1,-0.064202009
16.664631,-9,24,18,4,3,-1,-2,1,-0.064202009
16.664663,7,8,-7,-2,-2,1,-2,-2,-0.064202009
16.667699,14,-10,1,4,-1,0,0,1,-0.064202009
16.667711,-29,37,-1,-4,0,-2,-2,-4,-0.064202009
16.678700,-4,-2,-5,0,-2,-1,-1,-2,-0.064202009
16.678733,-13,-8,-18,-3,-1,1,1,0,-0.064202009
16.681095,3,-2,19,3,2,-1,-2,0,-0.064202009
16.681105,2,29,-7,-5,-1,-3,-4,-6,-0.064202009
16.700951,-3,-81,-3,-7,-3,-1,-2,0,-0.064202009
16.700978,-7,-38,1,3,-2,-1,-1,-2,-0.064202009
16.703333,-2,-9,-10,-7,0,-2,-2,-2,-0.064202009
16.703350,12,34,15,5,0,0,0,-1,-0.064202009
16.724226,-5,35,2,-3,-1,0,0,-3,-0.063972170
16.724244,2,5,6,4,-2,-2,-4,-1,-0.063972170
16.725536,6,-5,-7,1,-2,-1,-2,-2,-0.063972170
16.725559,-8,-25,-5,-2,-3,-2,-2,-3,-0.063972170
16.737956,-27,4,0,-5,-3,-3,-1,-3,-0.063972170
16.737981,14,-10,0,1,-2,1,1,1,-0.063972170
16.753638,-1,-12,-5,-2,-3,0,0,-2,-0.063972170
16.753663,-13,21,-6,-1,-1,-2,0,2,-0.063972170
16.761027,19,18,4,-2,-2,-1,-2,1,-0.063972170
16.761045,-16,21,1,-6,0,2,0,1,-0.063972170
16.762898,9,4,-10,1,-4,-2,-2,0,-0.063972170
16.762911,-9,-36,9,0,1,1,1,-1,-0.063972170
16.784052,6,20,4,1,0,-3,-1,-1,-0.063972170
16.784075,1,9,-2,2,3,-2,-2,0,-0.063972170
16.786943,-3,-2,10,4,-1,1,4,-1,-0.063972170
16.786957,15,-16,2,5,0,0,0,2,-0.063972170
16.807641,-1,4,-16,-12,-2,0,-1,1,-0.063972170
16.807648,3,30,12,6,0,1,1,-4,-0.063972170
16.807651,1,-32,-3,-1,-1,-1,-2,7,-0.063972170
16.807654,-5,-5,-2,-6,-2,-1,-1,0,-0.063972170
16.822591,-24,-18,-11,2,-2,-1,-1,-3,-0.063972170
16.822606,16,8,-6,-2,-2,-2,-3,-2,-0.063972170
16.822609,-17,2,-5,-5,-1,-2,-1,-3,-0.063972170
16.822611,3,12,2,-4,-2,-1,-1,0,-0.063972170
16.844126,7,13,2,2,-3,-1,-1,1,-0.063972170
16.844144,-5,53,11,3,2,-1,-1,-1,-0.063972170
16.845121,-16,-97,-7,-2,-1,1,-2,-3,-0.063972170
16.845132,9,-12,-9,-2,-1,-1,-2,-1,-0.063972170
16.857858,5,21,3,0,0,-2,-1,-1,-0.063972170
16.857883,6,-7,8,4,1,-1,0,2,-0.063972170
16.866042,-7,22,6,2,-2,-1,0,-1,-0.063972170
16.866066,3,15,-8,-4,-2,-1,0,0,-0.063972170
16.881488,9,-15,-5,-1,-1,-2,0,-1,-0.063972170
16.881532,-18,-33,5,2,-1,-1,0,1,-0.063972170
16.883607,18,36,-5,-9,-3,-2,-3,-2,-0.063972170
16.883613,-10,-9,2,-2,1,0,-1,-3,-0.063972170
16.904377,-1,17,2,0,-2,-2,-1,-1,-0.063972170
16.904396,25,-10,-9,-4,-3,-3,0,2,-0.063972170
16.905076,2,16,0,3,-1,0,-1,-4,-0.063972170
16.905094,-14,-26,-5,-2,-2,0,0,0,-0.063972170
16.919171,11,54,8,1,-3,-3,-2,-1,-0.063972170
16.919186,-19,-71,0,-1,2,1,0,0,-0.063972170
16.926015,-10,-8,-6,-1,-1,0,0,-2,-0.063972170
16.926039,13,28,9,-2,-1,-1,-1,0,-0.063972170
16.941053,-3,-16,-4,3,-2,1,-2,-2,-0.063972170
16.941085,-6,42,-1,-4,-3,0,-2,-1,-0.063972170
16.944575,1,23,-3,-3,0,0,0,0,-0.063972170
16.944589,-1,-12,-1,-3,1,0,-1,0,-0.063972170
16.971657,-1,-11,9,9,2,-1,-2,-1,-0.064341716
16.971675,3,4,-5,-4,-2,-3,0,-2,-0.064341716
16.973724,-6,10,2,0,0,-1,-3,0,-0.064341716
16.973737,1,-5,-1,7,-3,-1,0,0,-0.064341716
16.978247,8,-43,-4,-3,0,-1,-1,1,-0.064341716
16.978303,-29,9,0,-3,-3,-1,-2,-2,-0.064341716
16.986002,-28,-9,-11,2,0,-2,0,-1,-0.064341716
16.986023,20,17,26,-5,0,-2,-1,-3,-0.064341716
17.000896,5,9,-1,5,-2,0,0,-2,-0.064341716
17.000913,1,1,-13,-5,-1,0,-1,1,-0.064341716
17.002221,2,16,5,0,-1,0,-2,0,-0.064341716
17.002243,-6,-3,-15,-2,-3,0,0,1,-0.064341716
17.025880,3,12,1,-7,0,0,-2,0,-0.064341716
17.025888,8,-12,2,2,-3,-1,-2,-2,-0.064341716
17.025891,-4,-24,-16,-11,-2,-1,-1,-1,-0.064341716
17.025893,-6,38,6,7,0,-2,-2,-3,-0.064341716
17.037854,-1,-15,5,0,2,1,1,1,-0.064341716
17.037922,8,8,-2,1,-1,0,0,-1,-0.064341716
17.046525,-2,-13,3,-4,-3,-1,-1,-1,-0.064341716
17.046555,15,24,-11,-7,-1,-1,0,0,-0.064341716
17.061543,-22,-6,-2,-2,0,-1,0,-6,-0.064341716
17.061567,-9,-12,-8,-4,-2,-2,-1,6,-0.064341716
17.062112,12,2,3,3,-1,-1,-2,-1,-0.064341716
17.062134,2,36,0,-5,1,0,-3,0,-0.064341716
17.084747,-21,-54,0,3,-1,-1,-1,-2,-0.064341716
17.084782,7,-4,3,-1,-3,-2,-1,-5,-0.064341716
17.087405,2,-2,-1,-2,0,-2,-1,6,-0.064341716
17.087418,-5,15,-10,-14,-6,-3,-2,-1,-0.064341716
17.106634,-2,32,10,5,0,0,0,2,-0.064341716
17.106649,9,-16,16,2,0,0,-3,-6,-0.064341716
17.107301,-9,7,5,5,2,3,0,1,-0.064341716
17.107343,-9,-26,-9,2,-1,-1,-2,-3,-0.064341716
17.120893,-4,7,-6,-6,-2,-1,-1,1,-0.064341716
17.120910,-8,-10,-9,-2,-3,-2,-1,0,-0.064341716
17.121625,9,5,-8,-4,-5,-1,1,0,-0.064341716
17.121641,16,-30,2,3,1,1,0,0,-0.064341716
17.144132,-8,-9,3,-2,-1,-1,0,-1,-0.064341716
17.144156,1,21,2,4,0,0,0,1,-0.064341716
17.145619,-11,10,3,-2,1,0,0,-4,-0.064341716
17.145633,-6,-21,-4,0,0,0,-1,1,-0.064341716
17.167541,22,26,-2,-1,-1,0,0,-1,-0.064341716
17.167555,-28,-17,-5,-3,-2,0,-2,-1,-0.064341716
17.167558,6,6,-7,-8,1,0,0,-4,-0.064341716
17.167561,1,-29,-15,0,-2,-1,0,0,-0.064341716
17.182908,-2,26,33,9,4,-1,-1,-1,-0.064341716
17.182923,34,27,-2,1,1,-1,-2,1,-0.064341716
17.182928,-12,22,-10,-10,-3,-2,-3,-2,-0.064341716
17.182934,-38,-71,22,3,2,-1,-2,-2,-0.064341716
17.204386,18,-58,-20,-3,0,-1,-1,2,-0.064341716
17.204404,-8,-9,2,0,2,-2,-1,-5,-0.064341716
17.205812,7,4,2,2,-1,-1,0,5,-0.064341716
17.205827,1,20,-2,-1,-2,-1,-1,-1,-0.064341716
17.226853,-8,21,-9,-6,-5,-2,-2,-3,-0.064197504
17.226876,1,0,2,-2,-1,-1,-1,-2,-0.064197504
17.228594,2,-14,2,3,0,0,0,-5,-0.064197504
17.228602,-2,29,3,2,0,-2,1,1,-0.064197504
17.240794,11,-8,-2,0,-1,-1,-4,-1,-0.064197504
17.240813,20,30,-10,-7,-4,-3,-3,-1,-0.064197504
17.249232,-31,-27,-1,-1,0,-2,-3,-5,-0.064197504
17.249262,10,-12,-6,0,0,-1,-1,-1,-0.064197504
17.264904,-3,4,-8,-4,-1,0,-1,0,-0.064197504
17.264935,10,13,6,0,-2,-4,-2,-1,-0.064197504
17.265116,9,33,40,9,2,2,1,1,-0.064197504
17.265138,-1,10,-3,1,0,-1,-2,-2,-0.064197504
17.286927,12,13,-9,-5,-2,-2,-1,0,-0.064197504
17.286947,-17,-32,-24,-6,-3,1,1,0,-0.064197504
17.289051,-2,-26,-4,0,-2,-3,-1,-1,-0.064197504
17.289066,0,4,-3,-1,-3,-1,-1,-2,-0.064197504
17.301449,-6,20,-8,-3,-2,-1,-1,-2,-0.064197504
17.301484,-14,-7,1,-5,1,0,-1,-4,-0.064197504
17.304256,14,-1,4,3,-1,-3,-1,5,-0.064197504
17.304269,-26,4,2,-3,-3,0,-1,-2,-0.064197504
17.324217,8,-8,-5,-4,-2,-2,-1,-3,-0.064197504
17.324254,-8,-49,3,2,-1,0,-1,-3,-0.064197504
17.324961,1,15,-4,-1,0,1,-2,-1,-0.064197504
17.324968,8,-33,-15,2,-1,-1,-2,1,-0.064197504
17.346630,-18,-1,17,-8,-1,-1,1,2,-0.064197504
17.346660,1,17,3,4,0,-3,-3,-3,-0.064197504
17.349346,9,11,3,6,1,-2,-1,0,-0.064197504
17.349352,13,25,-8,-1,3,0,0,0,-0.064197504
17.360940,-7,21,-5,0,-4,-2,-3,-2,-0.064197504
17.360963,8,-36,5,-5,2,2,1,3,-0.064197504
17.362134,-9,-31,-5,2,1,0,-1,-6,-0.064197504
17.362144,5,15,3,-1,-1,-1,-1,6,-0.064197504
17.384267,2,-10,-1,0,0,-1,-2,-1,-0.064197504
17.384274,-22,17,0,-2,-2,-1,-1,0,-0.064197504
17.384820,-7,-18,-9,-4,-3,1,-1,-2,-0.064197504
17.384829,-3,-10,1,-2,-2,-2,0,-4,-0.064197504
17.406707,5,1,-4,0,-1,1,-1,0,-0.064197504
17.406727,25,30,1,0,-1,0,-1,3,-0.064197504
17.407825,-27,-20,-3,-1,-2,-1,-3,-4,-0.064197504
17.407833,13,3,-7,-4,-1,-1,-2,-2,-0.064197504
17.421291,-1,-15,22,-2,0,-2,-1,-1,-0.064197504
17.421315,-7,13,-1,3,2,-2,0,-1,-0.064197504
17.422962,9,-5,1,2,-1,-2,0,0,-0.064197504
17.422975,5,30,1,-3,-2,-2,-2,-1,-0.064197504
17.444202,-18,-35,-20,-2,0,-2,0,-1,-0.064197504
17.444226,7,26,0,-3,-2,-1,0,2,-0.064197504
17.445638,-10,-1,19,1,-2,-1,-1,-1,-0.064197504
17.445655,9,-7,0,1,1,-2,0,-2,-0.064197504
17.466921,5,16,-6,2,-2,-2,-4,-4,-0.064197504
17.466929,-25,-22,-6,0,-4,-2,-1,5,-0.064197504
17.468985,6,19,-6,-7,0,-1,-1,-1,-0.064197504
17.469002,-4,-26,3,5,2,0,0,-4,-0.064197504
17.481702,-26,-10,-6,3,2,1,-1,-1,-0.064211024
17.481725,-7,-1,8,1,-1,0,-2,-2,-0.064211024
17.481734,8,13,-19,-11,-4,0,-1,0,-0.064211024
17.481741,16,25,21,1,0,0,0,0,-0.064211024
17.504259,-23,-12,0,-4,-5,-2,-1,0,-0.064211024
17.504425,24,-3,3,10,2,0,-2,-3,-0.064211024
17.506647,-5,-13,-6,-4,1,-1,-1,-1,-0.064211024
17.506663,22,8,-12,-5,-2,-2,0,-1,-0.064211024
17.527082,-3,-5,-1,0,-1,0,1,1,-0.064211024
17.527107,-7,-4,-4,-9,0,-2,-1,-1,-0.064211024
17.527774,14,12,4,4,0,-1,0,0,-0.064211024
17.527796,-20,18,2,3,-3,-1,-1,-1,-0.064211024
17.541016,1,-54,-7,-8,-2,-2,0,-2,-0.064211024
17.541087,-5,4,-10,1,-2,-1,-1,-2,-0.064211024
17.541908,-8,-6,21,11,0,1,-1,-4,-0.064211024
17.541953,-2,-2,3,-3,-2,-1,-1,2,-0.064211024
17.564524,20,37,-6,0,1,0,-2,1,-0.064211024
17.564557,-7,-32,-4,-5,-1,-1,-3,-3,-0.064211024
17.565751,3,5,4,0,-2,-3,0,-3,-0.064211024
17.565757,-4,-9,-1,-2,3,0,-1,0,-0.064211024
17.586730,-1,19,2,4,-2,-2,-1,1,-0.064211024
17.586749,7,-6,3,-1,-2,0,-2,-2,-0.064211024
17.587449,14,28,-13,-6,-2,0,-2,-1,-0.064211024
17.587458,-9,25,0,-6,-3,-1,-1,-4,-0.064211024
17.602459,12,-49,-5,1,2,0,0,-1,-0.064211024
17.602473,-3,4,-3,-7,2,-1,0,-1,-0.064211024
17.602476,-7,-15,0,-1,-1,-1,0,2,-0.064211024
17.602479,-2,-8,6,4,-1,0,0,-1,-0.064211024
17.632313,14,49,-4,-3,-1,0,-1,0,-0.064211024
17.632322,5,10,-1,5,-2,-1,0,1,-0.064211024
17.632411,-10,-30,-6,-1,-2,-2,0,-1,-0.064211024
17.632447,1,2,-13,-4,-3,-2,-2,-4,-0.064211024
17.648395,3,35,6,-2,0,0,0,1,-0.064211024
17.648405,-32,-70,-13,-3,0,2,1,1,-0.064211024
17.648408,-20,-2,2,-6,-2,-2,-2,-3,-0.064211024
17.648411,-8,-43,-11,3,-2,-2,-2,0,-0.064211024
17.660623,10,29,6,3,2,1,0,-1,-0.064211024
17.660655,6,48,18,8,2,1,1,0,-0.064211024
17.668630,13,11,-11,-5,0,-1,-3,2,-0.064211024
17.668653,-15,-27,2,0,0,0,-1,-1,-0.064211024
17.684596,4,-4,-4,-3,-4,-3,-1,-1,-0.064211024
17.686920,13,11,-9,-4,-4,-1,0,0,-0.064211024
17.686934,-1,-2,-7,-5,-2,-1,-3,1,-0.064211024
17.686937,-20,-3,5,1,-2,0,0,-2,-0.064211024
17.706764,4,11,5,4,3,1,-1,0,-0.064211024
17.706788,-20,-14,-13,-5,2,-1,-2,-4,-0.064211024
17.708685,7,-52,0,1,0,-1,-1,-1,-0.064211024
17.708702,15,12,3,-7,-1,0,-1,2,-0.064211024
17.720319,-6,1,16,8,-1,1,0,-2,-0.064211024
17.720337,18,46,5,5,-1,-1,0,2,-0.064211024
17.729219,2,-12,-8,-1,-1,-1,0,-1,-0.064211024
17.729250,-32,-30,-6,-3,2,-1,-1,-2,-0.064211024
17.744148,3,-9,-1,2,0,-2,-1,-2,-0.064319186
17.744171,3,1,-8,-4,-2,-3,-2,-3,-0.064319186
17.744820,14,43,17,-7,-2,0,1,-2,-0.064319186
17.744836,0,-26,-13,14,0,-1,-1,6,-0.064319186
17.766974,-3,-17,7,0,-2,0,-1,-1,-0.064319186
17.766999,2,-20,-8,2,0,-2,-2,-1,-0.064319186
17.770074,-10,-4,4,-3,-2,0,-1,-2,-0.064319186
17.770087,15,43,9,-5,1,-1,-1,-2,-0.064319186
17.780719,-12,2,-11,-7,-3,-2,-1,1,-0.064319186
17.780752,21,-3,13,2,-5,-1,-1,1,-0.064319186
17.788594,-22,19,14,2,3,0,-1,-3,-0.064319186
17.788620,-5,21,-2,-4,-2,-3,-3,-4,-0.064319186
17.804171,0,-56,-19,1,-1,-1,1,-2,-0.064319186
17.804184,10,58,-2,-8,-3,1,-2,-3,-0.064319186
17.804905,-19,-75,-3,5,-2,-1,0,2,-0.064319186
17.804912,23,15,-5,-3,-3,-1,-1,0,-0.064319186
17.826845,-32,28,0,-3,0,0,-2,0,-0.064319186
17.826867,3,-10,13,2,3,-1,1,-2,-0.064319186
17.829642,-10,6,0,-2,1,0,-2,-2,-0.064319186
17.829649,-1,-2,-7,-5,-1,0,-1,-3,-0.064319186
17.840392,-4,5,-1,3,-3,-2,-1,3,-0.064319186
17.842558,-7,-4,-1,3,-1,0,-1,0,-0.064319186
17.856595,10,8,-6,6,1,-2,-1,2,-0.064319186
17.856628,-7,-12,-1,0,-3,0,0,-4,-0.064319186
17.864285,7,10,2,-7,1,1,0,-2,-0.064319186
17.864325,-11,14,4,2,1,1,-1,0,-0.064319186
17.864764,7,-58,-17,-8,-3,-2,-1,-1,-0.064319186
17.864771,6,17,2,-1,-2,-2,0,-1,-0.064319186
17.887227,5,-1,-11,-2,-1,-1,-1,0,-0.064319186
17.889579,-11,-15,10,0,-1,-1,0,-1,-0.064319186
17.889592,5,46,20,4,-1,0,-1,-2,-0.064319186
17.889595,6,-30,7,-1,2,0,-1,2,-0.064319186
17.900715,11,22,-3,1,-1,-2,-2,-2,-0.064319186
17.900754,13,-31,-7,-5,0,-1,0,-1,-0.064319186
17.916339,-7,29,-10,4,0,2,-2,-2,-0.064319186
17.916364,-46,-59,-10,-2,-1,-4,-1,2,-0.064319186
17.924730,18,19,7,-1,-2,-1,-1,-3,-0.064319186
17.924763,-19,-12,-3,4,-2,-1,-1,-3,-0.064319186
17.926194,4,-1,-9,3,-2,-2,1,6,-0.064319186
17.926209,-8,7,9,-1,-1,-1,-3,-3,-0.064319186
17.946701,-2,-10,-15,-5,-2,-1,-1,0,-0.064319186
17.946723,-5,15,12,-3,-1,-1,-2,-2,-0.064319186
17.947845,2,9,-7,-2,0,-1,-1,-1,-0.064319186
17.947867,12,-6,4,1,0,-2,0,-1,-0.064319186
17.960265,-14,-29,1,2,0,-2,-3,-1,-0.064319186
17.960281,0,-3,-12,-3,-1,-1,-1,-3,-0.064319186
17.968909,6,2,-5,-3,0,-1,-1,-1,-0.064319186
17.968933,14,35,2,1,-1,1,1,-1,-0.064319186
17.984672,-54,-33,-13,-10,-1,-2,-2,-5,-0.064319186
17.984710,-19,-19,14,-1,-3,-4,-3,-3,-0.064319186
17.986672,2,5,3,9,0,-1,-1,0,-0.064319186
17.986693,18,37,10,4,-2,0,-1,2,-0.064319186
18.006709,17,1,1,-2,-1,0,-2,-1,-0.064269610
18.006718,11,19,-18,-2,-4,-1,0,0,-0.064269610
18.008182,-22,-71,-6,-21,-2,0,0,-2,-0.064269610
18.008190,8,20,15,18,4,1,0,0,-0.064269610
18.029434,-1,-26,-7,1,0,-1,0,-5,-0.064269610
18.029464,3,-2,4,-6,1,0,-2,3,-0.064269610
18.031874,-5,39,1,-1,-2,0,-2,-2,-0.064269610
18.031881,-4,15,-21,-10,-4,-1,-1,-2,-0.064269610
18.042898,2,-20,2,-3,-1,0,0,1,-0.064269610
18.042969,16,21,-2,4,2,0,0,0,-0.064269610
18.054511,0,-12,-7,1,-1,-1,-2,-2,-0.064269610
18.054526,-3,25,5,-4,-1,-2,-2,-2,-0.064269610
18.067121,5,19,-11,-3,3,-1,0,1,-0.064269610
18.067150,-1,-77,-6,-4,-3,-2,-1,-4,-0.064269610
18.069470,13,23,16,6,-1,-4,-2,0,-0.064269610
18.069487,-3,-28,-7,-8,-2,0,-1,-3,-0.064269610
18.089176,7,31,6,2,-3,0,-1,1,-0.064269610
18.089196,-1,8,3,4,1,1,0,1,-0.064269610
18.090886,0,18,-8,-4,0,0,2,0,-0.064269610
18.090906,18,-37,-4,1,0,-1,-1,1,-0.064269610
18.102952,-45,42,18,3,0,-1,0,-3,-0.064269610
18.102973,10,-87,-21,-7,-1,0,-3,-2,-0.064269610
18.112731,-7,-1,-7,10,-4,-2,-1,-3,-0.064269610
18.112742,1,17,-1,-11,-2,-4,0,0,-0.064269610
18.127582,-3,-12,3,3,0,0,-1,-1,-0.064269610
18.127613,3,51,8,4,1,0,-1,-1,-0.064269610
18.130319,-7,-9,-9,-4,0,0,-3,-3,-0.064269610
18.130326,14,-18,-10,-2,0,0,-2,2,-0.064269610
18.149385,4,-11,1,4,-2,-1,-1,0,-0.064269610
18.149423,-8,4,3,-3,-3,-2,-1,-3,-0.064269610
18.151053,-4,-4,-9,-4,0,0,-1,-2,-0.064269610
18.151075,-15,0,1,1,-1,-1,-2,-3,-0.064269610
18.164338,17,5,8,1,-2,2,0,3,-0.064269610
18.164348,-44,-1,-10,-4,3,-1,-2,-3,-0.064269610
18.173411,-7,-24,-9,-8,-5,-3,0,0,-0.064269610
18.173424,-17,-53,24,6,2,0,-2,-3,-0.064269610
18.187263,23,-10,1,3,0,-3,-2,-3,-0.064269610
18.187280,6,28,-13,-1,0,0,1,2,-0.064269610
18.192879,16,31,12,1,1,-1,0,2,-0.064269610
18.192900,-26,11,-4,-9,-3,-2,-2,0,-0.064269610
18.211062,3,-6,-4,-2,-2,-3,-1,-1,-0.064269610
18.211077,12,15,9,4,-2,-2,-1,2,-0.064269610
18.211084,1,-12,-8,-1,1,0,-3,-2,-0.064269610
18.211090,-17,10,-3,0,-2,0,0,-2,-0.064269610
18.223750,8,-18,-19,1,1,-2,0,-2,-0.064269610
18.223782,3,-10,21,3,0,-1,0,-1,-0.064269610
18.230736,16,34,-7,-5,0,-2,-1,-1,-0.064269610
18.230763,23,40,10,5,2,0,1,0,-0.064269610
18.247093,-13,-16,-3,-2,0,0,-2,-1,-0.064269610
18.247124,-14,1,-11,-2,-2,-2,-2,2,-0.064269610
18.249506,-8,1,2,-3,0,0,-1,-1,-0.064233559
18.249513,11,-23,-6,-1,-2,-1,0,-1,-0.064233559
18.269530,8,19,9,-7,-3,-3,-1,-3,-0.064233559
18.269565,4,-8,-12,2,-3,-1,-1,0,-0.064233559
18.271968,2,-10,5,3,1,-1,0,-2,-0.064233559
18.271981,-11,0,-16,-1,-1,-2,-1,-1,-0.064233559
18.283510,1,-12,5,-2,-2,-1,-1,0,-0.064233559
18.283543,10,32,-3,-5,0,-2,-2,-2,-0.064233559
18.290302,4,-9,0,7,-1,-2,0,0,-0.064233559
18.290319,3,11,-3,-4,0,-1,-2,-2,-0.064233559
18.306786,1,-3,6,1,0,-1,0,0,-0.064233559
18.306828,-15,-24,-2,0,-4,0,0,-1,-0.064233559
18.308218,-30,-27,-11,-6,-1,0,-2,-3,-0.064233559
18.308225,22,16,-5,-4,-1,-1,-1,1,-0.064233559
18.329186,-31,-27,-2,-6,-1,1,-3,-1,-0.064233559
18.329201,3,53,-19,-4,-2,0,-4,-1,-0.064233559
18.331475,6,-57,10,3,-1,-2,0,-1,-0.064233559
18.331489,1,5,14,-8,-3,0,0,0,-0.064233559
18.343326,3,21,-14,6,-2,-1,-1,0,-0.064233559
18.343349,5,1,19,5,2,0,1,-4,-0.064233559
18.359428,-6,15,-9,3,-2,-2,-2,7,-0.064233559
18.359434,-5,10,8,0,-1,-2,-4,-1,-0.064233559
18.368223,7,-25,-10,-4,-5,-1,-1,-3,-0.064233559
18.368233,-4,-8,0,-4,-2,-1,-1,-2,-0.064233559
18.368236,8,20,-2,0,2,1,0,-1,-0.064233559
18.368239,-4,-4,0,3,0,-1,1,-2,-0.064233559
18.389709,27,53,3,-2,-2,-1,-2,1,-0.064233559
18.389742,-12,-65,-6,0,0,0,0,-1,-0.064233559
18.391907,-1,-4,4,-4,0,-1,-2,-2,-0.064233559
18.391914,-8,0,-11,1,-2,-2,0,-1,-0.064233559
18.403608,4,12,8,1,1,-1,-1,-3,-0.064233559
18.403638,-15,2,13,-3,-1,-1,-2,0,-0.064233559
18.410775,30,53,-13,-3,0,0,-2,1,-0.064233559
18.410801,-20,-46,-5,2,1,0,0,-1,-0.064233559
18.427011,-8,16,-1,0,-2,0,-2,1,-0.064233559
18.427043,-9,-43,-8,-8,-5,-4,-3,-2,-0.064233559
18.429447,2,21,14,1,0,-1,1,-2,-0.064233559
18.429464,-26,-7,-8,2,-2,-2,0,-1,-0.064233559
18.449392,-7,21,7,-1,0,0,-1,-2,-0.064233559
18.449403,13,9,-7,-5,-2,-1,-2,2,-0.064233559
18.451176,-5,-6,1,0,-2,-2,-1,-1,-0.064233559
18.451186,14,-14,10,0,2,-1,-1,-2,-0.064233559
18.463922,13,7,4,-2,-2,-1,-2,1,-0.064233559
18.463946,-55,-5,-8,-5,2,-2,-1,-3,-0.064233559
18.470383,-4,-26,3,2,0,-1,-2,-1,-0.064233559
18.470404,4,-20,-2,-1,-3,-1,-1,0,-0.064233559
18.486864,8,-5,-12,-3,0,-2,0,-2,-0.064233559
18.486885,28,25,5,-1,-2,-2,-2,0,-0.064233559
18.488940,-9,4,-2,6,-2,-1,0,-1,-0.064233559
18.488949,7,10,-9,-3,-3,-1,-2,1,-0.064233559
18.509177,-26,-19,3,3,0,-2,-1,-2,-0.064242570
18.509231,16,9,-6,1,-3,1,0,-1,-0.064242570
18.510728,18,8,-3,-12,0,-1,-2,0,-0.064242570
18.510749,2,13,-16,-2,0,0,-2,-1,-0.064242570
18.522809,-2,0,23,-3,-1,-2,-2,-2,-0.064242570
18.522821,14,1,2,5,3,0,1,2,-0.064242570
18.534022,-3,28,9,0,1,0,0,-1,-0.064242570
18.534029,-9,-53,-4,-1,-1,-4,-2,-2,-0.064242570
18.546636,3,-26,-9,0,-1,-1,0,-2,-0.064242570
18.546685,-9,-4,-15,-6,-3,-1,0,0,-0.064242570
18.548200,19,41,19,-1,-1,-2,-1,1,-0.064242570
18.548207,-14,-33,-11,1,-3,-2,-2,-3,-0.064242570
18.569349,-15,-23,11,0,-2,-2,-1,-2,-0.064242570
18.569369,17,24,2,4,-1,-2,-1,2,-0.064242570
18.570821,-12,0,-23,-3,-2,-2,0,-2,-0.064242570
18.570837,1,-22,16,-4,-1,1,-1,-1,-0.064242570
18.585527,10,-8,-6,-7,-2,0,-2,-1,-0.064242570
18.585540,-4,-1,-3,0,-1,-1,-1,0,-0.064242570
18.591814,-18,-8,-1,-1,-1,-2,-2,-1,-0.064242570
18.592567,-2,29,2,1,0,1,-1,-5,-0.064242570
18.606810,-4,5,-14,4,1,0,-1,5,-0.064242570
18.606829,9,17,14,-3,0,0,0,-1,-0.064242570
18.608362,19,-5,8,5,0,0,1,1,-0.064242570
18.608421,-39,-3,8,0,0,-1,0,-3,-0.064242570
18.636985,-9,-27,-15,-2,-2,-2,-1,0,-0.064242570
18.637010,-9,40,5,-3,1,-1,-1,-3,-0.064242570
18.638730,-1,-57,-10,-1,-3,-2,-2,-3,-0.064242570
18.638740,-7,11,-5,-4,3,-1,-1,-1,-0.064242570
18.642811,15,11,4,1,-4,-1,0,-1,-0.064242570
18.642846,3,5,5,4,1,-1,-2,-2,-0.064242570
18.651832,-31,-12,-10,-6,-2,-1,-1,-4,-0.064242570
18.651862,18,39,4,-2,-2,-1,1,1,-0.064242570
18.667242,-9,-14,-8,0,0,-2,-2,-1,-0.064242570
18.667275,7,-36,-8,-1,-2,0,0,-1,-0.064242570
18.668264,16,4,0,-1,3,-1,-1,-1,-0.064242570
18.668305,-14,6,-7,-2,0,-1,-1,-1,-0.064242570
18.689274,0,12,-2,-4,1,0,-1,-3,-0.064242570
18.689311,0,-18,0,-1,-2,-1,-1,-2,-0.064242570
18.691592,6,0,1,7,1,-1,-1,0,-0.064242570
18.691604,1,43,0,-3,-3,-2,-2,1,-0.064242570
18.703199,-10,-7,-2,-9,-1,-1,-3,-7,-0.064242570
18.703234,6,-9,-5,4,0,-1,-2,5,-0.064242570
18.714195,-12,4,2,-7,-4,-1,-2,1,-0.064242570
18.714202,12,-7,-4,3,-2,0,-2,0,-0.064242570
18.726822,24,24,-2,0,-2,0,1,0,-0.064242570
18.726846,-34,-54,-7,0,-1,-1,-3,-7,-0.064242570
18.728318,-3,25,-2,-2,-2,0,0,-1,-0.064242570
18.728342,4,-35,2,2,3,-1,0,1,-0.064242570
18.749331,-7,-21,-4,0,0,-1,-2,-1,-0.064242570
18.749363,8,25,5,4,-1,0,2,-2,-0.064242570
18.751618,-2,-20,-7,-3,-1,1,1,1,-0.064242570
18.751626,6,27,0,-4,-2,1,0,0,-0.064242570
18.763148,-5,7,2,2,0,0,-1,-1,-0.064183984
18.763172,-13,6,8,1,-1,0,-1,-4,-0.064183984
18.772164,20,1,1,-4,0,0,-2,-1,-0.064183984
18.772171,7,7,-10,-1,-1,-1,0,0,-0.064183984
18.786837,-6,-28,5,3,1,-2,-3,-2,-0.064183984
18.786879,-6,21,2,-2,0,1,-1,-1,-0.064183984
18.788252,-1,6,8,2,-4,-2,-1,-1,-0.064183984
18.788261,-3,13,-10,1,1,-1,0,1,-0.064183984
18.809736,33,-13,5,-5,-2,-3,-2,-2,-0.064183984
18.809760,-10,4,-9,5,1,-2,-1,-2,-0.064183984
18.811808,5,-9,0,-1,0,-1,-1,-1,-0.064183984
18.811816,-1,8,-9,-1,-2,-2,-1,-1,-0.064183984
18.823382,-19,13,-1,-2,0,0,-1,0,-0.064183984
18.823414,7,-5,-4,-2,-2,-1,-2,0,-0.064183984
18.832327,2,10,-4,-9,0,0,1,0,-0.064183984
18.832367,0,-9,17,12,1,-1,-1,-5,-0.064183984
18.849116,-1,0,-12,-3,-1,-1,-1,6,-0.064183984
18.849124,5,4,-10,-5,-2,-1,0,-1,-0.064183984
18.849127,-22,7,2,2,0,-1,-1,-1,-0.064183984
18.849130,36,-53,22,-9,0,-2,-2,-1,-0.064183984
18.869699,-24,-1,2,2,-3,-1,-1,-2,-0.064183984
18.869732,-27,-34,-12,1,2,-3,-3,-3,-0.064183984
18.871544,-3,20,-6,-3,0,-1,-1,1,-0.064183984
18.871561,-10,10,-4,-1,-1,1,-2,-5,-0.064183984
18.882967,15,3,-12,3,-2,0,0,1,-0.064183984
18.882990,3,31,17,-4,-3,-3,-2,2,-0.064183984
18.894680,2,-44,-12,-1,-2,-2,-1,-4,-0.064183984
18.894689,1,0,3,3,1,-2,1,1,-0.064183984
18.914228,-9,-7,6,0,-1,-1,0,-2,-0.064183984
18.914251,-3,5,-9,3,-1,0,3,0,-0.064183984
18.917491,5,17,3,-2,-2,-2,-2,-1,-0.064183984
18.917498,0,17,4,4,-1,1,-2,-1,-0.064183984
18.929543,1,16,6,-1,0,-1,-2,-2,-0.064183984
18.929572,14,-25,-4,-7,0,-1,-1,0,-0.064183984
18.931693,-10,-14,-4,1,-1,-1,0,-2,-0.064183984
18.931701,-2,-16,-15,-7,-3,-2,-1,-1,-0.064183984
18.942767,-2,25,0,0,0,-2,-1,-6,-0.064183984
18.942787,-10,-8,8,0,-1,0,-2,2,-0.064183984
18.954575,-9,-19,-7,-3,-3,-1,-1,-2,-0.064183984
18.954593,5,-1,1,1,0,-1,-2,-2,-0.064183984
18.967447,-5,-11,7,-3,-2,-1,-1,-3,-0.064183984
18.967489,12,13,-9,-2,-1,-1,-2,0,-0.064183984
18.970430,-5,-3,6,3,0,-1,-3,-1,-0.064183984
18.970450,9,8,-11,-10,-6,0,0,2,-0.064183984
18.989248,-6,3,-1,0,1,0,0,-2,-0.064183984
18.989265,20,28,6,3,3,0,-1,1,-0.064183984
18.990857,-9,-74,-3,0,-1,-1,-2,-2,-0.064183984
18.990877,-14,28,16,3,-1,-1,-2,-2,-0.064183984
19.011673,19,10,-12,-5,-2,-1,-1,1,-0.064341716
19.011765,-16,-13,-2,-4,-2,0,-1,-4,-0.064341716
19.013497,-2,14,-6,1,1,0,0,-1,-0.064341716
19.013512,5,4,-17,-5,-2,-2,-2,0,-0.064341716
19.026731,-3,-14,13,6,-3,-4,0,0,-0.064341716
19.026749,10,10,-8,-9,4,0,0,-2,-0.064341716
19.028149,10,16,7,3,0,-1,0,-2,-0.064341716
19.028164,-10,-19,-13,0,0,-1,-3,-1,-0.064341716
19.051663,-9,7,12,-2,-3,0,-1,-3,-0.064341716
19.051712,-11,-52,-11,-4,-2,-2,-2,-5,-0.064341716
19.051716,20,14,10,0,-1,-3,-1,7,-0.064341716
19.051718,9,11,0,-4,0,0,1,1,-0.064341716
19.071917,-22,4,-15,0,0,-1,-2,0,-0.064341716
19.071952,-2,11,0,0,-3,-1,0,-1,-0.064341716
19.074000,5,-10,11,-2,-1,0,-1,-3,-0.064341716
19.074013,-15,9,0,7,-2,-1,-2,-2,-0.064341716
19.086977,11,6,-3,-3,1,0,-1,0,-0.064341716
19.087020,-2,-4,-3,1,-4,-3,-2,-2,-0.064341716
19.088352,-11,-15,-8,-1,-1,0,-1,-1,-0.064341716
19.088370,-15,-20,-5,-5,-4,-3,-1,-3,-0.064341716
19.109667,-3,6,-3,-5,-2,-2,-1,-2,-0.064341716
19.109701,5,2,5,0,0,-1,1,3,-0.064341716
19.112478,5,24,-4,1,-3,-2,-2,-3,-0.064341716
19.112488,-6,-7,0,0,2,-1,-2,-1,-0.064341716
19.131834,6,-1,-12,0,-1,-1,-1,1,-0.064341716
19.131846,2,30,13,-1,1,-1,-2,-2,-0.064341716
19.135520,-5,-10,9,5,2,-1,0,-2,-0.064341716
19.135534,30,18,2,-1,-1,-1,-1,0,-0.064341716
19.146380,-23,-24,-7,2,-1,-1,-2,0,-0.064341716
19.146397,21,-17,-19,-1,0,1,-1,0,-0.064341716
19.153211,-21,-3,8,-4,-1,-1,-1,-3,-0.064341716
19.154193,-11,14,7,-1,1,-1,0,-1,-0.064341716
19.169465,7,-11,0,5,2,2,0,-4,-0.064341716
19.169503,6,7,11,1,-2,-1,-2,5,-0.064341716
19.171956,-1,7,-11,-1,-1,0,-2,-2,-0.064341716
19.171975,17,45,-5,-6,0,-2,-2,0,-0.064341716
19.192171,2,-58,-7,-5,-3,-1,-1,0,-0.064341716
19.192193,-15,-21,-1,-1,-3,0,-1,-3,-0.064341716
19.193241,-7,3,-7,-4,-1,-2,0,-1,-0.064341716
19.193257,4,10,20,6,1,-2,0,-1,-0.064341716
19.206153,1,27,0,-2,-1,-2,-1,-3,-0.064341716
19.206171,4,-9,-1,-1,-3,-2,0,-2,-0.064341716
19.212891,-37,-18,-1,3,-1,0,-2,-1,-0.064341716
19.212923,-4,-21,-10,-2,-5,-1,-1,-3,-0.064341716
19.228350,4,27,5,0,1,-1,-1,0,-0.064341716
19.228382,29,-13,5,-2,0,0,0,0,-0.064341716
19.245430,-31,24,-6,-1,-2,-1,-1,-1,-0.064341716
19.245437,-13,-35,-9,-7,-1,0,-1,1,-0.064341716
19.251716,-12,-47,-13,-1,-1,-2,-1,-3,-0.064341716
19.251735,10,18,-4,-5,-3,-2,-2,-2,-0.064341716
19.253443,16,15,12,2,1,-2,-2,-1,-0.064341716
19.253455,-2,-9,-3,-1,4,0,-1,-1,-0.064341716
19.267298,5,32,4,4,1,-1,0,2,-0.064292145
19.267309,-17,4,4,-1,0,-2,-2,-3,-0.064292145
19.273036,19,-4,-15,-7,-1,0,-1,-1,-0.064292145
19.273068,-39,-31,6,0,-2,-1,-1,-2,-0.064292145
19.289315,11,55,6,-2,-3,-1,-1,0,-0.064292145
19.289339,-5,-72,-5,0,-1,-2,-1,-2,-0.064292145
19.291565,2,-28,-8,-2,-4,-1,-1,-1,-0.064292145
19.291572,16,23,6,-2,3,0,1,1,-0.064292145
19.313757,-1,7,4,4,0,-1,-1,-1,-0.064292145
19.313764,-12,-4,-9,2,1,0,1,-2,-0.064292145
19.313767,27,21,3,-5,-4,-1,-2,3,-0.064292145
19.313769,-9,-25,-12,-3,-6,0,-1,-2,-0.064292145
19.326779,-5,-14,-2,-7,-1,-1,-2,-2,-0.064292145
19.326822,-10,16,-6,5,-1,-1,-1,1,-0.064292145
19.333199,5,1,9,-4,3,-2,1,-4,-0.064292145
19.333223,7,2,-8,1,-2,-2,-2,-2,-0.064292145
19.349578,8,-8,6,-2,1,-1,-2,1,-0.064292145
19.349598,11,34,2,-3,-2,-1,-2,-2,-0.064292145
19.351566,-8,-14,-5,5,0,1,-1,-2,-0.064292145
19.351576,13,0,4,1,2,0,0,0,-0.064292145
19.371777,-7,-1,-5,0,-1,0,1,-2,-0.064292145
19.371802,6,12,8,-1,-2,-2,0,1,-0.064292145
19.374007,-8,6,-1,0,-1,0,-1,-1,-0.064292145
19.374018,8,-4,-16,-10,-3,-3,-2,1,-0.064292145
19.386280,-11,-48,-2,1,-1,-1,0,-1,-0.064292145
19.386303,-3,26,11,2,2,-1,1,1,-0.064292145
19.393149,-1,4,4,-2,0,-3,-1,-2,-0.064292145
19.393185,2,10,7,6,1,0,-1,-2,-0.064292145
19.409399,2,-49,-6,-2,-1,-1,-1,0,-0.064292145
19.409420,-9,-31,2,-11,-3,0,-3,-6,-0.064292145
19.410789,-14,1,-14,1,-1,-1,-1,4,-0.064292145
19.410815,17,18,5,0,-2,1,-1,-2,-0.064292145
19.431916,-18,26,-1,-1,-2,-1,-2,-2,-0.064292145
19.431940,-16,-6,-2,0,-1,-1,-2,-2,-0.064292145
19.433845,5,-17,-4,1,1,-1,-2,-4,-0.064292145
19.433852,-8,3,-3,-1,-2,0,1,-1,-0.064292145
19.445492,20,14,-8,-5,-1,-3,-1,2,-0.064292145
19.445516,-3,-2,0,0,0,-1,0,-1,-0.064292145
19.454965,-8,-55,-6,-12,-1,-2,-1,-3,-0.064292145
19.454985,4,9,2,4,-2,-2,-2,2,-0.064292145
19.469804,-19,-4,2,-3,-1,-2,-4,-4,-0.064292145
19.469852,-1,20,-10,0,-1,-2,-2,1,-0.064292145
19.471315,15,22,13,4,1,-2,-2,-2,-0.064292145
19.471331,-3,-3,-7,0,-1,0,1,1,-0.064292145
19.492015,-11,-23,-11,-3,2,-1,0,-2,-0.064292145
19.492047,1,23,3,-5,-3,0,0,1,-0.064292145
19.494759,0,0,22,15,-1,-1,-1,-2,-0.064292145
19.494772,14,-9,-9,-3,0,-1,-1,3,-0.064292145
19.505509,-21,18,6,-3,-3,-2,-1,0,-0.064292145
19.505536,1,25,-2,10,1,1,0,-3,-0.064292145
19.516755,-4,-68,-4,-6,-3,-1,-1,-3,-0.064292145
19.516763,-4,-17,-5,-5,-4,-2,-1,-1,-0.064292145
19.529937,9,15,13,3,1,0,-1,-2,-0.064328196
19.529984,4,-1,-5,-7,-3,-2,-1,1,-0.064328196
19.531827,4,39,-7,-5,-2,-3,-3,-4,-0.064328196
19.531837,-4,17,4,2,0,-1,-2,-2,-0.064328196
19.552351,8,-19,-12,-4,-1,-2,-2,0,-0.064328196
19.552463,-5,4,7,1,-1,-1,-1,0,-0.064328196
19.553916,-7,20,-5,-2,-1,0,0,1,-0.064328196
19.553939,-9,-43,-6,-5,-2,-2,-1,-3,-0.064328196
19.565730,12,19,13,5,-1,-1,0,-1,-0.064328196
19.565767,8,3,-1,1,0,-1,0,1,-0.064328196
19.576448,-21,19,-13,-4,1,0,1,0,-0.064328196
19.576456,-11,-2,6,-1,-2,-2,-3,-4,-0.064328196
19.589281,5,-45,-11,-1,0,1,-2,0,-0.064328196
19.589305,3,-3,0,-2,-1,0,-1,-1,-0.064328196
19.591268,9,15,-7,-4,1,0,-3,1,-0.064328196
19.591275,-12,-7,-10,-2,0,0,0,-2,-0.064328196
19.612788,14,24,17,3,-2,-1,-1,-1,-0.064328196
19.612796,-21,2,-8,0,1,-1,1,-4,-0.064328196
19.613157,20,28,15,-3,-1,-1,-1,4,-0.064328196
19.613164,3,-44,0,7,0,0,-1,-1,-0.064328196
19.626377,-14,-2,-15,-8,-3,-2,-4,0,-0.064328196
19.626384,-6,-22,5,-3,-3,-2,0,-3,-0.064328196
19.636164,-13,17,-3,2,-2,1,0,-2,-0.064328196
19.636177,19,43,6,-2,-1,-5,-2,1,-0.064328196
19.649513,3,-1,-11,0,0,-1,0,-2,-0.064328196
19.649537,-19,-16,17,2,0,-1,-1,-1,-0.064328196
19.652673,22,-1,-1,-2,0,-1,-2,-2,-0.064328196
19.652687,-2,-7,-2,0,-1,-2,-1,-1,-0.064328196
19.673614,-8,18,10,0,2,-1,-1,-2,-0.064328196
19.673624,11,-10,-7,-3,-2,-2,-1,0,-0.064328196
19.673628,15,-1,-3,-1,-1,0,0,-1,-0.064328196
19.673631,-14,6,11,3,1,0,-1,-3,-0.064328196
19.685967,-6,17,-2,2,-1,-1,0,0,-0.064328196
19.686008,1,-23,-15,0,0,-1,0,0,-0.064328196
19.696211,16,12,3,-2,-3,-1,-2,0,-0.064328196
19.696220,-33,-5,-9,-8,-2,-3,-2,-3,-0.064328196
19.709240,3,12,7,0,0,-1,1,-1,-0.064328196
19.709259,-8,-7,4,4,1,1,-1,-2,-0.064328196
19.710715,1,2,-10,-4,-3,-1,-1,0,-0.064328196
19.710729,7,34,0,5,0,2,0,-1,-0.064328196
19.732587,9,-49,1,1,0,0,-1,0,-0.064328196
19.732619,13,12,-2,-5,0,0,1,-1,-0.064328196
19.735244,-40,-29,3,6,-2,-3,-2,3,-0.064328196
19.735258,0,15,-4,-9,-3,-2,-3,-3,-0.064328196
19.745414,2,4,-1,0,-1,0,-1,-2,-0.064328196
19.745431,16,14,-6,-1,0,0,-2,-2,-0.064328196
19.755403,0,-24,-2,-3,3,-1,-1,-2,-0.064328196
19.755415,9,-9,4,1,-2,-1,1,3,-0.064328196
19.769406,-15,-18,-10,-5,1,-2,-1,0,-0.064328196
19.769546,-4,-14,-3,-6,-2,-2,-2,-3,-0.064328196
19.770771,-3,16,12,5,0,0,0,-2,-0.064328196
19.770834,-1,-11,-7,-5,-3,-1,0,-2,-0.064328196
19.792208,12,26,2,0,-2,0,0,-2,-0.064229049
19.792244,5,-4,8,-1,1,-1,0,0,-0.064229049
19.794501,-11,-16,-4,-5,-1,-2,-2,-2,-0.064229049
19.794508,5,22,5,-2,-4,-2,-2,0,-0.064229049
19.805527,20,13,15,4,1,2,2,1,-0.064229049
19.805554,-13,6,-6,1,-4,-1,-2,-1,-0.064229049
19.815533,-5,-24,-21,-2,-1,-1,-2,-2,-0.064229049
19.815541,-5,-24,8,4,1,0,-1,0,-0.064229049
19.829520,8,42,-3,-10,-3,0,-2,1,-0.064229049
19.829529,-18,-53,-9,5,1,0,-3,0,-0.064229049
19.830699,0,25,0,-1,0,-1,0,-4,-0.064229049
19.830733,8,15,7,-3,0,-3,-1,1,-0.064229049
19.851721,3,18,-3,0,-5,-1,-2,1,-0.064229049
19.851741,8,7,-2,-3,-1,1,1,0,-0.064229049
19.853745,3,0,-5,-1,-2,0,-1,-1,-0.064229049
19.853758,-26,-19,-1,-5,-1,0,-1,-2,-0.064229049
19.865741,2,3,3,13,1,-2,-1,0,-0.064229049
19.865774,-14,5,-4,1,-1,-2,2,0,-0.064229049
19.875760,14,1,-3,-7,1,-1,-1,0,-0.064229049
19.875769,-4,-69,-1,5,1,1,1,-1,-0.064229049
19.889290,2,33,5,-6,-2,-3,-1,-3,-0.064229049
19.889340,2,28,10,-3,-1,-1,1,-1,-0.064229049
19.891796,-3,-5,4,2,0,0,0,-1,-0.064229049
19.891803,14,24,-15,-1,-2,-1,0,0,-0.064229049
19.912449,-51,-23,-2,-7,-2,-2,-2,-7,-0.064229049
19.912475,17,-29,-4,3,1,-1,-1,8,-0.064229049
19.913623,16,16,1,0,-1,-2,-3,0,-0.064229049
19.913640,4,35,-1,-3,-2,0,-2,-3,-0.064229049
19.934328,4,-81,-11,-1,-2,-1,-1,-2,-0.064229049
19.934355,-7,11,0,-12,1,-2,-3,-3,-0.064229049
19.935890,-13,26,9,2,-1,-1,-1,0,-0.064229049
19.935918,1,-9,-5,2,0,-1,-3,-1,-0.064229049
19.949327,8,15,-3,-2,0,-2,0,2,-0.064229049
19.949351,-4,9,-10,-1,-3,-2,-2,-1,-0.064229049
19.950896,-15,-26,5,2,1,-1,-1,0,-0.064229049
19.950917,-13,-1,4,1,1,-2,-1,-1,-0.064229049
19.971900,-7,-3,-3,-3,-2,0,-2,-1,-0.064229049
19.971928,3,1,3,-1,0,-1,-3,-1,-0.064229049
19.973562,3,-2,-17,-8,-5,-1,-1,-2,-0.064229049
19.973598,0,43,17,4,1,-1,-1,1,-0.064229049
19.994121,21,-63,4,4,1,0,0,-3,-0.064229049
19.994141,-35,-27,-9,-2,-1,-1,-2,-3,-0.064229049
20.000701,13,2,2,-1,2,-1,-1,-1,-0.064229049
20.000729,-6,1,-11,-8,-3,0,-1,-1,-0.064229049
20.009280,1,15,-8,0,-4,-1,-2,-1,-0.064229049
20.009370,7,20,0,0,-2,-2,0,-3,-0.064229049
20.012059,10,-9,11,7,-1,-2,0,-1,-0.064229049
20.012065,-11,-5,0,-4,1,0,-2,-1,-0.064229049
