timestamp,emg1,emg2,emg3,emg4,emg5,emg6,emg7,emg8,label
0.513186,1,-10,-9,1,3,2,-5,-26,-0.064780477
0.513381,12,-1,3,-1,-2,0,0,8,-0.064780477
0.513394,11,1,-3,-4,-4,-4,3,11,-0.064780477
0.513404,2,1,-4,3,4,1,-4,-19,-0.064780477
0.513413,-16,-11,6,-4,4,-2,-2,3,-0.064780477
0.513419,5,4,6,6,-1,-2,3,10,-0.064780477
0.513424,-1,12,-13,4,-2,-1,-4,-13,-0.064780477
0.513430,-4,8,17,-6,-4,2,0,-4,-0.064780477
0.513436,3,-4,-2,13,-2,-1,2,16,-0.064780477
0.513441,1,1,-4,-5,-1,-2,-1,-8,-0.064780477
0.513447,-5,-1,-13,-5,0,1,-2,-12,-0.064780477
0.513452,-2,-27,-14,-1,-2,-3,0,10,-0.064780477
0.513458,6,34,23,-2,-1,-2,2,10,-0.064780477
0.513463,-11,-20,-4,0,0,-3,-5,-11,-0.064780477
0.513469,-2,9,1,0,-1,1,-2,0,-0.064780477
0.513474,-3,0,-7,-3,-3,-2,2,8,-0.064780477
0.513480,17,7,-2,-1,-4,0,-2,-7,-0.064780477
0.513485,-13,-31,-9,-7,0,-2,-1,-6,-0.064780477
0.513491,2,-1,7,-2,-1,-2,2,9,-0.064780477
0.513496,10,20,23,7,1,-1,-2,-2,-0.064780477
0.513502,-6,-22,-2,1,0,2,1,-6,-0.064780477
0.513508,-4,2,11,0,0,1,-1,7,-0.064780477
0.513514,-68,-54,6,-3,-1,2,-2,-4,-0.064780477
0.513519,2,11,-4,-1,-3,-3,4,23,-0.064780477
0.513525,1,-5,-1,-4,-5,-1,-2,-6,-0.064780477
0.513530,4,20,-4,-1,2,1,-6,-18,-0.064780477
0.513535,-11,-27,-4,2,-1,0,1,14,-0.064780477
0.513541,2,13,-14,-5,0,-2,2,-2,-0.064780477
0.513546,-1,-4,1,1,3,2,-4,-12,-0.064780477
0.513551,15,-28,7,-8,-3,-2,2,3,-0.064780477
0.513557,-19,67,-34,-8,-2,-3,-1,3,-0.064780477
0.513563,8,-24,12,-4,-1,-1,-4,-20,-0.064780477
0.513568,3,-18,9,10,2,-1,0,2,-0.064780477
0.513574,-4,-6,2,-2,-5,-2,-3,7,-0.064780477
0.513579,19,11,-14,-2,-2,-2,0,-8,-0.064780477
0.513585,-17,7,11,-3,0,-1,-3,-6,-0.064780477
0.513590,6,22,-11,-5,-3,-3,3,10,-0.064780477
0.513596,4,-18,10,3,-1,-2,0,-1,-0.064780477
0.513601,9,-12,-1,-1,0,1,-1,-5,-0.064780477
0.513607,-8,-26,-9,2,0,0,-2,1,-0.064780477
0.513612,-1,32,15,2,-3,-1,1,1,-0.064780477
0.513618,-7,31,-5,0,1,0,-1,-2,-0.064780477
0.513623,16,28,6,2,-1,-1,-2,-7,-0.064780477
0.513629,-8,-64,-5,-1,-3,-2,1,5,-0.064780477
0.513634,0,9,-13,-6,-2,-3,-2,-2,-0.064780477
0.513639,-15,7,-3,3,1,1,0,0,-0.064780477
0.513645,23,-4,-7,1,1,-2,2,3,-0.064780477
0.513651,1,38,24,8,0,2,1,0,-0.064780477
0.513656,-14,-58,-1,3,-1,-2,1,4,-0.064780477
0.513661,14,63,-6,-7,-1,-1,-3,6,-0.064780477
0.513667,-25,-24,2,-3,-4,-1,-1,-4,-0.064780477
0.513673,14,-15,-14,-1,-1,0,1,4,-0.064780477
0.513678,-24,-14,-22,-10,-3,0,-1,-4,-0.064780477
0.513683,14,66,25,8,0,1,3,2,-0.064780477
0.513689,10,0,2,0,-2,-2,-2,2,-0.064780477
0.513695,1,9,-6,-2,-1,-1,-4,-1,-0.064780477
0.513700,13,12,-1,-2,2,-1,-1,2,-0.064780477
0.513706,-17,-44,-12,-2,-5,-3,1,1,-0.064780477
0.513712,-1,6,7,1,1,-2,-1,-3,-0.064780477
0.513717,-4,3,-5,0,-2,0,-1,1,-0.064780477
0.513722,6,8,-1,-2,-2,0,-1,0,-0.064780477
0.513728,-14,-10,-10,0,-1,-1,-2,-6,-0.064780477
0.513733,25,-30,18,5,2,1,1,7,-0.064780477
0.513739,5,-4,-15,-6,-2,-3,-2,-3,-0.064780477
0.513744,-17,-6,6,0,1,-1,-2,-3,-0.064780477
0.513750,10,11,-10,-5,-1,-2,-1,-1,-0.064780477
0.513755,-3,-15,10,-2,-4,-1,-1,1,-0.064780477
0.513761,13,46,-5,0,-1,-1,-3,1,-0.064780477
0.513766,-59,-37,10,0,0,-2,0,8,-0.064780477
0.513771,0,-19,-20,-9,0,0,1,-1,-0.064780477
0.513777,9,25,7,-5,0,-3,-3,0,-0.064780477
0.513783,-21,-34,7,4,-2,0,0,3,-0.064780477
0.514641,5,38,-6,-1,-1,0,0,-1,-0.064780477
0.514648,-4,-14,0,-3,1,-4,0,3,-0.064780477
0.516448,-12,-14,-17,-3,-2,1,1,-3,-0.064780477
0.516472,5,19,4,-6,-1,0,0,0,-0.064780477
0.528882,19,39,1,2,0,2,-2,-3,-0.064780477
0.528914,8,-27,-3,5,-2,1,-2,0,-0.064780477
0.538746,-12,-16,-4,-4,-4,1,0,0,-0.064780477
0.538751,-6,12,-2,1,0,0,-1,2,-0.064780477
0.552345,1,-4,5,0,0,-2,-2,-2,-0.064780477
0.552362,-12,-15,0,-1,-3,-1,-2,-3,-0.064780477
0.553712,6,13,4,1,1,-1,0,5,-0.064780477
0.553727,-5,18,-7,-2,0,-1,-2,0,-0.064780477
0.574873,7,-25,12,-2,0,-3,0,-2,-0.064780477
0.574891,9,-4,-4,2,0,0,-2,2,-0.064780477
0.576159,3,21,13,1,0,-1,1,3,-0.064780477
0.576166,-9,7,-10,-2,-3,-1,-1,-1,-0.064780477
0.588751,9,-60,-12,-1,-2,-3,-2,-3,-0.064780477
0.588777,-11,-3,12,0,0,0,0,5,-0.064780477
0.598315,5,5,7,3,1,-1,2,-2,-0.064780477
0.598326,4,-7,-6,-1,1,0,0,-4,-0.064780477
0.612379,3,14,-6,-6,-4,-3,-1,4,-0.064780477
0.612403,-5,9,5,1,-2,-1,0,0,-0.064780477
0.613754,3,-10,-13,1,-1,-2,-1,-2,-0.064780477
0.614046,-9,-15,3,-2,-2,-1,2,-1,-0.064780477
0.634756,24,27,5,4,-1,0,2,7,-0.064780477
0.634783,-1,-18,-10,3,0,-1,-2,-5,-0.064780477
0.636266,9,26,2,-5,-3,-1,-5,-2,-0.064780477
0.636295,-8,-34,-1,-1,-3,-3,-1,5,-0.064780477
0.648711,7,7,-5,-5,-3,-1,-1,-4,-0.064780477
0.648780,-10,7,-5,-2,-1,-1,-2,-1,-0.064780477
0.657373,-9,-4,-4,-1,-1,-1,1,0,-0.064780477
0.657387,5,21,2,0,-1,0,-2,-2,-0.064780477
0.672848,4,-11,-1,2,1,1,0,-6,-0.064780477
0.672859,5,-24,0,-1,-2,-2,1,7,-0.064780477
0.673754,-11,3,2,-3,-2,-2,-1,-7,-0.064780477
0.673761,12,8,4,-1,-2,-2,-2,0,-0.064780477
0.694651,-13,-10,2,2,1,1,0,0,-0.064780477
0.694669,3,29,-5,-3,-2,0,-2,-5,-0.064780477
0.696472,5,-33,-29,-1,0,0,0,4,-0.064780477
0.696491,16,-14,55,5,1,1,-2,-5,-0.064780477
0.708444,-11,14,-12,-6,-3,-3,-2,2,-0.064780477
0.708462,-5,-17,4,-1,1,0,0,-9,-0.064780477
0.718867,-20,-7,-17,-5,0,-1,-1,1,-0.064780477
0.718874,-5,17,-1,0,0,-1,-4,-1,-0.064780477
0.730873,4,6,-11,1,0,-1,1,-3,-0.064780477
0.730892,5,4,3,-3,-2,-3,-4,-1,-0.064780477
0.740589,-7,-20,1,1,-1,-1,-1,-7,-0.064780477
0.740596,-5,-6,-15,-4,0,2,1,-3,-0.064780477
0.754617,0,6,1,-4,-2,-1,-1,-5,-0.064780477
0.754641,3,-17,-4,-5,0,1,-1,-4,-0.064780477
0.761436,14,15,4,0,-1,0,-1,-3,-0.064504562
0.762868,-27,-4,-3,3,1,0,-2,3,-0.064504562
0.777138,-2,-3,4,-2,-1,1,-2,-3,-0.064504562
0.777156,-7,-5,-1,1,-1,-1,-1,-1,-0.064504562
0.778964,7,7,3,-4,-3,-2,-4,0,-0.064504562
0.778998,-4,-7,0,0,-2,-1,-2,-13,-0.064504562
0.792768,1,-3,-13,0,-1,0,-1,2,-0.064504562
0.792793,7,-23,7,-1,-1,-1,3,-2,-0.064504562
0.794997,-8,13,-7,0,2,-1,0,0,-0.064504562
0.795003,-10,-25,-8,-3,-2,-3,-1,2,-0.064504562
0.815307,5,12,-5,0,-2,-1,0,3,-0.064504562
0.815314,-5,4,9,2,1,-1,-1,-1,-0.064504562
0.816342,5,-6,-6,-3,-2,0,1,9,-0.064504562
0.816354,1,-15,-9,-2,-2,-2,-1,0,-0.064504562
0.837254,-13,5,7,0,2,-1,-2,-11,-0.064504562
0.837280,-2,-1,-9,-4,-2,1,-1,1,-0.064504562
0.839045,8,-2,8,0,-4,-1,-1,4,-0.064504562
0.839060,-7,4,3,-2,-2,-2,2,-8,-0.064504562
0.851786,-10,-12,-3,-2,-1,-3,-5,-2,-0.064504562
0.851808,-4,6,3,1,-1,-2,2,5,-0.064504562
0.858388,5,0,9,0,0,-2,-2,1,-0.064504562
0.858405,10,15,-6,-2,-2,0,0,-3,-0.064504562
0.876140,11,0,3,-3,-2,-1,0,-8,-0.064504562
0.876148,-9,-9,-1,0,-2,-1,0,2,-0.064504562
0.876151,-15,1,-6,-3,-1,-1,-3,-5,-0.064504562
0.876221,8,1,1,0,2,1,-2,3,-0.064504562
0.897557,-13,-9,4,2,0,-1,0,2,-0.064504562
0.899797,13,-8,-26,-4,-3,-4,-3,-3,-0.064504562
0.899804,-5,24,21,4,-2,1,-1,1,-0.064504562
0.899806,-2,0,-4,0,0,-3,3,1,-0.064504562
0.911892,12,7,4,-1,-3,-1,3,6,-0.064504562
0.911925,3,-7,-7,-2,-1,-2,-3,-3,-0.064504562
0.918429,11,-4,-6,-2,2,-1,3,-2,-0.064504562
0.918451,-1,10,4,-2,0,-1,-1,0,-0.064504562
0.934819,11,8,6,0,-1,-1,-2,6,-0.064504562
0.934854,-7,-18,0,0,-1,1,2,-3,-0.064504562
0.937111,14,-33,1,-1,-1,-1,-3,-2,-0.064504562
0.937121,1,22,-13,-5,1,-1,0,1,-0.064504562
0.957197,-7,-16,-4,-1,-1,2,2,2,-0.064504562
0.957216,0,32,15,1,1,-1,0,-3,-0.064504562
0.958818,-1,-1,4,3,-2,-2,-3,4,-0.064504562
0.958839,13,-15,-11,-1,-2,0,0,2,-0.064504562
0.971742,-20,-7,4,-1,0,0,-3,9,-0.064504562
0.971766,-10,2,-3,-2,0,-1,-4,3,-0.064504562
0.978766,0,13,1,-2,-3,-1,-1,2,-0.064504562
0.978803,-4,-1,-3,-3,-2,0,-1,-3,-0.064504562
0.995114,22,-2,0,-2,0,0,1,8,-0.064504562
0.995147,-21,37,4,2,-2,0,0,6,-0.064504562
0.996379,-5,-30,3,0,-2,0,3,-7,-0.064504562
0.996388,10,-7,-2,-3,-3,-3,-4,-9,-0.064504562
1.017248,0,2,1,2,2,-4,-2,0,-0.064680968
1.017267,14,11,0,-3,-2,2,-1,3,-0.064680968
1.018771,-8,9,-1,0,-2,1,-1,-20,-0.064680968
1.018789,-5,3,-7,-5,-1,-2,-1,3,-0.064680968
1.030758,-1,-22,5,0,-2,-2,1,-2,-0.064680968
1.030766,-9,-33,-4,-1,-2,-2,-3,-4,-0.064680968
1.041614,-4,19,-4,-3,0,-3,-3,-4,-0.064680968
1.041623,7,21,0,5,-3,0,-1,2,-0.064680968
1.054926,-9,10,-3,-3,-4,-2,1,-3,-0.064680968
1.054958,6,-58,5,0,1,-1,1,-2,-0.064680968
1.056460,-7,8,3,0,-1,0,0,6,-0.064680968
1.056466,-9,6,-2,0,0,-2,-2,-1,-0.064680968
1.077317,4,24,-4,-1,-1,-1,-2,-2,-0.064680968
1.077327,2,13,2,1,-3,-3,0,-5,-0.064680968
1.079019,4,-4,-6,-4,-3,-3,0,4,-0.064680968
1.079062,-3,-5,4,-1,-2,-3,0,-4,-0.064680968
1.092243,0,-11,-4,-2,0,0,3,-1,-0.064680968
1.092248,-1,18,0,4,-3,-2,-6,0,-0.064680968
1.100589,-8,-74,-13,-7,-1,0,-1,-4,-0.064680968
1.100599,3,12,5,-1,-2,0,0,2,-0.064680968
1.114710,7,-1,1,2,-2,-1,-2,-1,-0.064680968
1.114732,-6,4,-2,0,-1,-1,0,-2,-0.064680968
1.116319,8,28,-5,-4,3,0,-1,-3,-0.064680968
1.116342,-9,-22,5,3,-1,0,-5,-6,-0.064680968
1.137223,10,9,4,-2,-2,-1,-1,0,-0.064680968
1.137245,-3,-14,-5,-4,1,-1,0,-1,-0.064680968
1.138908,-16,0,-2,0,0,-1,-2,-2,-0.064680968
1.138934,-6,-22,-3,-5,-2,-2,0,6,-0.064680968
1.150902,-2,16,-33,-5,-2,-3,-3,-4,-0.064680968
1.150974,-7,17,13,-1,2,-1,-1,-3,-0.064680968
1.160127,14,-12,10,4,-2,-3,2,7,-0.064680968
1.160134,-23,-15,-5,1,-5,-2,0,12,-0.064680968
1.174722,6,28,9,-2,2,-1,0,-5,-0.064680968
1.174747,-3,-34,-21,-5,-2,0,-2,-5,-0.064680968
1.176354,7,2,-2,-5,0,-2,0,6,-0.064680968
1.176380,11,32,7,3,-1,0,-1,-5,-0.064680968
1.197186,-4,-79,-7,-1,-1,0,-4,0,-0.064680968
1.197212,12,41,5,0,-1,-2,3,7,-0.064680968
1.198826,-7,-13,3,3,1,0,0,-1,-0.064680968
1.198843,3,10,-3,-2,-1,-1,-1,-16,-0.064680968
1.213632,-5,-1,5,2,1,0,4,62,-0.064680968
1.213662,2,10,2,-1,-2,-1,-1,24,-0.064680968
1.219880,-7,1,-4,0,-3,0,-2,1,-0.064680968
1.219910,4,-36,-4,-4,-1,-1,3,1,-0.064680968
1.235346,-2,14,2,-3,-2,-1,-3,-13,-0.064680968
1.235377,-14,-14,2,-3,-1,1,-2,-2,-0.064680968
1.238110,3,-19,-4,-2,-3,-2,-1,6,-0.064680968
1.238118,19,39,-6,0,1,-1,0,3,-0.064680968
1.258773,-25,-13,5,2,-4,-3,-2,-15,-0.064680968
1.258801,15,4,-12,-6,0,0,-2,-9,-0.064680968
1.264683,-6,-4,-2,4,1,2,-4,-4,-0.064721677
1.264710,-9,4,-4,2,1,1,-1,4,-0.064721677
1.279695,3,-10,4,0,-1,-3,-2,-24,-0.064721677
1.279711,3,25,-3,-1,-2,-2,1,-1,-0.064721677
1.281344,1,13,-1,-4,-4,-1,0,10,-0.064721677
1.281365,-4,3,-1,0,1,17,-1,1,-0.064721677
1.302161,19,14,2,3,0,-3,-1,0,-0.064721677
1.302180,-2,-64,-8,-8,-5,-10,-2,-4,-0.064721677
1.303603,15,17,2,9,2,-10,-3,-4,-0.064721677
1.303614,-8,4,5,7,-2,-8,0,0,-0.064721677
1.316855,12,16,-2,-3,-3,3,-2,1,-0.064721677
1.316885,-3,-8,4,2,-2,2,-1,-6,-0.064721677
1.323877,-6,39,-6,-4,1,1,-1,-16,-0.064721677
1.323908,3,-33,1,-4,-4,-4,1,0,-0.064721677
1.339775,-16,14,2,0,0,1,-2,-11,-0.064721677
1.339806,0,-3,1,1,2,-2,6,29,-0.064721677
1.341711,-1,2,1,-1,1,2,1,1,-0.064721677
1.341741,4,27,-6,-4,-3,-3,-2,-4,-0.064721677
1.362228,-15,-39,-2,-3,-2,-3,-3,-21,-0.064721677
1.362252,-4,10,4,11,0,0,-5,-11,-0.064721677
1.363885,14,6,-12,13,1,35,2,0,-0.064721677
1.363894,-6,0,17,19,2,1,2,12,-0.064721677
1.376546,5,-72,-24,8,-2,-28,-1,-1,-0.064721677
1.376564,9,18,4,-20,-1,-25,0,-49,-0.064721677
1.383382,-72,-35,3,-12,-3,-21,-1,23,-0.064721677
1.383404,18,22,-1,-2,-1,0,-4,5,-0.064721677
1.400925,-17,35,2,4,2,17,-1,21,-0.064721677
1.400952,0,-45,3,5,-2,53,-3,9,-0.064721677
1.403249,4,33,-5,-13,-2,-37,-2,-22,-0.064721677
1.403273,-10,-32,-1,-8,0,-21,-2,-19,-0.064721677
1.422132,20,10,7,-8,-3,-24,1,5,-0.064721677
1.422150,-1,22,4,-2,-1,-4,-1,4,-0.064721677
1.423859,13,2,6,-5,-5,13,-2,-7,-0.064721677
1.423883,-7,-16,1,-6,2,1,1,13,-0.064721677
1.436500,-6,7,2,-13,-1,10,-4,-43,-0.064721677
1.436516,5,-12,-4,-24,4,7,4,47,-0.064721677
1.443488,3,-12,-5,-16,-2,5,2,32,-0.064721677
1.443512,-5,-10,-4,9,-1,-4,-1,-14,-0.064721677
1.459685,10,12,5,62,-2,12,5,-18,-0.064721677
1.459706,-3,20,5,57,1,-2,-3,-14,-0.064721677
1.461090,20,0,1,4,-9,-11,-6,1,-0.064721677
1.461099,-9,12,-11,-31,0,47,-4,8,-0.064721677
1.482994,-2,2,-16,-57,6,14,23,14,-0.064721677
1.483013,-13,6,-18,32,-3,-44,4,-5,-0.064721677
1.483821,25,-9,-7,37,2,-29,-14,-6,-0.064721677
1.483862,-1,-11,1,24,-2,-24,-24,-19,-0.064721677
1.496224,-7,20,11,40,-13,5,-21,10,-0.064721677
1.497700,-25,9,3,-22,7,12,76,-68,-0.064721677
1.505416,0,-14,9,-35,-1,4,20,4,-0.064721677
1.505421,8,17,76,58,-2,4,-39,42,-0.064721677
1.519823,-27,-9,2,102,1,1,-31,36,-0.064721677
1.519842,45,-10,-2,121,-7,0,-36,21,-0.064721677
1.521388,-36,21,-49,119,-1,8,-3,-22,-0.064581458
1.521405,14,-14,-53,-106,-3,-2,21,-34,-0.064581458
1.542185,-2,-39,-28,-128,2,-2,6,13,-0.064581458
1.543033,-21,34,-29,-128,-1,-5,-5,-25,-0.064581458
1.543914,6,7,3,-114,2,7,33,-14,-0.064581458
1.543995,-4,2,-1,47,-2,-4,-16,-9,-0.064581458
1.556047,-6,-16,22,74,0,-8,-13,-28,-0.064581458
1.556073,16,-11,11,84,-12,1,-25,15,-0.064581458
1.566566,0,-45,30,86,3,5,-2,12,-0.064581458
1.566574,-12,30,17,56,-3,-7,34,11,-0.064581458
1.579860,29,37,109,110,-3,-3,42,4,-0.064581458
1.579889,-7,-21,49,120,-3,2,-21,32,-0.064581458
1.581414,0,34,11,93,-8,1,-22,10,-0.064581458
1.581436,-6,-49,-10,-13,-6,-9,-16,6,-0.064581458
1.602194,-5,4,-111,-107,3,-1,-3,8,-0.064581458
1.602213,-1,-4,3,-128,3,0,7,-14,-0.064581458
1.604404,-15,-1,-111,-125,4,1,31,-32,-0.064581458
1.604412,-2,-5,-116,-101,9,0,-4,-15,-0.064581458
1.615779,-5,0,-122,-128,-2,-2,-31,-17,-0.064581458
1.615796,23,11,-128,-128,5,2,-29,-10,-0.064581458
1.625743,-66,-33,-58,26,-4,2,-32,-27,-0.064581458
1.625749,11,-13,42,108,-1,1,25,58,-0.064581458
1.639935,-3,3,107,127,-5,-3,65,-3,-0.064581458
1.639942,7,-3,79,127,-5,-3,12,1,-0.064581458
1.641200,33,35,103,100,1,0,-34,27,-0.064581458
1.641207,3,7,66,99,-4,-2,-20,-8,-0.064581458
1.662159,6,5,39,69,0,-2,-46,-6,-0.064581458
1.662207,-37,9,18,11,0,-3,3,7,-0.064581458
1.664938,-5,0,17,-9,-1,1,24,-1,-0.064581458
1.664945,14,2,1,0,-1,-1,-2,-12,-0.064581458
1.676636,-31,-17,-15,-27,0,-2,3,6,-0.064581458
1.676668,-3,0,1,-14,-2,1,114,4,-0.064581458
1.686701,26,17,20,-9,-3,0,-47,-15,-0.064581458
1.686709,-2,-14,-16,-29,1,-3,-48,-17,-0.064581458
1.702084,18,33,-9,-23,-1,1,-34,4,-0.064581458
1.702099,-22,-35,-6,5,-3,-3,-30,-4,-0.064581458
1.702103,10,-12,10,-9,2,-2,13,1,-0.064581458
1.702105,-7,1,-11,-22,-1,-3,26,-2,-0.064581458
1.722325,5,-13,-22,-9,-5,0,6,-5,-0.064581458
1.722350,6,3,25,5,-1,0,-19,-2,-0.064581458
1.723694,4,20,5,-24,1,1,18,9,-0.064581458
1.723707,-5,-21,-7,-4,0,-1,6,-5,-0.064581458
1.735959,-9,-2,5,1,-2,0,8,-4,-0.064581458
1.735977,1,23,-21,-4,-4,-1,-19,-2,-0.064581458
1.747712,8,-7,0,-10,-1,-3,-1,1,-0.064581458
1.747717,-15,-15,2,-4,-2,-3,13,-2,-0.064581458
1.760139,7,-8,-10,5,2,-1,-1,-3,-0.064581458
1.760170,-3,-10,7,-4,-5,-2,-13,-3,-0.064581458
1.763598,30,14,10,0,1,2,-1,1,-0.064581458
1.763611,-36,44,-9,-7,8,-2,6,-17,-0.064581458
1.782570,0,-6,5,-3,-9,-1,9,26,-0.064680968
1.782577,-14,-8,-2,3,9,-2,-16,-1,-0.064680968
1.784026,15,-29,-4,-8,-3,-2,-2,-9,-0.064680968
1.784050,-41,2,5,-1,0,4,7,-9,-0.064680968
1.795802,-64,0,-7,-2,-4,-3,-1,-4,-0.064680968
1.795833,1,9,-2,-1,-1,-1,-12,-4,-0.064680968
1.806036,-32,-21,-5,-4,-3,0,-2,-17,-0.064680968
1.806043,26,25,-1,1,-6,-3,7,8,-0.064680968
1.819833,6,-12,5,-3,1,-3,-4,-12,-0.064680968
1.819858,-6,0,-7,0,-1,-2,-7,-4,-0.064680968
1.822321,-7,1,3,-4,2,-2,0,-8,-0.064680968
1.822328,21,-4,2,-4,-6,0,0,2,-0.064680968
1.849749,7,-9,-1,0,3,2,1,-1,-0.064680968
1.849778,0,-1,-7,-2,-2,-1,-3,-6,-0.064680968
1.851604,5,-1,4,0,-2,-2,-1,13,-0.064680968
1.851611,12,-17,-4,-2,-2,-3,-2,-7,-0.064680968
1.855854,18,3,-1,-2,1,-2,-4,-35,-0.064680968
1.855874,-17,7,-3,3,-1,-4,-2,-2,-0.064680968
1.865190,-7,5,0,-1,-1,-1,-2,-2,-0.064680968
1.865197,14,-35,-9,-6,-8,-2,-1,22,-0.064680968
1.879626,-35,0,-2,-1,8,-1,-6,-13,-0.064680968
1.879644,30,6,1,-1,-5,-2,9,8,-0.064680968
1.881206,-36,-8,3,-1,-3,0,48,3,-0.064680968
1.881230,16,15,-1,-2,6,-1,-34,-31,-0.064680968
1.903983,51,17,3,1,-6,-1,-26,19,-0.064680968
1.903995,-27,12,-2,-3,-2,-1,-28,-6,-0.064680968
1.903998,-12,-6,-3,0,0,0,-11,23,-0.064680968
1.904001,1,-15,4,1,-1,2,19,10,-0.064680968
1.916302,16,-13,-3,-6,-1,-2,7,-2,-0.064680968
1.916343,22,21,-4,5,2,-1,4,8,-0.064680968
1.926236,16,8,-1,-3,-3,-1,-2,-10,-0.064680968
1.926242,-27,-19,-2,0,-1,-1,11,6,-0.064680968
1.940714,-11,31,1,-2,1,-1,-4,-22,-0.064680968
1.940739,9,13,-7,-1,-4,-1,5,10,-0.064680968
1.945996,-20,-5,-12,-2,0,-3,-4,-7,-0.064680968
1.946014,8,18,6,-4,-1,-1,-3,5,-0.064680968
1.962568,-10,-7,-11,-4,0,-1,4,7,-0.064680968
1.963437,-20,-26,8,-1,2,1,-2,-29,-0.064680968
1.963600,-2,2,2,3,-1,1,-6,4,-0.064680968
1.963607,5,23,-4,-4,-1,0,-2,-12,-0.064680968
1.975876,6,-12,2,1,-2,-2,4,-5,-0.064680968
1.975893,1,1,0,1,1,2,7,18,-0.064680968
1.985206,30,2,-1,-3,0,-4,-10,1,-0.064680968
1.985223,-7,-35,-7,-1,-4,0,0,-10,-0.064680968
1.999826,6,2,7,4,0,1,7,6,-0.064680968
1.999848,-4,-4,-3,-3,-2,-3,-5,-1,-0.064680968
2.001339,-39,-3,0,-3,4,0,-2,-6,-0.064680968
2.001358,7,11,-1,1,-4,-2,7,17,-0.064680968
2.022438,7,-6,1,2,1,-2,2,9,-0.064680968
2.022459,16,-1,1,-4,2,-1,-4,-7,-0.064680968
2.023830,-31,1,-2,0,-2,-1,-1,-3,-0.064680968
2.023839,34,25,0,-4,0,0,-3,-7,-0.064680968
2.036219,-44,-42,-10,-1,-1,-2,-2,-3,-0.064744289
2.036239,33,-10,5,1,2,0,2,-2,-0.064744289
2.046286,3,12,3,2,0,-3,-2,5,-0.064744289
2.046291,-9,-7,-6,-2,2,-1,-3,-10,-0.064744289
2.059717,19,1,-4,-5,-1,1,28,10,-0.064744289
2.059736,-10,10,15,5,-1,2,112,12,-0.064744289
2.061479,44,2,-3,-2,-2,-2,-93,-4,-0.064744289
2.061503,-16,7,-2,-3,0,2,-94,-2,-0.064744289
2.082179,0,-4,-1,1,1,-1,-88,7,-0.064744289
2.082193,8,1,-8,-4,-4,-5,-35,11,-0.064744289
2.085255,-18,-7,3,-7,-6,-1,39,-8,-0.064744289
2.085266,-27,-13,3,4,15,-2,21,9,-0.064744289
2.096213,41,28,4,-2,-3,-4,13,-14,-0.064744289
2.096234,0,-17,-11,1,-2,-4,-2,-21,-0.064744289
2.105837,-1,-4,-1,1,-2,2,20,-6,-0.064744289
2.105844,7,4,0,-2,-9,-2,11,17,-0.064744289
2.119608,-12,7,1,-9,-1,0,20,-17,-0.064744289
2.119740,-18,-40,-4,2,1,0,-11,4,-0.064744289
2.125859,8,78,10,-7,-7,-2,-7,7,-0.064744289
2.125877,-10,-11,-3,5,-2,-3,15,-20,-0.064744289
2.142267,5,5,1,-3,1,-1,12,9,-0.064744289
2.142305,-12,-22,-8,-2,-1,1,-25,1,-0.064744289
2.143636,-6,-14,-7,-1,3,-2,-3,2,-0.064744289
2.143650,35,18,8,-2,-3,-2,15,0,-0.064744289
2.164763,-32,4,-1,3,0,1,3,11,-0.064744289
2.164847,-13,14,2,-2,-3,-1,-22,3,-0.064744289
2.166594,15,-29,-11,-1,0,-2,7,0,-0.064744289
2.166605,-6,18,1,-5,0,-1,7,-8,-0.064744289
2.179667,-29,-45,-3,3,-2,-6,-2,9,-0.064744289
2.179685,31,2,1,0,2,0,-10,-5,-0.064744289
2.181495,-34,-2,-4,1,4,0,3,-3,-0.064744289
2.181528,-4,-8,-2,0,-10,-1,5,4,-0.064744289
2.203620,4,12,0,-2,2,0,-3,-3,-0.064744289
2.203628,-2,24,0,-4,-1,-2,-7,-6,-0.064744289
2.203719,30,-22,0,1,1,1,-1,-13,-0.064744289
2.203726,-17,8,2,1,-1,-1,1,0,-0.064744289
2.224719,-11,-10,0,0,-2,-1,-1,-4,-0.064744289
2.224740,0,15,-1,-4,-2,-3,-4,-10,-0.064744289
2.227682,12,-16,2,4,2,0,0,-12,-0.064744289
2.227689,-6,-1,-8,-9,-7,0,-1,0,-0.064744289
2.239877,9,-20,6,3,-1,1,2,-2,-0.064744289
2.239897,-29,8,-9,-3,-9,-4,-12,-30,-0.064744289
2.241410,-2,-22,1,-1,16,-3,0,-1,-0.064744289
2.241479,15,-6,-2,0,-1,0,4,6,-0.064744289
2.263104,29,20,3,2,1,-2,-2,-2,-0.064744289
2.263143,-30,-12,-3,-4,-5,-1,-3,12,-0.064744289
2.265170,23,-3,0,1,-4,0,1,9,-0.064744289
2.265175,-21,-33,-4,-2,4,-2,5,16,-0.064744289
2.284950,13,-2,1,-1,-3,0,5,8,-0.064744289
2.284969,-9,18,0,1,2,0,-2,0,-0.064744289
2.288169,-13,6,2,0,-5,-2,-3,-2,-0.064744289
2.288175,2,-9,-3,-2,-1,-2,-6,-11,-0.064744289
2.299668,9,21,2,4,-5,-1,-4,-5,-0.064219604
2.299675,-24,-20,0,-1,-6,0,-2,5,-0.064219604
2.305943,9,23,1,0,16,4,3,0,-0.064219604
2.305964,6,32,0,0,-2,-2,3,23,-0.064219604
2.322402,-26,-32,-7,-3,-4,-1,-2,0,-0.064219604
2.322426,15,28,0,0,-2,-1,-2,-19,-0.064219604
2.325720,-12,-11,0,0,-7,-1,-4,-2,-0.064219604
2.325728,0,-23,0,2,2,-1,-1,-16,-0.064219604
2.344760,-10,26,-2,-4,-6,0,-1,2,-0.064219604
2.344850,36,-11,0,-6,13,-1,-1,5,-0.064219604
2.346556,-14,-4,0,8,-9,-1,-1,1,-0.064219604
2.346573,-27,-18,-3,-3,-3,-2,0,-8,-0.064219604
2.359733,4,-20,-7,-5,5,-1,-4,3,-0.064219604
2.359753,10,-18,0,-3,0,1,-1,-9,-0.064219604
2.368949,8,28,-6,-7,-3,-1,1,17,-0.064219604
2.368961,-12,-20,6,4,-5,-5,-3,-2,-0.064219604
2.383319,0,1,-5,8,2,-2,0,-9,-0.064219604
2.383351,-2,-17,2,5,-2,-2,-2,4,-0.064219604
2.386046,17,33,-7,-9,0,1,0,-2,-0.064219604
2.386054,11,-9,10,1,0,-1,-1,-2,-0.064219604
2.405961,-8,-1,-3,-6,0,-1,4,-9,-0.064219604
2.405969,-24,-8,-4,-3,-4,-2,-6,14,-0.064219604
2.406301,3,-1,0,0,-10,-1,4,5,-0.064219604
2.406308,5,4,-3,-1,6,1,7,38,-0.064219604
2.418406,22,13,1,-5,-8,-2,-2,-7,-0.064219604
2.418435,-10,1,0,3,13,5,-1,2,-0.064219604
2.427985,-3,-22,0,-2,-8,-2,0,7,-0.064219604
2.427995,-3,15,-2,4,2,1,-4,-9,-0.064219604
2.442172,-10,-5,0,-2,-10,2,-1,-1,-0.064219604
2.442190,12,12,2,-4,-4,-2,-1,9,-0.064219604
2.443654,-16,-43,-2,-4,1,-1,-3,-10,-0.064219604
2.443661,-2,10,-6,-5,-2,-2,0,-9,-0.064219604
2.465090,13,17,1,1,0,0,-2,5,-0.064219604
2.465130,1,-10,-1,-1,-2,-3,2,6,-0.064219604
2.467527,-32,-14,0,1,1,-3,-1,0,-0.064219604
2.467536,-12,-3,-5,-3,-5,-1,-5,-8,-0.064219604
2.479498,6,-11,0,-3,2,-2,2,7,-0.064219604
2.479531,1,-15,-1,-1,2,-1,-3,-16,-0.064219604
2.485863,-13,-4,4,-1,1,0,4,11,-0.064219604
2.485887,9,5,-4,2,0,0,-3,-12,-0.064219604
2.502250,4,16,-2,0,-3,0,0,6,-0.064219604
2.502269,9,11,0,-1,2,1,0,-8,-0.064219604
2.504330,-2,9,1,-1,-1,-2,-3,-4,-0.064219604
2.504336,29,-17,-1,-2,0,1,0,-5,-0.064219604
2.524794,-36,-7,1,-1,1,-1,-3,-7,-0.064219604
2.524815,4,-2,-2,1,-6,-1,2,11,-0.064219604
2.526269,4,3,-3,-2,-1,-2,-1,-1,-0.064219604
2.526283,7,3,2,-3,-13,-2,-1,6,-0.064219604
2.539212,10,18,2,1,16,1,-1,-8,-0.064219604
2.539233,-46,-15,2,-7,-4,-3,0,17,-0.064219604
2.545720,34,4,-1,4,1,-1,-4,-1,-0.064834755
2.545738,-15,17,-2,-1,-2,-1,-5,-10,-0.064834755
2.562088,0,-18,1,-1,-5,-1,-1,1,-0.064834755
2.562096,15,0,-3,1,2,1,7,30,-0.064834755
2.564011,5,42,0,-1,3,-2,2,-5,-0.064834755
2.564025,-24,-22,-11,-3,0,-1,-4,-8,-0.064834755
2.584814,22,-23,8,-2,-2,-3,-2,1,-0.064834755
2.584995,-8,19,-4,3,3,-1,-2,9,-0.064834755
2.586613,-12,-11,-2,1,-3,2,-1,-5,-0.064834755
2.586626,4,7,-5,-1,3,-1,1,0,-0.064834755
2.599295,-1,67,-9,-8,-2,-2,-2,4,-0.064834755
2.599313,38,-41,-7,2,-7,-4,-4,-18,-0.064834755
2.605790,-45,-23,-2,-2,2,-1,-1,5,-0.064834755
2.605821,-16,5,6,6,2,0,2,-2,-0.064834755
2.622979,-3,-8,-6,-3,-2,0,-6,-10,-0.064834755
2.622995,-8,5,7,-5,-2,-2,0,-12,-0.064834755
2.623812,12,9,-5,-3,-2,0,-3,0,-0.064834755
2.623822,14,-4,2,-1,2,-2,-1,2,-0.064834755
2.644868,-15,-11,-2,0,-2,1,-2,-7,-0.064834755
2.644893,2,19,-3,1,-1,-1,1,-1,-0.064834755
2.646821,7,-12,3,1,0,-2,-1,1,-0.064834755
2.646826,-14,-20,-4,-4,1,-1,-2,-3,-0.064834755
2.658271,7,-15,0,0,-5,0,-5,-7,-0.064834755
2.658331,-1,16,2,-2,7,-1,-3,-12,-0.064834755
2.669225,10,-7,-2,-1,-6,-2,-3,-7,-0.064834755
2.669232,-19,7,2,-5,1,-1,1,2,-0.064834755
2.682414,-26,-34,-5,-2,0,-1,5,-9,-0.064834755
2.682445,22,13,-3,0,-2,-2,-1,7,-0.064834755
2.685058,-13,12,-1,-3,-1,-2,-4,-12,-0.064834755
2.685067,-5,-6,0,0,0,-1,-3,-10,-0.064834755
2.704849,-2,-14,3,5,1,-2,1,9,-0.064834755
2.704877,-20,-6,-3,0,-4,2,0,-7,-0.064834755
2.706530,-9,-8,-1,-3,0,0,-1,-1,-0.064834755
2.706548,13,-25,-2,-1,-3,1,-3,-1,-0.064834755
2.718433,-23,32,-4,-2,0,-2,-3,-1,-0.064834755
2.718448,7,-14,0,-4,-1,0,-4,-5,-0.064834755
2.728654,14,9,1,-1,-3,-2,1,8,-0.064834755
2.728659,13,3,2,1,3,1,7,22,-0.064834755
2.742504,-1,9,-1,1,0,-1,-2,-8,-0.064834755
2.742536,4,6,-1,-2,-4,-2,-2,1,-0.064834755
2.745350,-8,-9,-5,-2,-1,0,2,4,-0.064834755
2.745360,5,3,1,-2,-2,-1,-4,-9,-0.064834755
2.765025,16,9,1,-1,-5,-1,1,2,-0.064834755
2.765082,5,4,-1,0,6,2,2,7,-0.064834755
2.766694,9,6,-4,-2,4,-1,4,29,-0.064834755
2.766713,-15,-11,-2,-4,-7,-2,-1,-9,-0.064834755
2.778284,5,-3,0,0,-2,1,0,5,-0.064834755
2.778308,-3,-6,1,-3,12,0,-3,-12,-0.064834755
2.787941,-2,-1,2,2,-11,-2,-2,-7,-0.064834755
2.787949,37,-2,-1,-1,2,-4,-3,-10,-0.064834755
2.802203,-2,22,2,-2,-1,-2,0,9,-0.064658350
2.802224,30,-30,-15,-6,-8,-2,0,-5,-0.064658350
2.803824,-8,-8,4,-2,6,1,-2,-7,-0.064658350
2.803831,1,46,-1,-1,-6,-3,-1,1,-0.064658350
2.824901,27,-48,0,-4,2,-2,-2,-12,-0.064658350
2.824911,-55,22,1,-1,-2,-2,-3,-2,-0.064658350
2.826598,44,4,-4,0,-2,-2,-1,5,-0.064658350
2.826605,-11,-27,2,2,-1,-1,1,0,-0.064658350
2.840341,0,51,-6,-1,4,1,9,-5,-0.064658350
2.840348,-32,16,0,-1,-24,-3,4,-26,-0.064658350
2.847924,-6,-14,0,1,21,-1,-12,-2,-0.064658350
2.847930,9,20,0,-3,2,1,-11,2,-0.064658350
2.862536,5,1,-1,0,3,-2,-11,9,-0.064658350
2.862568,4,0,-1,1,-9,-4,1,0,-0.064658350
2.864552,-4,-19,2,-4,-4,-1,-1,-22,-0.064658350
2.864558,18,27,-7,-2,1,-4,1,-9,-0.064658350
2.886039,-4,-24,7,4,0,0,-4,-29,-0.064658350
2.886059,-47,-52,1,3,-2,-1,5,11,-0.064658350
2.886460,30,11,-6,-4,-2,-3,-3,-12,-0.064658350
2.886472,23,29,1,1,-1,1,4,12,-0.064658350
2.898323,-73,-46,-5,-1,0,-1,104,-1,-0.064658350
2.898341,48,36,1,-2,3,1,85,31,-0.064658350
2.909948,-30,-3,1,2,-2,0,-79,-5,-0.064658350
2.909953,11,7,-3,-2,-2,-3,-92,5,-0.064658350
2.922356,-14,3,5,1,2,0,-87,11,-0.064658350
2.922382,8,2,-3,-6,0,3,-35,32,-0.064658350
2.924017,22,-10,1,-1,-4,-2,40,-1,-0.064658350
2.924024,-36,17,-16,-5,-2,-1,23,-21,-0.064658350
2.945126,3,-5,28,3,4,4,90,41,-0.064658350
2.945153,-67,-2,-2,2,-1,-5,107,-6,-0.064658350
2.946677,1,-16,-7,1,-5,-3,-25,-14,-0.064658350
2.946682,-4,-14,1,4,0,0,-83,-22,-0.064658350
2.958283,-1,-13,-18,-4,0,-1,8,-10,-0.064658350
2.958299,6,26,0,-3,3,-2,-4,-29,-0.064658350
2.967757,4,22,2,-2,-1,0,-28,7,-0.064658350
2.967762,-3,1,-1,-5,-19,-3,-63,-4,-0.064658350
2.982362,-4,32,-4,0,14,0,-92,-6,-0.064658350
2.982368,-19,-15,5,-7,-3,-2,-128,-8,-0.064658350
2.983837,-1,-11,-2,1,5,1,-73,-6,-0.064658350
2.983862,-9,0,0,-4,0,0,-3,6,-0.064658350
3.005178,-25,-8,-1,-1,1,-3,35,-14,-0.064658350
3.005210,34,3,-3,1,2,-1,73,10,-0.064658350
3.006743,4,3,1,-2,-16,5,111,-5,-0.064658350
3.006749,37,-18,4,2,33,1,127,47,-0.064658350
3.018370,13,-6,-1,0,-10,-13,52,9,-0.064658350
3.018389,-71,32,-3,9,4,1,-100,-3,-0.064658350
3.027203,-33,-10,-8,-1,-3,-4,-120,3,-0.064658350
3.027210,25,-1,10,-5,11,1,-35,-10,-0.064658350
3.042209,15,19,-5,-12,-33,6,6,13,-0.064658350
3.042214,44,-11,0,-2,11,1,99,-14,-0.064658350
3.043608,-40,-18,-12,1,-2,-10,127,25,-0.064658350
3.043615,-32,10,15,7,-13,2,-57,-20,-0.064658350
3.064657,22,0,-6,10,10,2,-128,-7,-0.064436714
3.064670,33,15,8,2,-7,-5,-128,-1,-0.064436714
3.066564,4,8,-8,-9,-19,5,-128,4,-0.064436714
3.066587,-14,-32,-13,-8,29,-1,-46,-16,-0.064436714
3.078786,-22,-48,1,-2,-1,-2,-10,-3,-0.064436714
3.078841,26,-27,0,3,2,2,71,4,-0.064436714
3.089236,12,11,1,-4,1,-4,124,-14,-0.064436714
3.089243,0,-11,-2,7,-18,-4,59,32,-0.064436714
3.102226,15,14,1,1,-34,-5,41,9,-0.064436714
3.102247,23,3,-8,-8,60,5,123,32,-0.064436714
3.104573,-20,-7,9,1,17,-2,127,5,-0.064436714
3.104579,14,29,-9,-1,-25,-13,80,36,-0.064436714
3.124753,27,-12,-9,-3,10,12,-111,4,-0.064436714
3.124824,5,-7,0,2,-11,-8,-125,-13,-0.064436714
3.126140,2,19,9,19,-28,-34,-105,-15,-0.064436714
3.126148,-42,-27,3,-15,-12,17,68,-5,-0.064436714
3.147144,25,27,-2,4,29,-14,90,7,-0.064436714
3.147161,15,-18,3,-25,25,-4,3,-7,-0.064436714
3.150131,3,17,-3,-10,-44,14,98,27,-0.064436714
3.150146,64,-23,4,6,-11,1,122,20,-0.064436714
3.162376,12,4,0,8,41,10,-68,-8,-0.064436714
3.162424,-29,-42,-3,6,-26,0,-122,14,-0.064436714
3.163900,-18,27,-9,-12,31,-6,-128,-65,-0.064436714
3.163905,-58,-23,1,-1,-40,-20,-16,0,-0.064436714
3.184843,18,12,4,23,49,27,48,-8,-0.064436714
3.184868,-63,-31,6,60,24,29,-93,-20,-0.064436714
3.186271,2,49,-3,43,-59,-87,-103,16,-0.064436714
3.186290,19,22,-7,66,6,0,-68,-1,-0.064436714
3.207179,-36,-16,-13,22,4,-7,33,-57,-0.064436714
3.207201,-19,-31,9,104,-41,17,106,-5,-0.064436714
3.208773,39,9,0,127,72,56,3,14,-0.064436714
3.208788,-2,-16,7,127,50,-19,15,-24,-0.064436714
3.221831,-44,17,3,95,-80,-33,-37,31,-0.064436714
3.221850,127,16,-3,-100,-8,-27,-49,-13,-0.064436714
3.228657,-127,-93,-9,-121,26,25,-60,-15,-0.064436714
3.228675,38,0,3,-128,-19,21,-21,-54,-0.064436714
3.244683,17,36,-1,30,5,-44,56,7,-0.064436714
3.244690,48,-32,12,65,-109,-46,-35,1,-0.064436714
3.246276,56,64,-20,-6,55,15,38,32,-0.064436714
3.246373,-17,32,-1,-91,28,2,-53,6,-0.064436714
3.267317,-18,-52,-5,-128,-22,26,-89,-19,-0.064436714
3.267348,-72,17,-4,-128,-49,-21,-42,25,-0.064436714
3.269433,32,-38,9,-3,-7,32,-99,-16,-0.064436714
3.269440,14,30,-2,104,115,5,-43,40,-0.064436714
3.281716,7,-18,2,101,7,0,-128,45,-0.064436714
3.281734,-66,38,-15,121,14,2,59,-13,-0.064436714
3.288456,-6,-69,6,68,-62,32,62,-19,-0.064436714
3.288474,-65,-79,6,55,15,11,98,-9,-0.064436714
3.305887,32,63,-9,5,7,4,45,24,-0.064436714
3.305895,-100,-17,-19,14,11,11,67,-36,-0.064436714
3.306297,42,29,14,15,-67,-37,44,19,-0.064436714
3.306337,2,-8,4,28,15,25,-39,20,-0.064436714
3.327380,-6,5,-6,-33,104,27,16,-35,0.970853640
3.327410,69,28,7,2,19,-31,104,11,0.970853640
3.329365,26,4,15,10,11,-27,-3,20,0.970853640
3.329374,-33,15,-17,-14,-26,13,-88,0,0.970853640
3.340857,40,40,6,-1,-16,-11,-5,9,0.970853640
3.340959,-97,-26,-9,-40,16,44,-1,-16,0.970853640
3.350801,17,47,0,-28,10,-42,66,-33,0.970853640
3.350815,-3,-23,4,-15,-29,-16,113,26,0.970853640
3.364719,38,-2,0,-5,-41,8,-92,4,0.970853640
3.364743,34,-6,8,15,-7,16,54,18,0.970853640
3.366473,-10,-24,-1,-6,-7,51,67,1,0.970853640
3.366494,-38,51,-13,-5,-50,-27,26,-22,0.970853640
3.387226,-30,-42,-6,11,-69,-60,34,14,0.970853640
3.387242,25,8,2,-38,1,-57,-73,-43,0.970853640
3.388803,24,-34,-9,-17,-29,55,-21,18,0.970853640
3.388817,66,11,1,-11,66,30,9,24,0.970853640
3.401180,-52,-116,10,-9,-64,44,37,30,0.970853640
3.401194,99,120,-2,23,-48,8,4,-19,0.970853640
3.410178,-102,-44,-21,22,-27,-120,68,-40,0.970853640
3.410184,65,-97,-1,2,6,-42,-126,-33,0.970853640
3.425433,-49,-12,-5,-22,35,-1,-36,-7,0.970853640
3.426219,21,9,-24,12,-50,-12,62,29,0.970853640
3.426991,-74,-53,19,28,51,69,82,23,0.970853640
3.427016,108,52,6,18,82,94,83,26,0.970853640
3.449809,-9,-53,8,-13,-82,-61,-2,-48,0.970853640
3.449814,-45,-38,-10,-38,3,-60,24,-11,0.970853640
3.449817,76,58,4,8,70,-45,-70,26,0.970853640
3.449820,39,-32,1,6,-83,-68,-6,-24,0.970853640
3.461544,-11,6,-3,-9,23,127,-48,-16,0.970853640
3.461576,-6,33,4,17,30,-7,6,-19,0.970853640
3.470022,7,-3,-11,-27,-42,-24,-105,-36,0.970853640
3.470039,-42,-3,-4,-15,-35,-17,-47,-5,0.970853640
3.484854,-8,33,-7,-2,13,-15,15,-20,0.970853640
3.484886,4,-102,30,10,29,53,-18,-23,0.970853640
3.486332,-34,-3,-11,-3,28,4,27,-29,0.970853640
3.486353,37,119,-47,-35,-35,8,-27,-7,0.970853640
3.507941,-43,-19,35,29,-52,27,26,-48,0.970853640
3.507959,-12,-41,-31,10,65,-33,-6,62,0.970853640
3.509379,50,14,-16,-54,-28,93,-3,22,0.970853640
3.509402,40,-32,13,13,-11,-5,20,21,0.970853640
3.521084,14,15,-4,-10,31,-28,42,7,0.970853640
3.521109,42,118,5,8,27,27,-10,14,0.970853640
3.533210,-92,-71,21,-8,-34,-48,6,6,0.970853640
3.533217,-65,-30,7,21,-12,56,2,-40,0.970853640
3.544686,14,108,-15,-4,49,30,27,35,0.970853640
3.544696,4,-83,14,-8,25,-7,-41,13,0.970853640
3.546130,53,66,-11,18,7,-24,15,19,0.970853640
3.546138,-19,-83,8,-13,2,-51,-22,-9,0.970853640
3.567323,27,-45,5,5,23,80,0,16,0.970853640
3.567351,-72,-15,-11,-11,20,-60,-44,-13,0.970853640
3.569003,20,8,-5,-9,-65,55,-2,3,3.285658415
3.569010,3,-1,8,-24,-77,-10,-5,-32,3.285658415
3.580848,47,-4,-13,2,-75,-8,35,5,3.285658415
3.580879,15,10,-9,-8,-31,55,4,-42,3.285658415
3.590573,-36,13,14,-19,-29,-61,48,-34,3.285658415
3.590648,-4,53,-2,32,112,48,-5,13,3.285658415
3.606612,-50,-100,10,-24,8,-12,22,1,3.285658415
3.606618,-3,76,-29,49,31,-51,-2,14,3.285658415
3.606621,95,72,-9,-45,-70,-50,7,38,3.285658415
3.606623,-65,-70,7,4,96,-12,-26,-24,3.285658415
3.627226,127,2,12,1,40,14,29,27,3.285658415
3.627255,-5,-20,-8,1,34,33,16,0,3.285658415
3.629009,-46,-102,14,28,-6,48,-44,-15,3.285658415
3.629030,56,106,-16,-48,-19,-12,58,38,3.285658415
3.640868,-5,-98,0,49,8,-78,-31,-21,3.285658415
3.640876,-98,-68,22,-21,42,-41,35,79,3.285658415
3.651870,28,43,-12,-9,-4,74,-52,-13,3.285658415
3.651885,-27,-44,2,5,-65,7,28,-49,3.285658415
3.665849,-22,56,1,0,-40,-100,-35,-23,3.285658415
3.665915,46,27,-4,-13,-21,43,11,11,3.285658415
3.667787,13,-31,7,13,24,17,12,6,3.285658415
3.667802,-18,-2,0,10,-4,-32,2,1,3.285658415
3.687193,-24,45,-14,-13,14,30,-4,-10,3.285658415
3.687211,5,-21,1,-2,-20,-6,-25,-40,3.285658415
3.688822,49,-65,11,11,41,5,-22,-20,3.285658415
3.688844,-12,89,-9,-10,-9,7,-41,-42,3.285658415
3.700869,-29,-47,-12,-6,34,-47,47,-3,3.285658415
3.700893,28,93,19,-14,-15,77,-80,-9,3.285658415
3.709767,-62,-66,6,6,23,-48,3,16,3.285658415
3.709771,-31,95,-21,-4,-65,57,-21,3,3.285658415
3.724772,56,93,-10,27,82,19,25,1,3.285658415
3.724790,8,-120,45,4,-36,15,27,-3,3.285658415
3.726744,54,67,-5,-36,-59,31,56,72,3.285658415
3.726752,-44,65,-21,20,-10,-24,114,64,3.285658415
3.747086,-16,-11,14,3,65,38,-103,-51,3.285658415
3.747094,-33,-88,-4,-7,-8,47,22,-16,3.285658415
3.748584,81,100,-3,15,0,-38,29,46,3.285658415
3.748590,-78,-128,7,-2,-23,-33,63,-13,3.285658415
3.763249,24,-11,-10,-17,-36,14,-17,37,3.285658415
3.763256,8,-8,-5,9,-13,58,-103,-27,3.285658415
3.770742,-41,-41,-6,3,85,-9,-76,-22,3.285658415
3.770747,11,-9,27,4,-27,-88,-54,15,3.285658415
3.784867,-34,-8,-13,-10,-7,-71,47,-33,3.285658415
3.784884,-16,-14,-7,-9,8,-30,13,-26,3.285658415
3.786966,24,39,-4,9,-1,-28,33,20,3.285658415
3.786973,4,-6,-2,8,0,31,-42,-4,3.285658415
3.807882,-11,-15,-6,-26,-64,-39,3,24,3.285658415
3.807890,40,25,-14,-25,42,54,2,16,3.285658415
3.808582,-38,8,-21,31,16,4,-9,-64,3.285658415
3.808588,0,-43,12,11,-10,80,11,45,3.285658415
3.823390,-42,24,23,3,-15,15,-1,-15,3.285658415
3.823397,71,73,-20,-8,-66,-76,15,-17,3.285658415
3.831877,-106,-112,-11,-2,-7,-34,-5,-11,2.949130021
3.831883,-17,-64,10,-14,6,-18,-53,-52,2.949130021
3.845320,31,84,-8,-14,-15,-8,37,-15,2.949130021
3.845350,-28,118,5,31,-24,-71,14,2,2.949130021
3.847112,-19,-99,-3,-7,0,17,57,30,2.949130021
3.847122,61,73,8,7,34,-31,-39,-26,2.949130021
3.867155,-45,-78,-10,-8,-61,-71,51,63,2.949130021
3.867175,-24,73,13,3,25,15,29,25,2.949130021
3.869224,-23,79,-6,-9,52,38,-53,-27,2.949130021
3.869229,76,-1,-6,-20,5,-82,2,39,2.949130021
3.881252,-21,-5,5,3,-72,111,-28,-26,2.949130021
3.881283,-24,-16,12,12,-41,-1,-10,2,2.949130021
3.889854,55,39,11,6,40,-38,-3,1,2.949130021
3.889880,-11,-44,-16,-16,62,114,47,-42,2.949130021
3.904683,32,-11,-5,-5,-23,-65,-35,-48,2.949130021
3.904699,48,-78,5,3,37,-5,40,67,2.949130021
3.906254,-30,61,-9,-8,-34,36,-21,-6,2.949130021
3.906262,-10,-13,8,4,-20,-81,7,3,2.949130021
3.927316,17,10,-8,1,6,53,22,11,2.949130021
3.927342,-30,39,-11,21,56,-26,-50,6,2.949130021
3.928934,26,-28,6,-6,91,50,25,-43,2.949130021
3.928948,-126,-79,2,16,-26,-52,-36,-4,2.949130021
3.940958,84,37,7,-1,-73,-7,-6,55,2.949130021
3.940999,25,17,-11,16,78,-25,-48,-27,2.949130021
3.952025,44,-58,14,8,15,-70,97,80,2.949130021
3.952034,-28,-8,2,22,-25,40,-36,-19,2.949130021
3.964084,-43,28,-3,-48,123,57,14,2,2.949130021
3.964092,-70,-45,-14,4,-92,-65,21,-5,2.949130021
3.971576,55,20,10,-3,-72,-31,12,-37,2.949130021
3.971600,-67,-5,-18,-20,-70,63,16,-17,2.949130021
3.987433,8,-24,-2,10,49,21,56,4,2.949130021
3.987456,-78,-122,-5,2,-19,48,-74,-28,2.949130021
3.989667,-17,23,-4,-3,7,-38,-100,-35,2.949130021
3.989675,61,120,-8,-19,-13,-105,-91,9,2.949130021
4.010479,-20,-52,9,20,21,-39,-20,29,2.949130021
4.010489,65,51,3,-25,-2,18,40,0,2.949130021
4.010494,4,-6,-2,2,-64,7,13,4,2.949130021
4.010499,35,3,5,6,60,12,10,5,2.949130021
4.023377,26,44,-6,5,-19,27,2,14,2.949130021
4.023408,41,-39,8,-14,-15,61,-4,-9,2.949130021
4.031990,-67,14,10,15,-1,-91,-63,-44,2.949130021
4.032021,43,-4,-2,-11,-1,33,9,80,2.949130021
4.046845,-10,-37,-1,-4,-86,-37,57,-37,2.949130021
4.046867,52,-49,-12,-43,20,-82,81,39,2.949130021
4.049670,10,82,-4,4,-79,8,-3,6,2.949130021
4.049676,-37,-79,-14,13,-39,62,52,-16,2.949130021
4.069072,13,23,12,-9,-91,-69,-34,-5,2.949130021
4.069090,43,13,-2,-2,50,44,59,59,2.949130021
4.071178,-6,-6,0,7,-31,36,6,-30,2.949130021
4.071190,-67,-34,-9,-6,-94,86,-79,-76,2.949130021
4.083785,34,-11,-2,29,125,-83,21,65,4.382581490
4.083810,-2,71,0,-15,-76,2,-38,-62,4.382581490
4.091586,37,-66,1,-20,-3,-5,34,36,4.382581490
4.091603,-38,-36,11,28,-40,-2,-22,-2,4.382581490
4.106553,-35,14,-7,-8,4,17,-42,-46,4.382581490
4.106574,-5,16,1,-2,-2,-11,-23,-23,4.382581490
4.107475,5,-30,-7,13,28,39,19,33,4.382581490
4.107498,2,-49,1,-33,20,-34,4,20,4.382581490
4.129071,-11,3,0,14,20,14,0,-6,4.382581490
4.129090,20,48,11,5,-8,-8,5,26,4.382581490
4.130066,-43,-63,-22,-2,4,36,-22,-21,4.382581490
4.130071,30,44,-8,-10,34,-27,20,-12,4.382581490
4.143347,-1,-5,7,-4,23,19,8,11,4.382581490
4.143365,-31,-44,11,16,-24,27,-37,-18,4.382581490
4.151918,-28,44,10,8,-6,-88,44,18,4.382581490
4.151931,42,-34,-16,-30,51,-17,-14,17,4.382581490
4.168085,-27,52,-1,13,-55,-13,-28,25,4.382581490
4.168139,-33,-27,-14,-27,-48,-62,-93,-86,4.382581490
4.168142,25,11,2,-1,59,67,-17,69,4.382581490
4.168144,44,34,3,13,15,-82,6,-12,4.382581490
4.189106,-48,21,-7,0,-48,-25,-9,24,4.382581490
4.189129,51,64,5,-6,-67,-47,-25,11,4.382581490
4.189843,-38,-30,-8,5,60,8,-10,-77,4.382581490
4.189864,48,49,2,0,10,-5,8,-17,4.382581490
4.203506,-5,-20,-8,-3,-16,16,-18,-34,4.382581490
4.203533,20,-35,5,22,-20,98,58,28,4.382581490
4.211764,-34,-18,-11,-31,-66,71,-60,-7,4.382581490
4.211794,39,-31,5,14,58,85,82,99,4.382581490
4.226954,-18,-18,5,6,0,-41,5,-20,4.382581490
4.226986,-55,15,-9,-16,4,-30,42,45,4.382581490
4.230116,19,63,1,-1,-76,-40,-32,-81,4.382581490
4.230133,18,1,-1,-7,6,18,-25,-10,4.382581490
4.249048,-2,-22,-6,-6,15,23,-30,-16,4.382581490
4.249057,-62,32,9,42,35,-1,-14,22,4.382581490
4.249878,43,34,9,-22,31,82,12,-10,4.382581490
4.249900,-37,55,17,17,66,-119,-22,-7,4.382581490
4.263340,61,2,-19,-25,-62,21,17,-4,4.382581490
4.263363,27,-15,-3,-19,65,35,-46,-7,4.382581490
4.271584,-25,-94,-19,-5,8,-19,-1,70,4.382581490
4.271606,17,75,8,5,-7,93,18,-15,4.382581490
4.286594,27,-24,14,-3,-13,-30,-73,19,4.382581490
4.286619,-7,-58,-16,-11,-29,12,0,-102,4.382581490
4.289450,102,28,8,21,24,-57,-29,44,4.382581490
4.289460,-39,68,13,-6,39,-26,37,24,4.382581490
4.311496,-34,-85,-13,14,10,43,17,-5,4.382581490
4.311502,36,62,5,-11,4,-24,22,14,4.382581490
4.311505,-15,53,3,-6,33,65,13,-26,4.382581490
4.311507,42,-5,5,15,-128,-84,-46,-55,4.382581490
4.323444,17,89,15,25,93,-30,-27,-12,4.382581490
4.323468,-32,-128,-22,0,114,89,58,25,4.382581490
4.331598,-16,-22,9,-10,-113,-98,9,43,4.382581490
4.331616,24,-16,1,-11,-79,1,31,20,4.382581490
4.347033,-45,-75,-13,0,-10,96,-44,-77,4.183087065
4.347061,22,-4,1,-10,-128,-67,30,53,4.183087065
4.349522,-73,45,0,28,127,4,-11,-75,4.183087065
4.349530,73,-9,-21,-16,-66,-63,-9,-4,4.183087065
4.369036,6,-43,0,-37,-34,-38,47,70,4.183087065
4.369054,-51,36,6,63,45,79,-14,14,4.183087065
4.370337,16,55,-1,-15,-26,19,16,-12,4.183087065
4.370342,-67,8,-6,8,-6,10,0,-10,4.183087065
4.383442,35,21,3,0,26,12,46,28,4.183087065
4.383471,-2,110,17,-8,-20,-15,-46,-34,4.183087065
4.391530,16,-45,1,-5,3,-20,9,17,4.183087065
4.391550,-40,-72,-25,10,39,30,1,2,4.183087065
4.406645,77,34,10,5,1,-17,-11,38,4.183087065
4.406716,-104,-66,-15,-23,16,-17,10,-17,4.183087065
4.407324,12,25,3,3,-12,11,16,-23,4.183087065
4.407337,-13,-15,4,2,22,22,23,10,4.183087065
4.429122,-30,15,2,8,-82,61,63,22,4.183087065
4.429151,87,-7,5,-20,-79,-5,22,-12,4.183087065
4.430511,-5,45,-5,9,83,-2,13,13,4.183087065
4.430523,-6,-53,-5,-7,-91,1,-34,16,4.183087065
4.443292,-40,19,4,3,28,7,21,-10,4.183087065
4.443313,19,-34,-10,-19,111,49,29,40,4.183087065
4.451973,-30,-89,-6,-13,-67,-20,-10,38,4.183087065
4.452011,18,41,7,1,-19,-7,12,-6,4.183087065
4.467927,-27,9,-7,-5,-21,-49,-52,-39,4.183087065
4.467961,1,-37,-5,-1,-63,-34,-13,-36,4.183087065
4.467966,-45,-15,-2,4,-1,-6,13,5,4.183087065
4.467970,27,-20,9,6,82,14,-4,-15,4.183087065
4.489086,-46,-48,-11,-7,12,-15,10,-17,4.183087065
4.489118,-17,1,-5,-3,35,-42,-10,-55,4.183087065
4.490512,49,28,4,1,-63,-17,48,19,4.183087065
4.490531,-28,2,2,19,-31,7,37,-13,4.183087065
4.504226,22,64,1,4,117,-15,17,29,4.183087065
4.504257,13,-65,2,19,-64,2,-6,52,4.183087065
4.505285,15,70,-1,4,-8,-40,-51,-28,4.183087065
4.505294,-42,-39,-2,-21,7,4,-28,-32,4.183087065
4.526592,47,4,-3,9,-27,22,-51,-38,4.183087065
4.526614,45,50,-2,-1,16,-16,49,23,4.183087065
4.527335,-27,-84,4,3,-7,6,15,11,4.183087065
4.527401,4,-4,4,1,0,11,-3,29,4.183087065
4.549981,-36,19,-4,-4,-96,-22,-22,-10,4.183087065
4.550010,-5,5,0,-13,81,56,-41,25,4.183087065
4.550014,-6,-37,0,-4,7,64,12,-6,4.183087065
4.550017,26,38,-4,8,37,53,14,-1,4.183087065
4.563988,-19,-28,-11,-14,6,-83,-46,-15,4.183087065
4.564012,-20,42,0,1,59,-47,-37,-38,4.183087065
4.565075,12,3,-4,-12,49,51,19,4,4.183087065
4.565093,4,-4,4,1,-101,-75,-8,16,4.183087065
4.586897,-38,32,-15,-29,-21,61,43,3,4.183087065
4.586933,-1,-78,5,26,-69,-2,-21,-30,4.183087065
4.588218,-54,-14,-12,-11,-12,8,-28,-36,4.183087065
4.588239,-6,52,-2,-13,25,-10,6,15,4.183087065
4.609942,-22,-31,0,14,66,29,-18,-57,4.364059108
4.610016,53,29,13,7,-108,11,26,18,4.364059108
4.610018,3,12,-9,-18,61,22,-39,12,4.364059108
4.610023,-9,19,4,-10,62,-83,-11,-16,4.364059108
4.623455,-20,46,11,4,-46,81,23,0,4.364059108
4.623479,-3,-26,-5,12,43,84,62,49,4.364059108
4.631435,32,-6,0,-3,-51,-51,-9,-22,4.364059108
4.631456,-32,-29,-2,13,-19,102,-4,-25,4.364059108
4.646518,87,20,9,-14,-24,-90,58,84,4.364059108
4.646542,1,51,3,4,82,-18,-33,3,4.364059108
4.648163,-9,-8,2,5,-42,-2,10,-20,4.364059108
4.648173,-27,-65,-10,4,28,5,-15,8,4.364059108
4.669163,11,38,8,-2,90,-6,-11,21,4.364059108
4.669227,-26,8,-16,-4,-8,-4,12,2,4.364059108
4.670626,13,-45,9,4,9,-15,-3,25,4.364059108
4.670634,13,47,-9,-5,11,-7,1,3,4.364059108
4.683391,8,-55,0,7,-32,16,-28,-60,4.364059108
4.685010,-20,-7,0,-11,-3,-30,-19,-32,4.364059108
4.691670,-10,7,5,13,9,33,19,4,4.364059108
4.691694,9,48,-11,-13,-56,-50,-52,-6,4.364059108
4.706646,33,-37,4,13,41,-7,19,43,4.364059108
4.706669,37,-10,2,-3,-50,-3,24,-23,4.364059108
4.707580,-67,62,-3,-1,-20,-16,-39,-33,4.364059108
4.707587,36,31,20,16,72,-56,19,30,4.364059108
4.728887,-22,-4,-2,-17,69,-23,-32,-26,4.364059108
4.728912,11,-15,-5,11,60,-47,-16,18,4.364059108
4.729728,20,-45,-9,-14,79,-18,-47,-8,4.364059108
4.729731,17,23,-3,0,-26,31,25,-1,4.364059108
4.743404,-25,-8,-5,2,-21,-8,-20,4,4.364059108
4.743423,-17,-12,-1,-11,-22,-16,-9,-19,4.364059108
4.751523,7,-25,-8,6,-1,-9,15,20,4.364059108
4.751540,-26,-26,-4,-8,14,32,-9,1,4.364059108
4.766500,6,0,3,7,12,35,16,1,4.364059108
4.766553,48,79,10,-4,-102,-53,11,2,4.364059108
4.767346,-34,17,-1,4,31,-4,31,13,4.364059108
4.767368,4,-64,-18,-31,8,31,22,19,4.364059108
4.789162,-3,86,0,32,63,-31,-5,-11,4.364059108
4.789183,-17,-66,-3,-24,61,42,-7,-15,4.364059108
4.791468,-5,-41,10,26,-19,-15,7,37,4.364059108
4.791474,-20,-2,-12,0,-78,2,-10,-19,4.364059108
4.803476,31,-46,-5,-31,80,-75,23,-18,4.364059108
4.803496,-6,82,0,3,-19,-33,-12,30,4.364059108
4.811695,13,43,-1,-5,-67,3,-16,-27,4.364059108
4.811716,6,-33,4,3,-67,-10,-15,-3,4.364059108
4.826650,-12,-80,-6,8,5,-4,12,-18,4.364059108
4.826675,-50,-12,-9,-5,84,90,-39,-27,4.364059108
4.829129,88,80,6,17,-119,5,-6,26,4.364059108
4.829139,11,-15,2,27,-90,-70,36,6,4.364059108
4.849096,-58,-38,-2,-81,62,28,-89,-63,4.217413404
4.849121,39,-35,-10,-33,41,30,32,78,4.217413404
4.850702,18,-6,2,10,-49,-69,39,18,4.217413404
4.850710,-26,0,15,-39,67,42,4,63,4.217413404
4.863397,6,-29,-26,53,-9,-15,88,63,4.217413404
4.863426,22,66,10,-18,-89,-83,-32,-63,4.217413404
4.871618,-45,-45,-5,-8,33,20,-50,-25,4.217413404
4.871642,49,14,6,9,-23,-16,-20,-50,4.217413404
4.886608,-25,-1,-11,0,-104,14,-18,-30,4.217413404
4.886627,-9,-65,-7,4,-20,5,118,7,4.217413404
4.887700,4,-39,-8,9,31,16,70,8,4.217413404
4.887706,22,14,-2,6,41,87,-7,-39,4.217413404
4.909037,-10,33,11,2,-31,127,19,19,4.217413404
4.909071,4,-27,-10,6,-22,-41,-113,-18,4.217413404
4.909634,-51,-46,5,-14,11,-101,38,-13,4.217413404
4.909641,22,-68,-1,-22,-30,-93,73,-38,4.217413404
4.933168,46,78,11,48,71,-85,79,52,4.217413404
4.933199,-64,-38,-5,-27,-75,10,19,-3,4.217413404
4.935598,-7,-19,3,-12,-50,35,-50,-20,4.217413404
4.935603,31,90,-9,-15,-14,-7,55,91,4.217413404
4.947914,-15,-94,-7,15,-45,-17,8,-8,4.217413404
4.947944,-16,31,7,-5,108,9,49,-30,4.217413404
4.951000,-10,115,-12,8,54,-22,-63,-19,4.217413404
4.951012,-30,21,-3,-3,12,31,-47,-36,4.217413404
4.969269,7,11,0,-28,-86,-3,-45,5,4.217413404
4.969282,10,11,5,26,-18,3,-18,1,4.217413404
4.969844,-33,13,0,-15,-12,43,24,-11,4.217413404
4.969856,-22,-3,7,14,68,35,-4,5,4.217413404
4.992187,70,49,4,-10,-32,-33,-46,-4,4.217413404
4.992210,-33,17,-4,9,7,7,-14,6,4.217413404
4.994524,82,-2,-2,2,39,8,33,-25,4.217413404
4.994530,-51,19,-5,-8,-45,48,-43,-36,4.217413404
5.006580,-13,-24,0,8,-9,32,-27,-9,4.217413404
5.007975,24,18,7,6,-11,-84,18,-4,4.217413404
5.007985,6,22,9,21,44,67,23,9,4.217413404
5.007987,-25,-9,-4,-20,-2,-13,23,33,4.217413404
5.029053,-27,7,-1,15,31,8,-38,-17,4.217413404
5.029084,-28,5,1,-29,79,-84,75,26,4.217413404
5.031923,31,15,-12,-10,-34,-22,4,-1,4.217413404
5.031929,-12,-1,-1,2,-15,17,-33,-37,4.217413404
5.052345,20,-16,1,-4,-60,-7,2,1,4.217413404
5.052363,-29,50,-8,3,-35,77,-13,-10,4.217413404
5.052996,14,41,11,-2,9,-3,-15,37,4.217413404
5.053012,-16,-99,-5,9,40,-21,-3,-7,4.217413404
5.066644,-16,35,-2,-23,-97,-37,16,-7,4.217413404
5.066664,10,-4,0,24,75,73,-45,3,4.217413404
5.067340,20,10,-5,-29,-27,3,46,5,4.217413404
5.067386,2,43,-5,23,96,13,-37,-53,4.217413404
5.089257,-29,16,5,-4,8,5,31,-9,4.217413404
5.089275,6,-62,-6,14,95,30,-39,-7,4.217413404
5.091130,-45,-84,-1,-1,-38,60,-20,-23,4.217413404
5.091136,16,4,1,10,72,-67,9,2,4.217413404
5.112272,7,-68,-5,-17,104,97,28,75,3.852063371
5.112337,34,28,22,28,-128,-37,-3,11,3.852063371
5.112954,-56,-24,-14,-17,19,66,33,-34,3.852063371
5.112996,18,-52,-1,-29,-54,2,17,-11,3.852063371
5.126759,0,37,16,32,41,27,-15,-9,3.852063371
5.126764,-18,-21,-12,2,-57,-33,8,0,3.852063371
5.127244,22,-79,-4,-3,-2,-53,-22,15,3.852063371
5.127330,22,68,13,10,51,0,19,47,3.852063371
5.149259,-49,27,5,-17,-61,27,3,-32,3.852063371
5.149277,21,60,-13,-12,-63,20,39,4,3.852063371
5.151794,5,38,3,32,55,-24,-31,-23,3.852063371
5.151804,9,33,-5,-38,-94,9,-11,5,3.852063371
5.172937,24,25,-4,-47,57,-83,-3,12,3.852063371
5.172990,6,5,0,-36,110,109,-23,-10,3.852063371
5.173623,10,11,-4,2,53,-111,-3,-34,3.852063371
5.173632,28,-80,1,40,-43,43,23,-17,3.852063371
5.187317,23,52,0,11,-51,39,21,8,3.852063371
5.187324,-60,-39,-6,-31,-97,-39,-16,-34,3.852063371
5.187327,7,-4,-1,3,12,2,-39,46,3.852063371
5.187329,-23,-20,7,-12,-12,-30,-25,-11,3.852063371
5.209090,-30,-69,-21,1,-36,-25,19,3,3.852063371
5.209113,28,-1,8,12,-68,-17,-19,22,3.852063371
5.209868,-26,13,-3,-23,11,37,31,-1,3.852063371
5.209871,-24,32,-5,23,31,-15,-2,16,3.852063371
5.232202,72,-19,2,-3,48,26,-21,-7,3.852063371
5.232224,-94,59,-6,17,-36,-77,-22,-34,3.852063371
5.233632,4,-46,-1,-43,-18,92,1,5,3.852063371
5.233639,-19,11,0,-31,11,55,-25,-6,3.852063371
5.246623,22,-16,2,52,40,-11,48,49,3.852063371
5.246642,4,48,-3,0,-63,11,-23,-28,3.852063371
5.247609,-20,117,3,12,2,10,28,13,3.852063371
5.247615,33,26,6,4,-58,-5,-12,26,3.852063371
5.269066,-14,29,5,0,-77,3,-7,-20,3.852063371
5.269083,41,-123,1,0,-50,-11,11,15,3.852063371
5.269805,13,6,3,16,-34,-17,4,46,3.852063371
5.269819,-27,-18,-4,3,33,-22,-11,-8,3.852063371
5.292157,-9,-23,-6,-10,-3,-35,-20,-20,3.852063371
5.292174,-7,-46,-6,-2,65,9,23,21,3.852063371
5.293903,18,-27,2,1,-11,-23,-34,-23,3.852063371
5.293912,-41,-14,8,4,43,-3,1,-12,3.852063371
5.306614,-14,-18,-4,-5,-48,4,-61,-30,3.852063371
5.306641,-5,-56,-16,-26,127,22,24,23,3.852063371
5.309440,8,-63,9,48,70,80,41,22,3.852063371
5.309446,26,71,-8,1,-83,-19,-10,-14,3.852063371
5.329381,-30,7,4,-7,-114,-64,24,15,3.852063371
5.329401,-4,-3,1,5,-15,39,-45,-34,3.852063371
5.329790,4,26,-7,-18,-65,13,38,40,3.852063371
5.329796,-36,-68,-7,5,103,-40,-13,6,3.852063371
5.352184,-2,10,-2,5,-14,42,57,57,3.852063371
5.352203,12,26,4,-3,-18,-29,-6,-1,3.852063371
5.354256,8,44,8,23,-67,-105,26,-29,3.852063371
5.354262,-12,63,-7,-27,-81,-43,-23,41,3.852063371
5.366712,39,-34,-2,-11,-14,33,16,40,4.057560043
5.366736,32,93,15,-26,51,11,-8,-17,4.057560043
5.368558,5,7,-11,17,86,57,-17,-21,4.057560043
5.368564,49,75,-1,26,-85,-8,35,1,4.057560043
5.389085,-15,16,10,7,-43,-11,-28,-21,4.057560043
5.389102,4,22,-5,11,51,37,37,20,4.057560043
5.392165,-20,-35,1,-22,-7,-55,-52,8,4.057560043
5.392170,-46,15,3,5,-12,74,-22,-41,4.057560043
5.412148,68,-10,0,-8,9,63,44,-7,4.057560043
5.412165,26,-33,1,22,-79,-60,0,39,4.057560043
5.413509,6,13,-11,-27,-32,11,-26,-59,4.057560043
5.413522,10,31,-7,-9,25,13,7,-19,4.057560043
5.425762,-58,-24,-3,-5,33,-22,-27,-29,4.057560043
5.425780,-4,-10,9,9,-3,1,28,28,4.057560043
5.434613,6,-6,-2,-3,-10,-13,-70,-18,4.057560043
5.434654,-31,-10,-1,-10,19,-24,33,9,4.057560043
5.449427,15,7,-11,8,44,0,-31,-31,4.057560043
5.449459,-6,-21,10,-2,-49,22,6,-23,4.057560043
5.452604,-25,15,-2,16,17,-92,15,-12,4.057560043
5.452612,68,4,-3,9,46,94,27,-9,4.057560043
5.472321,-101,7,-3,-20,69,4,-8,-3,4.057560043
5.472342,-13,-52,-6,-7,-50,-14,4,22,4.057560043
5.473066,1,-33,3,8,72,81,-1,-31,4.057560043
5.473085,-21,-90,0,-36,72,-32,3,-13,4.057560043
5.486639,17,127,2,49,127,-14,24,-19,4.057560043
5.486674,1,-15,-8,0,59,-8,-31,-22,4.057560043
5.487269,18,-15,-4,-7,-1,1,15,25,4.057560043
5.487297,-26,-42,-6,-6,-18,14,-1,5,4.057560043
5.509469,25,-2,8,-14,-34,-10,4,-22,4.057560043
5.509486,-28,24,-12,-12,-20,4,-21,-8,4.057560043
5.510189,6,-15,-1,25,61,16,9,-14,4.057560043
5.510193,26,18,10,10,12,-23,1,32,4.057560043
5.532275,7,7,-10,-8,-42,-38,-44,14,4.057560043
5.532281,60,27,5,-3,-28,-38,50,-5,4.057560043
5.532904,-49,-42,-11,-24,30,-48,-64,-30,4.057560043
5.532921,19,-85,16,1,39,-39,18,20,4.057560043
5.546663,-14,-43,-21,8,22,-62,-47,-17,4.057560043
5.546707,9,49,1,16,77,50,4,-24,4.057560043
5.547078,-10,-19,4,-4,-44,9,22,63,4.057560043
5.547099,3,-17,0,-5,-58,-52,2,-33,4.057560043
5.569218,15,12,7,1,8,17,0,12,4.057560043
5.569241,-8,-20,1,2,-6,-62,-35,-13,4.057560043
5.571156,-19,50,-4,-13,-35,4,26,-39,4.057560043
5.571167,-47,7,0,40,-39,1,-7,1,4.057560043
5.594093,-6,-60,-7,-35,-59,67,-47,9,4.057560043
5.594098,-14,27,-7,-11,1,7,-7,1,4.057560043
5.594100,21,12,7,-8,-89,37,-22,0,4.057560043
5.594102,30,34,-10,-6,-88,-76,34,50,4.057560043
5.605934,-2,-17,-5,-17,87,-37,-27,-31,4.057560043
5.606008,-15,41,7,14,51,48,-9,-7,4.057560043
5.614096,-15,-72,-3,-30,106,2,-4,-17,4.057560043
5.614113,31,43,-13,14,-50,5,-20,10,4.057560043
5.629149,-49,52,5,-7,-67,-29,-17,12,4.349019569
5.629172,-31,24,3,13,-60,0,49,44,4.349019569
5.629896,37,20,4,-7,-83,16,-48,-13,4.349019569
5.629920,1,-12,-9,-4,100,48,18,-25,4.349019569
5.652270,-46,6,-1,5,19,47,47,-9,4.349019569
5.652293,30,-20,2,-3,59,-17,-19,-12,4.349019569
5.654111,-32,35,4,11,-69,44,8,-23,4.349019569
5.654126,-35,-83,13,-25,-42,-6,-31,-8,4.349019569
5.674777,44,108,-6,38,59,98,50,24,4.349019569
5.674840,46,-126,-5,-5,-60,12,0,17,4.349019569
5.675560,29,23,0,-10,-52,2,10,21,4.349019569
5.675579,-8,-3,-6,4,-25,-16,-36,-19,4.349019569
5.688960,14,-15,6,-18,-34,-17,-11,-11,4.349019569
5.688981,-9,31,-4,5,-41,17,-11,4,4.349019569
5.689734,39,3,2,-4,34,-39,15,27,4.349019569
5.689744,-48,27,1,17,-16,22,32,-4,4.349019569
5.712406,14,-37,-5,-12,15,-43,-21,-12,4.349019569
5.712422,9,-58,2,1,-7,-9,30,1,4.349019569
5.714233,13,-49,-7,6,-47,-10,32,-5,4.349019569
5.714240,7,-51,-14,-35,38,76,-64,-22,4.349019569
5.726161,30,-4,8,23,-82,-24,32,8,4.349019569
5.726191,-86,11,-5,-22,127,-33,-55,-42,4.349019569
5.734050,-19,29,-2,-6,20,3,13,2,4.349019569
5.734077,50,58,7,-18,-27,67,26,13,4.349019569
5.749168,-2,-86,-6,-1,-43,-19,2,3,4.349019569
5.749194,26,-55,-4,1,-25,-33,-3,-8,4.349019569
5.749861,-58,43,-4,1,10,9,-7,3,4.349019569
5.749881,20,-6,4,13,45,-18,-9,-1,4.349019569
5.772260,-22,-58,-4,-27,-22,-18,19,53,4.349019569
5.772287,-21,58,1,10,-25,-21,-4,-9,4.349019569
5.774611,2,-71,-7,-2,33,-18,-1,51,4.349019569
5.774621,16,65,1,-1,20,20,20,-8,4.349019569
5.785859,42,37,8,24,18,0,-20,-18,4.349019569
5.785884,-15,-31,-9,-3,-5,14,11,19,4.349019569
5.796345,22,-16,-6,-4,-55,44,37,11,4.349019569
5.796353,-31,40,-3,-9,-48,-89,-41,-61,4.349019569
5.811436,28,-21,11,5,-26,-4,-3,-9,4.349019569
5.811443,7,10,-3,1,17,4,-18,-12,4.349019569
5.811445,-10,-19,3,7,-20,-34,3,-11,4.349019569
5.811448,-39,-25,-7,-4,45,47,65,-9,4.349019569
5.832591,-11,40,-3,-6,81,26,-14,-16,4.349019569
5.832607,18,-47,2,-10,-33,-11,29,3,4.349019569
5.835017,-34,18,3,16,73,20,-2,-41,4.349019569
5.835028,24,-11,-1,-8,24,-42,35,4,4.349019569
5.846244,5,36,0,-19,-123,-34,16,3,4.349019569
5.846275,-9,88,-3,2,-37,44,-3,-17,4.349019569
5.854970,-4,-64,3,11,87,-30,5,-12,4.349019569
5.854976,22,-17,-1,2,0,13,15,25,4.349019569
5.869516,-29,-54,-7,-7,-30,-56,-13,-17,4.349019569
5.871170,3,13,4,-22,10,-33,-14,-31,4.349019569
5.871176,-3,29,-5,21,-8,3,-13,-17,4.349019569
5.871178,37,-1,7,32,38,-69,-23,14,4.349019569
5.892214,-4,-13,-2,-13,-36,50,11,-39,3.586105481
5.892237,16,5,-2,3,-8,17,10,12,3.586105481
5.893346,7,-40,-2,22,35,35,-29,-50,3.586105481
5.893365,-9,2,4,-15,-68,8,6,28,3.586105481
5.905924,-15,70,1,3,36,9,18,-16,3.586105481
5.905943,-14,27,-5,-14,41,45,20,64,3.586105481
5.914122,-14,40,-7,-16,-74,59,24,-47,3.586105481
5.914139,-4,3,-2,10,5,-18,-29,-20,3.586105481
5.929282,-6,67,9,-26,-18,17,10,-7,3.586105481
5.929304,-25,-53,-16,52,83,-66,-15,12,3.586105481
5.930896,-15,33,-1,-33,-10,21,-2,31,3.586105481
5.930900,6,20,5,38,104,-4,-34,-1,3.586105481
5.952716,-14,-42,-7,-34,-67,2,-1,11,3.586105481
5.952730,14,-20,3,-4,-29,9,-3,-34,3.586105481
5.954432,22,40,3,12,5,-54,-17,19,3.586105481
5.954452,-7,-20,-8,0,-12,4,-1,5,3.586105481
5.975073,8,36,-3,4,21,-6,-38,-21,3.586105481
5.975104,-4,21,1,-9,-29,10,15,-54,3.586105481
5.978276,-10,26,2,-2,21,-27,-10,65,3.586105481
5.978288,-15,16,3,-18,-40,19,12,-24,3.586105481
5.989108,15,15,6,15,-21,-1,-28,6,3.586105481
5.989130,-26,-1,-2,-12,65,9,14,6,3.586105481
5.990584,23,14,10,15,-8,-46,-17,16,3.586105481
5.990590,-55,-22,-2,8,46,38,32,18,3.586105481
6.012333,-14,-60,-10,-4,77,2,-5,10,3.586105481
6.012374,26,18,5,-11,-31,6,-5,24,3.586105481
6.012948,3,-1,-4,-20,-26,-13,-14,-27,3.586105481
6.012961,15,-26,-4,-3,-4,-9,7,5,3.586105481
6.034858,-15,-56,-6,0,-35,-5,-10,-16,3.586105481
6.034890,0,-12,12,12,-8,-25,-17,5,3.586105481
6.035912,25,-10,-15,-15,-53,30,-3,-4,3.586105481
6.035918,-8,-15,-9,-7,-12,-6,-19,-2,3.586105481
6.050394,-3,-47,1,11,68,-19,-29,5,3.586105481
6.050418,-3,-22,-2,-17,47,52,32,-44,3.586105481
6.052789,26,69,9,19,66,-46,31,33,3.586105481
6.052797,19,-2,2,-7,-11,-26,-6,4,3.586105481
6.073184,-8,5,4,20,29,-11,26,14,3.586105481
6.073191,-6,16,-2,4,-17,11,-19,-6,3.586105481
6.073193,31,49,2,-23,-26,-76,8,-9,3.586105481
6.073195,-91,-55,-5,2,4,44,-12,-32,3.586105481
6.095258,14,11,-1,2,35,-9,21,15,3.586105481
6.095286,52,19,-3,-5,-84,6,-6,35,3.586105481
6.098196,-10,-9,2,-11,-85,45,-30,9,3.586105481
6.098202,2,3,-3,5,67,-9,36,-3,3.586105481
6.109017,11,-7,0,15,-46,76,-15,1,3.586105481
6.109034,-34,-21,-7,-17,-82,36,-24,-21,3.586105481
6.110382,34,26,3,41,48,-44,34,39,3.586105481
6.110391,3,-14,-3,-7,-20,18,-37,45,3.586105481
6.132926,-24,20,3,9,43,-6,38,62,3.247451194
6.132979,-34,24,1,0,-35,-39,-8,34,3.247451194
6.135535,-32,-50,2,-4,26,25,-11,-45,3.247451194
6.135540,20,5,-1,-5,-50,-41,15,18,3.247451194
6.154709,-4,7,-5,-6,-2,22,-40,-19,3.247451194
6.154732,21,8,8,18,9,-37,22,7,3.247451194
6.155451,3,-20,-9,-12,22,27,5,-10,3.247451194
6.155471,9,6,0,-6,-45,-50,-92,-22,3.247451194
6.169051,-2,-33,-10,-5,41,53,82,-6,3.247451194
6.169094,44,45,1,-2,-25,-22,-22,4,3.247451194
6.169714,-38,-69,-3,-28,22,7,7,27,3.247451194
6.169723,44,-3,2,-1,-26,26,8,-20,3.247451194
6.192136,-7,36,-3,18,37,-28,-10,-3,3.247451194
6.192153,-34,-19,1,4,3,3,-10,-4,3.247451194
6.192996,33,54,0,13,-8,-21,13,6,3.247451194
6.193001,12,109,4,-11,-39,11,9,-23,3.247451194
6.217431,-20,-30,2,1,-5,-48,1,60,3.247451194
6.217444,4,-53,-8,5,18,4,39,13,3.247451194
6.217446,-37,2,0,-13,-10,40,-69,-25,3.247451194
6.217448,1,1,-5,5,-23,-17,20,14,3.247451194
6.229008,-13,27,8,4,-82,12,-3,-42,3.247451194
6.229027,-3,10,-4,8,62,21,-1,0,3.247451194
6.230881,-30,-50,-9,-12,-72,34,6,6,3.247451194
6.230887,58,-30,-1,2,64,86,-29,18,3.247451194
6.252364,-51,-2,-11,-28,-85,-61,46,-24,3.247451194
6.252387,11,-34,2,-1,44,14,-55,7,3.247451194
6.253728,9,2,-1,16,-5,-43,-3,-10,3.247451194
6.253744,-75,-65,-11,-1,119,-4,27,1,3.247451194
6.274750,30,68,8,-7,-42,-35,-59,-30,3.247451194
6.274775,-24,-1,-5,-19,-13,0,-1,-1,3.247451194
6.276051,76,-3,5,6,9,-61,-17,21,3.247451194
6.276057,10,50,12,4,-18,-11,14,71,3.247451194
6.289252,-7,47,-4,0,46,-7,5,-5,3.247451194
6.289276,-65,-59,-6,1,-11,-14,-17,-28,3.247451194
6.290271,33,7,0,-3,13,7,19,8,3.247451194
6.290278,27,20,-3,-5,-51,-6,20,6,3.247451194
6.311724,-34,13,5,1,35,1,-34,-47,3.247451194
6.311754,3,-5,-8,3,-3,0,3,3,3.247451194
6.312257,14,32,0,-1,30,-6,48,20,3.247451194
6.312282,-31,58,6,9,3,22,11,-34,3.247451194
6.334909,-7,-35,-4,-30,51,37,-39,-14,3.247451194
6.334927,16,0,-11,26,100,77,50,23,3.247451194
6.335872,2,2,4,-3,27,-103,22,34,3.247451194
6.335877,-32,-44,-4,-3,72,59,-48,-30,3.247451194
6.349298,0,-14,-1,-1,-74,-46,0,-10,3.247451194
6.349331,53,46,10,17,-86,65,49,72,3.247451194
6.350886,29,-30,-4,-5,58,82,-1,-26,3.247451194
6.350893,2,-38,-5,1,-46,-42,-48,-19,3.247451194
6.371437,13,-51,-5,-11,-56,-12,-12,16,3.247451194
6.371461,-50,-19,14,11,-73,-29,14,-36,3.247451194
6.372239,-63,42,-15,13,5,34,-22,-45,3.247451194
6.372245,-13,14,6,-1,-43,-30,27,29,3.247451194
6.395096,27,-24,0,3,19,19,3,2,3.855301961
6.395127,22,-22,6,2,-43,-53,-43,-19,3.855301961
6.396625,-66,-15,-7,-26,-16,-32,7,-32,3.855301961
6.396630,3,-30,-4,-3,111,70,-59,-40,3.855301961
6.409064,57,-9,-5,3,-14,28,60,48,3.855301961
6.409087,4,21,-7,-17,-35,-21,-33,-13,3.855301961
6.410511,66,-1,7,-3,-19,30,-22,21,3.855301961
6.410530,-43,-28,-18,-1,28,8,-9,-35,3.855301961
6.432232,30,-15,7,11,-51,-12,36,-5,3.855301961
6.432276,29,-37,2,-9,57,-21,12,2,3.855301961
6.434763,-40,-26,-2,26,-8,31,-15,13,3.855301961
6.434775,14,59,-2,-26,-78,-53,58,8,3.855301961
6.454707,31,15,3,21,-3,48,-22,3,3.855301961
6.454734,-8,31,-6,-21,-44,-19,2,-2,3.855301961
6.455466,-44,-26,2,8,54,-19,-2,-30,3.855301961
6.455479,21,-15,7,32,-9,8,12,18,3.855301961
6.469072,-16,72,2,-19,-42,-36,24,13,3.855301961
6.469094,16,-47,-4,-2,5,-13,-51,7,3.855301961
6.469779,-29,73,-4,-10,-13,-7,-67,-43,3.855301961
6.469800,33,-5,11,10,-80,-53,36,-1,3.855301961
6.491492,-46,-10,-8,-24,102,98,-29,-42,3.855301961
6.491510,-44,9,-1,-7,50,-42,23,-14,3.855301961
6.492635,9,17,-6,-5,36,-3,7,-7,3.855301961
6.492644,36,2,-4,-18,44,-30,1,21,3.855301961
6.515431,-3,18,2,23,119,-12,-33,-19,3.855301961
6.515447,1,16,-2,-4,-1,68,37,-15,3.855301961
6.515515,10,-18,9,-15,-125,-6,22,1,3.855301961
6.515638,-51,40,-6,2,65,-56,-18,-36,3.855301961
6.528214,23,-33,-3,-5,-28,-33,-17,8,3.855301961
6.528238,0,-46,1,-8,-8,-27,-12,-2,3.855301961
6.536677,23,21,-6,8,-13,21,-20,38,3.855301961
6.536706,31,-31,3,-3,24,28,5,14,3.855301961
6.552217,-34,-39,2,5,-14,2,-35,1,3.855301961
6.552234,3,24,-3,3,-7,-16,22,-28,3.855301961
6.552998,-6,4,11,-10,58,18,0,-15,3.855301961
6.553049,-17,17,2,1,-76,14,-5,21,3.855301961
6.574704,15,-22,-16,-5,-30,-58,61,60,3.855301961
6.574711,-15,15,7,-2,-90,-23,-10,4,3.855301961
6.575383,15,-19,-7,16,92,38,5,-10,3.855301961
6.575458,-26,-36,-4,-23,-77,-30,10,-19,3.855301961
6.589023,8,-38,1,14,108,1,4,-8,3.855301961
6.589035,-28,6,-8,6,-10,41,-12,11,3.855301961
6.596551,-27,-24,-1,1,34,-54,-49,-12,3.855301961
6.596568,75,69,9,-10,-84,-66,61,20,3.855301961
6.612410,-15,-19,1,-11,-89,52,-23,6,3.855301961
6.612436,-17,-3,-8,16,123,11,16,31,3.855301961
6.613597,2,-8,-1,11,10,-8,0,-5,3.855301961
6.613609,-24,-6,-2,0,59,47,-33,-5,3.855301961
6.635145,3,15,5,-9,-17,-36,8,5,3.855301961
6.635150,23,23,2,-7,10,-5,-3,-7,3.855301961
6.635441,-26,-12,1,-4,-57,-7,32,26,3.855301961
6.635449,4,-19,-7,0,24,19,-4,-3,3.855301961
6.648464,-1,69,1,1,-54,-3,-21,13,3.812358980
6.648495,-25,-24,6,-12,-89,-54,-17,1,3.812358980
6.656595,12,-27,-13,6,51,47,15,32,3.812358980
6.656618,15,-7,0,-12,-92,42,-28,2,3.812358980
6.672287,-9,-5,0,22,-13,-74,34,14,3.812358980
