timestamp,emg1,emg2,emg3,emg4,emg5,emg6,emg7,emg8,label
5.002772,-2,-1,3,8,31,12,4,-19,0.268134955
5.002846,17,10,-5,-4,-19,1,-3,-9,0.268134955
5.023437,7,-33,-6,-9,-23,-8,3,30,0.268134955
5.023462,-1,33,1,2,14,-3,-5,-3,0.268134955
5.024631,45,2,5,-3,-58,2,-1,4,0.268134955
5.024642,17,-47,1,4,19,0,1,-6,0.268134955
5.047030,-4,-5,-3,-5,-19,6,-1,21,0.268134955
5.047059,-32,3,4,5,-49,-13,-5,-33,0.268134955
5.049516,60,6,-3,-3,2,1,-4,13,0.268134955
5.049534,-32,-7,-1,1,16,5,0,-19,0.268134955
5.061349,-2,-4,-5,-25,-72,-13,-7,0,0.268134955
5.061370,11,1,0,27,67,8,0,-1,0.268134955
5.061639,-28,7,-3,-4,-4,-6,0,-13,0.268134955
5.063545,19,1,3,3,20,6,-1,81,0.268134955
5.083644,-23,23,-2,-1,4,1,-3,8,0.268134955
5.083672,6,-6,-2,-7,-17,-2,1,14,0.268134955
5.085396,-15,-14,-2,0,12,-2,-3,-1,0.268134955
5.085409,18,41,-1,3,18,1,4,19,0.268134955
5.106627,-3,5,3,3,37,3,-1,14,0.268134955
5.106645,5,23,-3,-12,-32,2,-7,-21,0.268134955
5.107290,-17,-24,-1,-1,5,0,1,-20,0.268134955
5.107301,-15,26,1,-1,-2,1,1,29,0.268134955
5.121080,23,-4,2,7,-14,-9,-2,-15,0.246881398
5.121131,15,-6,-3,-6,48,0,-10,4,0.246881398
5.121695,24,-1,-1,-11,-5,9,4,6,0.246881398
5.121736,-1,11,1,7,30,-8,-2,-34,0.246881398
5.143859,-27,-43,-4,2,1,1,-2,10,0.246881398
5.143891,0,-15,0,-6,-17,-5,-2,8,0.246881398
5.145788,-30,-11,1,2,-17,-8,0,-4,0.246881398
5.145799,19,23,-1,-6,-3,2,-2,-16,0.246881398
5.167516,-4,18,0,0,20,1,0,-1,0.246881398
5.167528,-6,0,-3,-5,-20,-5,-1,-16,0.246881398
5.167531,12,2,-1,2,40,1,4,-15,0.246881398
5.167533,-28,-10,-5,-5,48,7,2,-60,0.246881398
5.182952,9,-4,2,6,-4,1,-1,9,0.246881398
5.182967,-21,4,0,-10,-20,-1,-3,-26,0.246881398
5.182970,4,-2,-4,-1,2,-6,-2,5,0.246881398
5.182972,25,-1,4,1,-44,-1,3,-14,0.246881398
5.203624,-2,11,-6,2,43,2,-15,-13,0.246881398
5.203658,16,11,0,-1,-2,0,2,3,0.246881398
5.204921,-1,-1,-2,-3,19,1,-8,-41,0.246881398
5.204931,-1,1,0,-2,-24,-7,-5,-23,0.246881398
5.228368,-11,-8,0,-4,-9,-1,3,8,0.246881398
5.228381,6,4,1,-2,-25,-3,0,17,0.246881398
5.228384,-4,-3,-1,-4,-24,0,-3,6,0.246881398
5.228387,6,12,-1,5,20,-3,-2,8,0.246881398
5.241209,2,4,-1,-1,-10,-3,4,5,0.246881398
5.241232,-4,-20,-2,1,10,-5,-2,2,0.246881398
5.243616,-1,-16,-1,-4,-3,7,5,6,0.246881398
5.243626,-20,-17,-2,-4,-1,-6,-3,-5,0.246881398
5.264028,9,5,-2,-1,-22,6,5,8,0.246881398
5.264062,11,4,4,3,-23,-13,-10,94,0.246881398
5.264447,-19,-2,-3,-2,55,16,1,13,0.246881398
5.264471,-30,10,-1,-3,-20,-9,-6,-9,0.246881398
5.286870,16,-22,0,4,19,1,2,26,0.246881398
5.286896,9,-5,-3,-6,-13,2,5,-28,0.246881398
5.288268,-11,1,-2,-13,-41,-12,-4,0,0.246881398
5.288288,11,-8,1,12,25,6,0,-5,0.246881398
5.301065,-11,3,0,-3,-2,-4,3,-15,0.246881398
5.301086,-7,34,2,0,1,-3,1,-15,0.246881398
5.302799,9,8,1,2,3,5,2,54,0.246881398
5.302807,27,2,-2,-3,-28,2,4,35,0.246881398
5.323545,-30,-7,0,-11,5,-7,-1,-21,0.246881398
5.323557,-7,0,-3,7,-5,11,3,47,0.246881398
5.324178,-5,-20,-1,8,46,5,-7,-11,0.246881398
5.324218,-10,13,-3,-10,-33,-7,1,-2,0.246881398
5.346892,6,6,2,7,3,-2,-3,-12,0.246881398
5.346924,1,-1,-1,-4,16,8,3,-6,0.246881398
5.349423,-35,-26,1,2,-9,-7,3,-3,0.246881398
5.349439,-22,-3,2,2,6,-2,-2,-3,0.246881398
5.361086,4,-19,-8,-19,-26,0,1,6,0.246881398
5.361103,4,0,-1,5,24,0,-4,-42,0.246881398
5.362938,9,1,3,3,-27,-7,-2,-39,0.246881398
5.362951,-10,-12,0,-3,-5,-2,-5,-4,0.246881398
5.385476,-37,-2,-1,0,-1,1,-2,-2,0.256895268
5.385489,-15,10,2,-3,4,-2,3,-2,0.256895268
5.385492,-8,6,-1,-2,-13,-9,-4,-1,0.256895268
5.385495,25,12,-1,-1,24,1,-3,-10,0.256895268
5.407042,-18,3,-1,4,-17,-3,-7,-57,0.256895268
5.407066,4,-17,0,-6,-16,-15,-3,-7,0.256895268
5.408877,20,13,-1,-7,-63,25,6,-23,0.256895268
5.408889,-17,-13,-1,12,61,-22,-6,-11,0.256895268
5.421038,-3,8,0,-2,-16,14,-5,9,0.256895268
5.421066,-1,5,-4,-2,13,13,23,77,0.256895268
5.423032,21,-36,-3,-4,-18,-30,-11,1,0.256895268
5.423039,-18,-12,-2,-4,-22,-1,0,-2,0.256895268
5.443978,20,10,4,-1,2,1,1,10,0.256895268
5.444009,23,-3,-5,-2,5,-5,-7,-23,0.256895268
5.446488,0,15,0,1,12,5,7,20,0.256895268
5.446497,16,7,-1,-4,-32,4,0,5,0.256895268
5.466823,13,-16,1,6,21,-10,-1,5,0.256895268
5.466841,-3,18,2,-3,-16,3,-4,-59,0.256895268
5.467465,-88,7,-1,5,18,-4,-10,20,0.256895268
5.467484,32,-12,0,-3,-13,-1,-6,-4,0.256895268
5.481333,-2,19,-2,3,24,1,4,30,0.256895268
5.481916,-5,-7,-2,-1,-7,-4,-5,-27,0.256895268
5.484098,36,7,0,1,-4,-2,5,18,0.256895268
5.484122,-41,-10,-4,-14,-30,-2,-1,-7,0.256895268
5.503680,12,-8,-6,9,79,19,6,-15,0.256895268
5.503714,-22,9,1,-6,3,-22,-16,14,0.256895268
5.505059,26,0,-2,-3,-16,-4,-8,2,0.256895268
5.505104,-27,-15,0,-1,5,11,4,-7,0.256895268
5.526922,0,6,-2,-3,-17,-3,4,3,0.256895268
5.526938,-4,5,1,4,9,3,0,15,0.256895268
5.527402,11,19,1,-3,-1,-12,-1,0,0.256895268
5.527418,9,11,-1,0,-5,11,0,-3,0.256895268
5.540891,3,-12,3,1,-19,-7,-3,53,0.256895268
5.540909,0,12,-1,-3,-3,2,-2,-8,0.256895268
5.541748,8,-15,1,2,1,-1,-3,-51,0.256895268
5.541849,15,-10,-3,1,-3,-4,1,-28,0.256895268
5.564399,27,17,1,-5,-22,-7,-2,-3,0.256895268
5.564423,-33,-15,-2,3,39,2,-2,-10,0.256895268
5.567203,34,6,-4,2,-24,3,6,-2,0.256895268
5.567222,-11,7,1,-1,19,5,-8,-18,0.256895268
5.587306,11,-7,0,-3,-14,-6,-8,-40,0.256895268
5.587316,8,-8,-8,-22,3,-2,-3,-26,0.256895268
5.587319,5,-23,3,20,1,2,4,10,0.256895268
5.587321,-19,1,2,2,11,2,2,24,0.256895268
5.600588,6,10,-2,-4,-13,-4,0,0,0.256895268
5.600610,-1,-13,1,1,-18,4,1,7,0.256895268
5.608714,-16,10,-3,-4,15,-4,-2,1,0.256895268
5.608738,8,7,-1,-3,-17,-4,-1,-20,0.256895268
5.623512,2,4,2,6,-45,-12,-6,11,0.256895268
5.623535,1,-4,3,10,45,21,11,-6,0.256895268
5.624183,-16,-12,-3,-7,19,-9,-12,-14,0.256895268
5.624195,14,-20,-2,2,-4,1,0,10,0.256895268
5.647264,-60,4,-2,-7,-9,2,4,-16,0.276711190
5.647307,54,-10,0,4,-16,-8,-3,16,0.276711190
5.650240,-23,10,0,-6,21,7,7,2,0.276711190
5.650252,30,11,1,-14,-64,-2,1,8,0.276711190
5.660695,-8,-10,2,20,46,-13,9,22,0.276711190
5.660728,16,0,0,-4,-25,16,-2,0,0.276711190
5.668811,-30,41,-1,1,19,5,-2,2,0.276711190
5.669737,-9,-21,-6,-7,-13,-8,-2,-4,0.276711190
5.683581,13,2,0,-4,-11,1,0,-16,0.276711190
5.683623,-42,-11,-1,2,1,-8,-1,2,0.276711190
5.684478,24,25,3,-1,-10,-2,0,7,0.276711190
5.684519,-28,14,0,5,21,3,-3,49,0.276711190
5.706920,57,-29,-3,-4,2,-1,-8,-15,0.276711190
5.706946,-29,10,-2,-1,0,-6,0,10,0.276711190
5.708962,19,-3,-1,-1,-17,-6,-4,-61,0.276711190
5.708975,-8,23,-4,-3,22,13,0,-12,0.276711190
5.720598,-3,14,3,4,6,3,-3,25,0.276711190
5.720630,2,-10,0,-4,-21,-2,3,8,0.276711190
5.728584,4,-20,-3,-5,2,-4,-14,4,0.276711190
5.728602,6,-1,1,-6,-3,3,9,-8,0.276711190
5.744529,10,13,-2,14,18,-12,-4,15,0.276711190
5.744539,-5,-17,0,0,-10,-3,-3,-25,0.276711190
5.744542,-8,23,1,-3,4,4,5,15,0.276711190
5.744544,13,-14,-3,-2,-4,-3,2,47,0.276711190
5.766722,-5,-4,-4,-9,-2,4,-2,-3,0.276711190
5.766745,-31,4,1,-2,-12,0,0,-8,0.276711190
5.768194,33,-22,2,3,-23,-4,-3,18,0.276711190
5.768209,-2,3,-7,1,-17,-2,-8,-12,0.276711190
5.780676,27,-13,-2,-3,17,3,3,-7,0.276711190
5.780700,-17,37,-1,3,-2,-6,1,-3,0.276711190
5.788667,-4,11,-3,-1,12,5,6,29,0.276711190
5.790198,-27,-28,-1,6,-10,-8,-12,-31,0.276711190
5.803432,-5,-2,-1,-14,-20,3,-2,-2,0.276711190
5.803456,6,-11,0,12,14,-1,1,12,0.276711190
5.805088,24,14,1,-1,-13,0,1,7,0.276711190
5.805102,14,15,0,-2,11,-8,2,8,0.276711190
5.826990,-54,-10,-2,-1,52,0,2,-1,0.276711190
5.827022,15,-15,-3,-8,-11,5,-2,-7,0.276711190
5.829250,-18,-15,0,3,0,-16,1,-11,0.276711190
5.829264,-4,9,3,-3,27,14,4,-16,0.276711190
5.840353,-15,-16,-1,0,-6,-7,-3,-10,0.276711190
5.840371,9,12,-1,-1,-7,-9,-1,-1,0.276711190
5.849586,-21,19,-3,-5,-14,4,-1,-5,0.276711190
5.849613,-26,-3,1,1,-7,-4,-1,3,0.276711190
5.863662,31,7,-2,1,23,20,1,-51,0.276711190
5.863694,-13,-16,-4,0,3,-41,-16,6,0.276711190
5.866814,13,15,1,-4,-11,1,0,4,0.276711190
5.866834,-25,-24,-3,-6,-23,-7,-5,-21,0.276711190
5.886678,-23,20,0,-2,-16,7,8,40,0.277089752
5.886692,18,-4,2,15,12,8,3,0,0.277089752
5.887497,11,-18,-4,-1,0,-1,-3,-17,0.277089752
5.887510,-2,36,3,1,0,-4,6,12,0.277089752
5.901028,25,1,-1,-10,-15,-3,-3,-15,0.277089752
5.901041,-19,-9,1,-7,-30,-1,1,-3,0.277089752
5.908461,-32,-19,-4,2,45,3,4,21,0.277089752
5.908485,14,-7,0,-1,-54,-5,-2,-18,0.277089752
5.923400,-28,9,0,-1,9,6,-2,-11,0.277089752
5.923416,48,-12,-1,-4,0,10,0,23,0.277089752
5.924585,6,4,-4,-1,13,-2,-2,-31,0.277089752
5.924599,-8,11,-4,-5,21,-3,-3,0,0.277089752
5.946592,6,-3,2,5,-16,-11,-2,5,0.277089752
5.946633,9,-3,1,-14,-14,0,1,-25,0.277089752
5.947420,-33,-10,2,3,5,2,1,-11,0.277089752
5.947465,-19,-9,0,7,31,-7,-8,-3,0.277089752
5.969267,5,2,-3,0,-38,-4,-1,12,0.277089752
5.969285,6,3,-3,-3,5,6,0,38,0.277089752
5.971367,19,26,1,-5,-17,-3,-2,3,0.277089752
5.971383,34,-2,2,3,-5,2,10,53,0.277089752
5.983603,-67,-6,-2,-1,1,0,0,-4,0.277089752
5.983762,29,-7,-3,-4,-9,-2,-3,-17,0.277089752
5.985001,11,2,-2,1,5,-3,1,1,0.277089752
5.985009,6,-24,0,4,4,0,-6,-20,0.277089752
6.007530,7,2,-4,-5,18,9,4,-5,0.277089752
6.007538,-15,12,-1,2,3,-21,-9,-1,0.277089752
6.007541,10,-3,2,0,-15,14,5,10,0.277089752
6.007571,14,-5,1,1,11,-11,-8,-15,0.277089752
6.029482,-6,-6,-1,-1,-17,-6,-2,6,0.277089752
6.029510,-24,-14,-4,-1,14,-3,2,-10,0.277089752
6.031157,-14,32,2,-1,15,13,-18,-44,0.277089752
6.031163,19,-11,-2,-4,-28,-19,-6,-8,0.277089752
6.043793,33,0,-4,-14,-34,15,-2,1,0.277089752
6.043827,30,7,-3,12,30,9,2,-5,0.277089752
6.045526,-32,-15,-2,-5,-4,-12,-3,-30,0.277089752
6.045532,12,6,0,1,12,8,8,15,0.277089752
6.066735,24,-1,2,0,-21,-14,-6,48,0.277089752
6.066763,-45,-4,0,-10,-14,1,-3,-47,0.277089752
6.068726,6,-23,-4,-2,-1,0,-1,14,0.277089752
6.068738,-8,-15,-3,-3,-11,1,-2,-15,0.277089752
6.089235,-4,-1,1,3,-10,-1,4,-9,0.277089752
6.089252,-11,10,-1,1,50,8,4,-2,0.277089752
6.089841,-1,-28,-1,-1,-39,-8,5,29,0.277089752
6.089853,-1,-17,-4,-1,14,5,1,-5,0.277089752
6.103887,-9,0,3,5,7,-9,-7,-18,0.277089752
6.103902,-15,-9,-2,0,1,4,2,9,0.277089752
6.104752,-23,-15,-2,-5,-12,-9,0,2,0.277089752
6.104772,22,24,-1,-12,-18,6,3,-2,0.277089752
6.127647,17,28,0,10,49,5,-10,9,0.277089752
6.127678,25,-1,0,8,-31,-2,-3,2,0.277089752
6.129417,-4,-2,-2,-3,6,0,-2,-5,0.277089752
6.129426,2,-2,-2,-3,1,4,-3,6,0.277089752
6.149322,-5,-4,0,-4,2,-5,-3,-10,0.274602058
6.149338,-4,5,1,-3,-14,0,2,2,0.274602058
6.149947,14,0,0,4,10,-1,0,7,0.274602058
6.149964,-12,1,-1,-1,44,-2,4,39,0.274602058
6.164417,-11,-10,0,-5,-36,-2,2,-11,0.274602058
6.164426,4,-1,0,-1,-7,17,-3,5,0.274602058
6.164429,-20,1,-2,-4,3,-18,-2,11,0.274602058
6.164431,32,1,-1,2,12,12,1,61,0.274602058
6.186736,-9,10,-5,-1,-26,-11,1,-1,0.274602058
6.186754,-6,0,0,-2,-10,1,4,2,0.274602058
6.188000,12,7,2,3,34,10,-3,-20,0.274602058
6.188014,-21,3,1,-12,-79,-6,0,-14,0.274602058
6.212101,11,-10,-7,-1,49,0,-3,-17,0.274602058
6.212109,10,-7,-1,5,20,-4,-2,8,0.274602058
6.212111,-22,44,-1,0,-21,-6,1,-7,0.274602058
6.212114,-39,-21,0,0,3,-2,0,-21,0.274602058
6.224099,5,-7,-1,-5,-10,2,0,4,0.274602058
6.224142,-3,-5,2,-4,2,-7,-4,-16,0.274602058
6.225882,-2,-2,-1,-6,-14,0,-1,10,0.274602058
6.225888,3,-2,0,7,34,1,0,-18,0.274602058
6.247173,-17,-9,0,1,9,1,0,8,0.274602058
6.247203,-12,26,-2,-5,-13,-3,2,2,0.274602058
6.247767,17,-33,0,4,-14,-3,2,8,0.274602058
6.250728,28,0,-4,-3,9,3,-14,-9,0.274602058
6.269477,-12,-13,-2,-14,-14,-1,4,2,0.274602058
6.269494,-14,-1,2,17,-2,-10,2,85,0.274602058
6.271503,14,-2,-3,-5,29,14,5,12,0.274602058
6.271524,-10,-7,0,3,-12,-9,4,-18,0.274602058
6.283969,1,-4,-1,0,-16,-2,-2,-11,0.274602058
6.283996,26,0,-2,-12,-16,4,-5,-20,0.274602058
6.285639,-3,-17,-5,0,2,-4,2,19,0.274602058
6.285649,27,34,8,3,-22,0,1,16,0.274602058
6.305865,-73,43,-5,0,53,-1,-9,-64,0.274602058
6.305883,-8,5,-2,-3,-8,-2,-1,-20,0.274602058
6.313442,-20,-30,-2,2,13,-4,-4,-21,0.274602058
6.313459,23,6,-3,-5,-50,3,1,-13,0.274602058
6.329212,-7,-9,3,2,-9,-5,-2,-25,0.274602058
6.329236,8,0,0,-3,3,-1,-2,-11,0.274602058
6.331122,8,10,1,-5,-4,4,-2,9,0.274602058
6.331129,-31,1,-2,3,17,-9,-1,-24,0.274602058
6.343512,24,-28,1,-8,-10,7,0,10,0.274602058
6.343530,-15,31,-3,17,-16,-6,-5,-2,0.274602058
6.344694,6,6,-1,-4,48,14,2,10,0.274602058
6.344701,-19,-21,-3,-2,4,-7,-3,-6,0.274602058
6.366673,31,-7,0,7,15,-12,-1,14,0.274602058
6.366693,-28,-1,2,-8,-9,5,-4,36,0.274602058
6.367463,50,2,-2,-1,-33,-11,-6,-39,0.274602058
6.367514,-10,0,-1,6,58,13,-9,4,0.274602058
6.389110,4,18,0,-2,-21,-1,5,-7,0.274602058
6.389130,-29,-55,-4,-8,12,-2,-5,-28,0.274602058
6.390851,-28,-2,-6,-1,-21,-8,5,24,0.274602058
6.390864,14,-3,3,-1,8,0,1,1,0.274602058
6.411834,-8,-3,-1,-12,-46,-1,-1,-12,0.303255604
6.411846,30,-5,0,14,32,-1,-3,-7,0.303255604
6.412292,3,-4,1,11,22,4,-1,-2,0.303255604
6.412302,-16,10,-3,-4,-14,-7,3,-12,0.303255604
6.428167,21,-9,1,2,3,4,3,35,0.303255604
6.428179,-4,2,-3,-9,-17,-2,-1,-17,0.303255604
6.428181,-4,-13,1,-5,-13,-1,3,12,0.303255604
6.428184,-23,25,-1,3,3,-4,1,2,0.303255604
6.449176,13,25,0,4,3,-2,-5,5,0.303255604
6.449198,-2,27,1,-9,-1,2,0,2,0.303255604
6.451066,30,1,-1,-1,-25,-3,-4,-8,0.303255604
6.451079,-20,-33,-2,1,-6,-3,0,-6,0.303255604
6.463652,-14,1,-4,2,-9,0,3,7,0.303255604
6.463679,33,2,0,0,-3,-6,0,-6,0.303255604
6.465266,-39,9,2,-5,-7,4,1,-10,0.303255604
6.465280,-2,6,-2,2,16,0,0,-8,0.303255604
6.486766,0,-15,-4,1,-1,-5,-2,11,0.303255604
6.486831,39,-23,-1,-16,-62,20,9,27,0.303255604
6.488665,11,22,-2,12,66,-40,-20,-59,0.303255604
6.488677,-15,-19,-1,6,14,7,-2,5,0.303255604
6.509295,-15,11,-3,-1,8,-3,1,4,0.303255604
6.509312,-8,-23,-2,-5,-4,1,-1,-15,0.303255604
6.509898,9,-1,-2,-6,-14,11,8,9,0.303255604
6.509954,12,7,2,-1,-10,-5,-13,27,0.303255604
6.523495,0,-1,2,6,-6,-5,-3,-2,0.303255604
6.523511,-9,4,-2,-3,41,-3,0,-9,0.303255604
6.524173,-4,-24,-1,-1,-86,9,1,-15,0.303255604
6.524200,-6,42,-1,-2,6,-4,6,18,0.303255604
6.546938,16,-15,2,1,16,3,4,-2,0.303255604
6.546971,9,6,-3,-3,23,0,-12,26,0.303255604
6.549158,-5,-14,-4,-4,-2,-5,-2,5,0.303255604
6.549173,-3,-8,-3,-4,-8,5,4,-16,0.303255604
6.569287,6,6,2,-7,-28,-13,-4,-15,0.303255604
6.569298,14,0,-5,15,4,1,-1,-3,0.303255604
6.569794,-58,4,0,-3,35,8,0,14,0.303255604
6.569804,12,-2,1,-10,-32,-2,0,-8,0.303255604
6.582925,-11,-5,-2,12,42,4,-2,9,0.303255604
6.582948,-10,-9,1,-1,-7,-19,-4,-22,0.303255604
6.591268,-10,-15,-1,-4,-6,-2,-2,7,0.303255604
6.591298,11,-22,-3,-3,12,9,4,-2,0.303255604
6.606619,-20,2,-4,-8,-6,-3,-2,-10,0.303255604
6.606637,3,-5,3,-2,-8,-1,4,-2,0.303255604
6.607684,-5,5,2,4,9,1,-1,7,0.303255604
6.607695,25,-2,-4,-5,4,-6,-1,-15,0.303255604
6.629811,23,-13,0,2,-17,4,2,15,0.303255604
6.629855,-19,28,0,-4,8,1,0,-2,0.303255604
6.632343,-6,12,-3,-2,-75,-4,-1,5,0.303255604
6.632363,5,-8,-4,-1,53,-15,-14,-57,0.303255604
6.643195,-41,-3,0,1,17,-2,-1,-17,0.303255604
6.643219,0,4,2,0,-20,15,3,-6,0.303255604
6.651213,-1,2,-2,-7,-3,-5,-4,-2,0.295422972
6.651240,-7,0,1,25,25,2,2,-10,0.295422972
6.667106,9,1,-5,-5,-24,1,-4,11,0.295422972
6.667126,-11,-20,-2,-3,1,-19,2,-11,0.295422972
6.667644,-19,13,4,0,28,21,5,-24,0.295422972
6.667989,7,-12,1,-7,-39,2,3,32,0.295422972
6.689510,1,-8,-4,-2,28,2,-3,-6,0.295422972
6.689554,1,13,1,0,10,-12,-10,-6,0.295422972
6.692761,19,-12,4,3,3,3,3,41,0.295422972
6.692775,14,-24,-4,-9,-36,-9,-3,13,0.295422972
6.702997,-13,11,-3,-2,26,8,0,-6,0.295422972
6.703015,-13,1,0,-3,-2,-1,2,-12,0.295422972
6.710953,23,4,-2,3,18,-4,0,-5,0.295422972
6.710977,-16,21,2,1,1,0,-2,-2,0.295422972
6.726800,13,-15,2,-2,-29,1,1,17,0.295422972
6.726815,11,-12,-6,-7,33,7,2,9,0.295422972
6.727395,7,0,-3,-3,-5,-8,-4,3,0.295422972
6.727436,-10,-4,-4,-5,3,1,3,11,0.295422972
6.749348,32,9,2,-4,-53,-2,2,-7,0.295422972
6.749374,-46,-15,-1,12,37,15,7,0,0.295422972
6.751092,30,-1,-1,0,15,-9,-9,11,0.295422972
6.751105,-67,2,-1,-8,-3,-4,-1,-51,0.295422972
6.762984,17,-2,-1,-1,-10,-4,-6,-1,0.295422972
6.763008,5,7,-2,-2,-31,3,2,-16,0.295422972
6.771131,18,-5,-2,0,29,-1,1,8,0.295422972
6.771154,12,4,0,2,-11,1,0,-6,0.295422972
6.786761,-18,-7,2,-1,8,1,-4,33,0.295422972
6.786787,-26,10,-2,-2,-8,-9,-4,-28,0.295422972
6.788600,2,0,-2,-2,-29,-1,6,31,0.295422972
6.788610,19,-7,-1,-2,19,-7,-12,11,0.295422972
6.809460,-20,-11,0,0,19,4,3,-20,0.295422972
6.809492,14,7,-1,-4,-17,-9,-3,5,0.295422972
6.811524,29,5,2,4,13,-7,0,44,0.295422972
6.811530,-7,-2,-2,-4,8,26,4,7,0.295422972
6.823173,-9,3,-3,1,2,-9,2,0,0.295422972
6.823203,31,-28,1,-11,-2,-7,-4,-15,0.295422972
6.834277,-18,14,-2,13,-8,1,0,-33,0.295422972
6.834292,7,-7,-3,1,11,-5,5,51,0.295422972
6.846644,-7,-1,1,-9,-48,2,-2,-2,0.295422972
6.846688,6,-5,-4,-2,50,-10,-7,18,0.295422972
6.852902,9,-3,-4,-1,4,0,0,-18,0.295422972
6.852919,5,-9,0,-3,-6,-6,0,0,0.295422972
6.869605,0,-7,-1,6,-19,-2,1,-2,0.295422972
6.869621,-18,8,-1,-7,-34,1,2,17,0.295422972
6.871216,7,-16,0,-4,4,1,-1,-15,0.295422972
6.871240,-10,17,1,4,-20,-4,-8,-7,0.295422972
6.891956,20,-1,1,-3,13,-6,5,48,0.295422972
6.891987,-16,-11,-2,4,4,9,-1,-5,0.295422972
6.893510,-18,36,-1,-3,2,-9,-2,-7,0.295422972
6.893516,-6,-8,1,-2,-4,3,1,-37,0.295422972
6.906576,47,5,-4,0,12,-2,3,49,0.307717227
6.906627,12,3,-1,2,17,3,7,10,0.307717227
6.912954,-32,-5,-2,-3,-12,-4,-5,-8,0.307717227
6.912978,-1,-3,0,-1,11,-5,2,3,0.307717227
6.929885,1,-3,0,1,18,2,-2,-18,0.307717227
6.929893,-30,15,0,1,-40,-9,-1,-23,0.307717227
6.930651,-26,-28,-4,-14,17,9,-3,21,0.307717227
6.930658,30,9,-2,9,20,-5,-4,13,0.307717227
6.951875,-15,-5,1,2,-12,-6,-5,-19,0.307717227
6.951894,7,-8,0,3,-5,8,-6,-12,0.307717227
6.953669,-17,14,0,-17,-66,-14,-2,-23,0.307717227
6.953680,-5,-6,1,13,43,21,5,-3,0.307717227
6.966179,-22,-6,-2,-2,-4,-2,3,-1,0.307717227
6.966200,-1,9,2,0,-25,-6,-4,20,0.307717227
6.972788,18,-8,-1,-3,15,2,-2,-8,0.307717227
6.972805,-4,1,-3,-4,5,-10,-1,-2,0.307717227
6.996689,19,8,-4,-1,-1,5,-1,-20,0.307717227
6.996848,-8,-8,2,2,12,4,7,56,0.307717227
6.998389,12,1,-1,2,13,0,5,-12,0.307717227
6.998413,-11,3,1,-7,-31,-7,3,35,0.307717227
7.011706,4,6,-2,-1,36,6,-5,-19,0.307717227
7.011730,-12,-34,-5,-4,-6,-5,-4,-16,0.307717227
7.013256,-13,22,0,14,10,2,0,3,0.307717227
7.013306,4,1,4,-7,-12,-1,2,-11,0.307717227
7.026173,-20,-3,1,-2,-22,-9,-3,-4,0.307717227
7.026232,1,9,-3,-3,-27,-5,2,5,0.307717227
7.032994,6,-11,2,0,22,12,5,-21,0.307717227
7.033018,34,-9,-3,-4,-32,-3,-9,19,0.307717227
7.049297,5,-6,1,1,14,-5,-4,-2,0.307717227
7.050724,2,23,-1,-1,11,-1,-5,-19,0.307717227
7.050808,-40,-60,-4,-1,-23,-3,1,-39,0.307717227
7.050846,6,14,1,-14,-12,8,1,6,0.307717227
7.071758,-30,-14,-2,15,46,-9,-10,-8,0.307717227
7.071771,19,5,-1,-2,-12,-4,-8,-21,0.307717227
7.073095,14,14,0,3,21,-4,2,7,0.307717227
7.073118,-4,5,-3,-7,-6,10,2,-20,0.307717227
7.085964,24,-1,-1,-4,-1,-10,-3,-6,0.307717227
7.085976,5,-7,1,1,4,8,9,64,0.307717227
7.093020,-24,-8,-2,1,15,1,-8,5,0.307717227
7.093037,18,-12,-5,0,-53,-8,0,34,0.307717227
7.109317,-19,18,0,1,37,9,3,-18,0.307717227
7.109341,12,-10,0,-1,-7,-10,-2,-14,0.307717227
7.111188,26,28,-2,-10,-46,2,1,16,0.307717227
7.111200,-28,3,-2,7,48,-2,1,-7,0.307717227
7.134282,-17,-3,-4,-10,-12,2,-1,-15,0.307717227
7.134296,7,-7,-1,0,-1,3,1,4,0.307717227
7.134300,23,-10,-1,2,2,-5,1,-2,0.307717227
7.134302,-3,41,0,-3,-37,-10,-5,-32,0.307717227
7.146403,13,-11,-2,1,15,3,0,3,0.307717227
7.146435,-16,12,1,2,20,-5,1,-16,0.307717227
7.152666,10,-16,-3,-6,0,3,1,-7,0.307717227
7.152683,7,-18,-2,0,-7,-9,-5,1,0.307717227
7.169299,9,-13,-1,-3,-9,-1,-4,-55,0.323756543
7.169317,-19,-19,-4,-3,3,2,-2,24,0.323756543
7.172011,0,-14,-1,0,-19,-13,-4,5,0.323756543
7.172018,-2,-14,-2,1,21,12,5,-12,0.323756543
7.191579,-8,7,0,1,24,2,-2,-6,0.323756543
7.191597,6,0,0,-7,-12,-10,-2,-19,0.323756543
7.193187,-3,17,0,4,-21,-1,-3,-1,0.323756543
7.193205,-10,-7,-1,0,73,-11,-4,-35,0.323756543
7.205962,-6,-8,2,-1,-22,7,3,35,0.323756543
7.205986,1,-6,-4,-6,-16,10,-5,-17,0.323756543
7.216657,13,29,-1,-6,5,1,1,-2,0.323756543
7.216685,-32,8,1,4,-37,-14,-2,-19,0.323756543
7.229617,7,9,-1,-7,24,17,4,8,0.323756543
7.229642,-9,7,2,4,8,-5,-2,5,0.323756543
7.231953,18,0,-4,3,10,-2,-7,-19,0.323756543
7.231974,4,-4,4,0,-35,-7,0,4,0.323756543
7.251907,36,-4,-6,-4,11,0,-6,2,0.323756543
7.251925,-21,5,-1,-1,-1,0,-1,-9,0.323756543
7.254191,-9,-4,1,1,4,0,5,55,0.323756543
7.254203,-20,-2,0,-3,5,6,3,13,0.323756543
7.266506,-1,-9,-1,-12,-95,-11,3,15,0.323756543
7.266529,16,26,0,21,64,2,-5,-12,0.323756543
7.272802,1,-9,-1,6,17,6,-1,-1,0.323756543
7.272826,-9,-4,-1,1,22,1,-1,6,0.323756543
7.289278,2,1,-3,-9,-70,-6,-5,-12,0.323756543
7.289295,7,1,-1,0,-7,-3,-1,0,0.323756543
7.290572,-10,-9,-1,-4,-3,3,-3,-3,0.323756543
7.290588,7,24,0,0,-1,2,0,-3,0.323756543
7.311949,16,-3,1,7,0,-1,-1,1,0.323756543
7.311980,-23,-18,-2,-10,-33,-11,-5,-34,0.323756543
7.314166,-11,2,3,2,28,2,-19,-20,0.323756543
7.314172,21,2,-4,-2,-29,11,1,-8,0.323756543
7.326138,-5,1,0,1,22,-21,-13,5,0.323756543
7.326156,-8,4,0,-2,-3,-4,0,-37,0.323756543
7.333107,-5,-11,-4,-4,4,-3,1,-22,0.323756543
7.333142,-3,-4,-1,-11,-77,-13,-4,-5,0.323756543
7.351166,2,30,0,17,36,27,7,2,0.323756543
7.351178,9,-27,-1,-4,-4,5,5,-4,0.323756543
7.351181,-2,3,0,-1,6,-4,-3,12,0.323756543
7.351184,2,-6,-1,-2,7,-5,2,9,0.323756543
7.371756,-4,7,0,-5,-8,-7,2,3,0.323756543
7.371774,-38,3,-1,-3,-26,-1,1,10,0.323756543
7.373393,20,-8,-2,-3,-9,-4,4,0,0.323756543
7.375263,-1,-13,-1,6,71,8,-8,6,0.323756543
7.385955,-13,-3,0,-5,-34,-5,2,-19,0.323756543
7.385972,8,-5,-1,9,32,3,0,19,0.323756543
7.396341,-4,-6,-1,-5,-30,-6,1,6,0.323756543
7.396356,0,17,-2,-1,24,4,-2,-13,0.323756543
7.409585,6,1,-1,0,18,-11,1,8,0.323756543
7.409616,18,6,-2,-10,-20,12,-2,9,0.323756543
7.411635,19,8,-2,1,-22,3,8,45,0.323756543
7.411647,5,-39,-5,3,21,-4,-4,0,0.323756543
7.432318,-14,2,-2,-7,3,0,-1,-6,0.328515611
7.432364,11,11,1,-3,-3,-3,-1,14,0.328515611
7.434564,-14,-17,0,2,-24,-5,-3,-28,0.328515611
7.434579,-8,30,4,-3,-13,-1,-3,-21,0.328515611
7.445298,-9,-1,-2,-4,-47,-5,-4,37,0.328515611
7.445312,25,-2,-1,12,58,16,7,-6,0.328515611
7.454785,-13,7,-3,-7,-8,-21,-16,-27,0.328515611
7.454793,-8,2,-1,-5,-11,4,9,1,0.328515611
7.469336,5,-2,0,-15,-11,-9,-4,-11,0.328515611
7.469354,7,-9,-1,15,14,11,0,-2,0.328515611
7.471146,8,28,1,0,-1,-1,4,10,0.328515611
7.471161,-17,-2,-2,-3,2,4,-1,-18,0.328515611
7.491774,39,-12,1,4,19,-3,-1,-2,0.328515611
7.491887,-24,10,-2,-10,-15,-8,-3,3,0.328515611
7.493230,0,-15,-1,2,14,4,2,2,0.328515611
7.493246,5,-14,-2,1,-13,-6,-5,-6,0.328515611
7.506818,-18,1,-1,5,15,6,4,-5,0.328515611
7.506828,8,6,2,-5,-18,-10,-5,-10,0.328515611
7.520348,-11,-1,-2,-1,-7,6,0,2,0.328515611
7.520499,3,-1,-1,-7,-33,-15,-3,18,0.328515611
7.529467,-21,-3,-3,8,77,22,1,1,0.328515611
7.529484,43,-10,-5,-6,-16,-9,-7,7,0.328515611
7.531764,-19,-5,-2,-3,-2,-5,-7,-59,0.328515611
7.531778,13,-8,2,-3,-9,4,-3,6,0.328515611
7.553057,-13,-3,-1,3,22,-7,-4,-19,0.328515611
7.553069,-12,-2,2,-5,-31,-1,1,41,0.328515611
7.553265,-13,-13,-3,-1,22,7,-1,5,0.328515611
7.553273,11,5,0,1,-1,-8,-3,-4,0.328515611
7.565728,11,-2,-3,-1,-13,-4,-7,-15,0.328515611
7.565767,-4,0,0,-1,8,-3,-2,-25,0.328515611
7.576061,23,-4,-1,-4,-7,-2,3,-10,0.328515611
7.576067,-16,-12,1,6,24,3,1,18,0.328515611
7.589410,-27,4,0,0,-19,-3,-10,17,0.328515611
7.589442,42,3,-1,-6,-1,-4,1,1,0.328515611
7.591264,-21,1,1,1,13,2,1,4,0.328515611
7.591271,-2,-12,-2,-1,-11,-4,-2,7,0.328515611
7.612297,1,-7,1,-1,-11,0,2,-11,0.328515611
7.612318,-26,14,-1,-1,6,-2,-6,-34,0.328515611
7.614192,-24,-33,-2,-1,6,1,1,17,0.328515611
7.614198,26,18,2,1,7,1,2,-13,0.328515611
7.625432,-11,-13,-4,-5,-20,-3,1,2,0.328515611
7.625449,-8,-6,-1,-2,6,-4,-6,-43,0.328515611
7.635077,30,16,1,1,-6,2,4,59,0.328515611
7.635088,-23,7,1,0,-2,1,-1,1,0.328515611
7.649231,11,-11,-4,-1,-15,-1,3,-6,0.328515611
7.649252,19,-2,-3,-2,5,0,0,-3,0.328515611
7.650697,-5,9,-2,0,7,0,-3,-12,0.328515611
7.650716,-27,-17,-4,-1,6,-2,-2,-6,0.328515611
7.671875,-10,7,3,-1,-17,-1,-1,9,0.328515611
7.671894,-13,3,1,0,-7,-2,4,26,0.328515611
7.674106,13,3,2,-1,6,2,2,80,0.327348376
7.674113,5,4,-1,0,-9,1,1,2,0.327348376
7.685320,-2,1,-1,0,4,-3,-4,-33,0.327348376
7.687571,-15,-5,-1,-1,-2,-2,0,12,0.327348376
7.695348,7,1,1,0,1,-1,-7,-30,0.327348376
7.695353,3,7,1,0,3,1,0,13,0.327348376
7.709321,13,-8,-3,-4,4,0,-4,16,0.327348376
7.709328,-26,-15,1,-2,1,-2,2,15,0.327348376
7.710728,0,-2,-5,-5,-10,-3,0,-49,0.327348376
7.710769,10,10,1,0,2,-1,-7,-3,0.327348376
7.732253,-18,-3,-1,0,4,-2,2,-5,0.327348376
7.732280,25,-4,-1,1,-9,-3,-4,6,0.327348376
7.734499,-2,5,-1,-2,2,-1,-3,-22,0.327348376
7.734514,7,-7,-2,-2,3,2,9,43,0.327348376
7.745491,-6,-5,0,0,3,-1,4,-14,0.327348376
7.745538,-12,7,-1,-3,-22,0,-2,47,0.327348376
7.756184,-7,-5,-1,1,34,-3,-2,1,0.327348376
7.756194,23,-7,-3,1,6,-3,-2,-16,0.327348376
7.770170,-31,12,3,0,-4,-2,-2,-3,0.327348376
7.770206,-1,-22,-8,-4,3,-1,-1,-8,0.327348376
7.772595,-2,0,-2,-1,-17,-1,-2,-6,0.327348376
7.772607,-7,7,-1,-3,-5,-2,2,1,0.327348376
7.792500,25,14,-1,2,10,1,4,-6,0.327348376
7.792524,-20,5,-1,-2,-5,-1,4,30,0.327348376
7.799560,-45,-10,-1,1,-3,1,0,4,0.327348376
7.799590,38,-3,-2,-1,-1,-2,-2,-15,0.327348376
7.805494,-30,-10,2,-2,-7,-1,-4,-67,0.327348376
7.805512,-33,-2,3,1,4,0,-1,12,0.327348376
7.816414,21,19,-2,-3,-4,-1,3,-25,0.327348376
7.816428,-24,-5,-2,-1,1,-1,-2,36,0.327348376
7.829436,9,0,1,-4,-2,-2,1,13,0.327348376
7.829452,-8,-35,-2,1,2,0,-2,-56,0.327348376
7.831212,9,-17,2,3,3,-1,-13,30,0.327348376
7.831218,12,68,-6,-5,-7,-5,-13,-51,0.327348376
7.851741,-52,2,-2,-5,-3,-3,3,-40,0.327348376
7.851754,57,36,-12,-4,2,0,16,-29,0.327348376
7.853241,-20,-59,-6,1,-6,-2,-3,10,0.327348376
7.853257,35,-24,-3,-1,-1,-2,-4,-44,0.327348376
7.874390,-23,37,18,4,2,2,3,75,0.327348376
7.874415,19,30,-31,-8,-1,-3,-2,-1,0.327348376
7.876309,-15,-1,34,6,-3,0,1,-37,0.327348376
7.876318,-21,-56,-8,1,2,1,3,6,0.327348376
7.888619,46,27,20,0,2,-1,-1,-3,0.327348376
7.888638,-34,-9,9,7,0,-1,-5,-3,0.327348376
7.895466,23,38,-29,-9,-3,-1,0,23,0.327348376
7.895490,-75,-45,2,0,1,1,1,12,0.327348376
7.911880,97,27,-13,-4,-2,-1,-4,23,0.327348376
7.911905,-78,33,-5,-2,0,-2,-4,-3,0.327348376
7.914343,33,26,-1,-1,-4,-1,0,2,0.327348376
7.914360,-8,-18,6,2,0,1,2,4,0.327348376
7.934352,-16,-17,-13,0,-1,-1,-4,-9,-0.058879606
7.934371,38,-13,15,3,1,1,-1,5,-0.058879606
7.935781,-29,-30,-3,-1,0,0,1,-17,-0.058879606
7.935805,-11,1,5,0,-2,0,0,1,-0.058879606
7.948511,4,-12,-4,2,-1,-2,-1,17,-0.058879606
7.948537,23,-9,0,-1,0,-2,-5,0,-0.058879606
7.955258,-28,4,0,-2,-3,-2,-1,2,-0.058879606
7.956174,33,18,-4,-3,0,1,-3,3,-0.058879606
7.971797,-16,-20,-6,-3,-1,-3,-1,5,-0.058879606
7.971820,13,-10,8,2,1,1,0,1,-0.058879606
7.973089,-2,-23,-2,-1,-2,-2,-2,-9,-0.058879606
7.973099,-1,0,-5,-1,0,-2,1,2,-0.058879606
7.994180,-11,0,-10,-4,-1,-1,0,-4,-0.058879606
7.994262,-15,-13,1,-3,-2,-2,-2,-1,-0.058879606
7.995580,27,16,3,2,-1,0,0,6,-0.058879606
7.995604,-24,0,-5,0,-1,-1,-2,-3,-0.058879606
8.008615,-10,-2,-3,-3,-1,-2,-2,3,-0.058879606
8.008643,14,15,-1,-3,0,0,-2,-3,-0.058879606
8.015693,15,-30,-2,-2,-1,-1,0,-6,-0.058879606
8.015790,13,33,13,-1,0,-1,1,1,-0.058879606
8.031814,-23,-33,-21,-5,-3,-2,-4,-3,-0.058879606
8.031833,9,2,-4,0,-2,-2,-4,-3,-0.058879606
8.033260,-4,23,-2,-1,1,-1,1,-2,-0.058879606
8.033275,-3,-6,1,1,-1,-2,0,1,-0.058879606
8.054576,-5,-8,7,3,3,-1,1,5,-0.058879606
8.054608,-5,8,2,-2,-2,-2,-3,0,-0.058879606
8.056755,-9,12,-2,0,-1,-1,-1,3,-0.058879606
8.056773,2,-6,-6,-5,-2,-2,0,-3,-0.058879606
8.068696,-3,-2,5,-1,-1,-2,-3,-1,-0.058879606
8.068715,-2,-13,-1,1,0,-1,1,0,-0.058879606
8.075497,4,3,-7,-5,-2,-3,-3,-4,-0.058879606
8.075521,-8,9,9,1,2,-1,-1,4,-0.058879606
8.091700,3,-7,2,1,1,0,-1,0,-0.058879606
8.091716,-4,-9,0,-1,-2,-1,-2,0,-0.058879606
8.093103,-15,1,-2,-1,-2,-2,0,-4,-0.058879606
8.093119,-5,-3,13,3,-1,-2,-2,-2,-0.058879606
8.114472,5,41,-3,-2,-2,0,-1,3,-0.058879606
8.114503,-26,28,3,0,0,-2,-2,-3,-0.058879606
8.117032,-9,-37,-13,-2,-3,-1,-1,1,-0.058879606
8.117043,-3,-13,-17,-5,-2,-1,-2,-6,-0.058879606
8.128097,1,-2,7,2,-1,-2,1,-6,-0.058879606
8.128130,8,2,2,1,-1,-3,-1,6,-0.058879606
8.137085,-14,15,5,3,1,-1,1,-2,-0.058879606
8.137096,9,-5,-8,1,1,-1,1,1,-0.058879606
8.151885,15,-9,-1,-1,-1,0,-1,11,-0.058879606
8.151908,4,-12,-4,-3,-3,-2,-3,-11,-0.058879606
8.153170,4,7,-1,0,0,-1,-1,0,-0.058879606
8.153273,-7,7,-3,-2,-2,-1,-3,-1,-0.058879606
8.174251,18,-8,3,-1,-2,-2,0,5,-0.058879606
8.174269,-8,-1,-1,-2,-3,-1,-1,-2,-0.058879606
8.175615,-4,1,14,5,0,0,0,0,-0.058879606
8.175631,-8,-25,-10,0,-2,-1,-1,-6,-0.058879606
8.187944,-3,-4,0,-2,0,-3,-4,-1,-0.062940137
8.187962,10,-15,-9,-3,-1,0,-2,2,-0.062940137
8.197123,8,19,-5,-3,-2,-2,0,-1,-0.062940137
8.197132,10,10,5,1,0,-2,0,0,-0.062940137
8.212443,-6,0,-6,1,-2,0,0,-6,-0.062940137
8.212452,2,-10,-6,-7,-2,-2,-1,-1,-0.062940137
8.213039,5,4,0,-5,-1,0,0,4,-0.062940137
8.213046,10,8,9,5,2,0,0,0,-0.062940137
8.234342,-2,4,2,2,1,1,0,2,-0.062940137
8.234364,-9,-19,0,1,1,0,0,-9,-0.062940137
8.235734,17,-16,-4,-3,-2,-2,-2,1,-0.062940137
8.235745,-8,4,-3,-3,-4,-1,-2,1,-0.062940137
8.248176,4,4,-6,-1,-1,-2,-3,-4,-0.062940137
8.250535,4,-2,14,2,0,0,-1,2,-0.062940137
8.258474,7,2,4,-1,-2,0,-2,-3,-0.062940137
8.258483,5,0,-17,-4,-3,-1,-2,-1,-0.062940137
8.272079,-2,36,-25,-4,-2,-3,-2,0,-0.062940137
8.272111,-5,-58,20,3,-2,-1,-3,-3,-0.062940137
8.274290,4,8,-6,-1,1,0,-2,1,-0.062940137
8.274301,1,-10,9,-2,-2,-2,-2,1,-0.062940137
8.295691,-7,-9,4,0,-2,-1,0,-3,-0.062940137
8.295753,6,19,-9,0,2,0,1,2,-0.062940137
8.297784,-5,2,1,0,0,0,0,2,-0.062940137
8.297790,4,32,-13,-4,-3,-2,-3,0,-0.062940137
8.307896,-1,-51,8,2,1,-1,1,-1,-0.062940137
8.307951,-1,-4,-1,0,-2,-1,-1,0,-0.062940137
8.324140,-4,2,1,1,1,0,0,1,-0.062940137
8.324156,-2,13,-1,-3,-1,0,0,-4,-0.062940137
8.332578,2,0,10,0,-1,-1,4,2,-0.062940137
8.332612,3,-11,-9,-3,-2,-3,-8,3,-0.062940137
8.335341,-1,-2,-6,-5,-2,-1,-1,-4,-0.062940137
8.335355,-2,2,5,-1,-3,-1,-3,-2,-0.062940137
8.354271,-7,-6,4,-2,0,0,-1,-6,-0.062940137
8.354286,-1,16,-19,-7,-1,1,1,0,-0.062940137
8.355709,2,-2,15,4,-1,-2,-1,-2,-0.062940137
8.355757,-2,14,12,3,3,-1,0,1,-0.062940137
8.367958,-4,24,-7,-5,-3,0,-2,-1,-0.062940137
8.368000,4,-16,5,-1,-3,-3,-2,-4,-0.062940137
8.377984,-7,-7,0,7,5,2,0,1,-0.062940137
8.377998,-6,-55,-15,-4,0,-1,1,2,-0.062940137
8.391720,2,3,0,-2,-1,-5,-2,-4,-0.062940137
8.391737,3,27,-9,2,2,-1,1,3,-0.062940137
8.393064,0,-4,0,-2,-3,-3,-1,0,-0.062940137
8.393101,-2,-23,5,0,2,1,-1,0,-0.062940137
8.414094,-4,7,-2,-6,-1,0,-2,-2,-0.062940137
8.414110,1,15,4,-1,-2,-1,-2,-2,-0.062940137
8.415845,-6,-20,-1,-2,0,-1,1,-2,-0.062940137
8.415867,3,15,0,-1,-2,-2,0,-2,-0.062940137
8.429806,-1,-1,-7,-2,-3,-2,-2,1,-0.062940137
8.429814,2,12,1,0,2,0,2,-1,-0.062940137
8.437764,2,10,-9,-6,-1,0,0,1,-0.062940137
8.437779,-3,3,9,5,0,0,-2,-2,-0.062940137
8.451932,4,30,-4,3,2,2,-1,1,-0.062777894
8.453285,-7,-62,15,2,0,-1,-1,-1,-0.062777894
8.453347,0,12,-22,-7,-3,-3,-2,0,-0.062777894
8.453372,-5,-11,20,0,-2,-1,-2,-4,-0.062777894
8.475645,5,-26,-12,-2,1,-1,-1,0,-0.062777894
8.475657,1,54,0,2,0,0,0,0,-0.062777894
8.476032,-5,-60,13,-2,-2,-2,-2,-1,-0.062777894
8.476040,0,-6,-14,-3,-1,-2,1,0,-0.062777894
8.488514,5,5,9,0,-1,1,-2,1,-0.062777894
8.488547,-14,-17,-21,-9,-5,0,-1,-2,-0.062777894
8.498847,8,7,-12,-3,-4,-2,0,-1,-0.062777894
8.498866,-9,-2,12,10,5,2,0,0,-0.062777894
8.511888,6,-29,-7,-3,-1,-1,-2,-2,-0.062777894
8.511918,14,14,-15,-5,-2,-3,-1,-1,-0.062777894
8.513808,-7,25,0,-1,-2,-1,0,-3,-0.062777894
