timestamp,emg1,emg2,emg3,emg4,emg5,emg6,emg7,emg8,label
5.003582,49,-17,-6,2,21,-1,1,11,1.622199213
5.003684,-30,-3,1,0,2,-6,7,-6,1.622199213
5.003692,-24,-6,-6,-5,44,38,-7,1,1.622199213
5.003696,-8,-12,2,4,13,35,-11,-35,1.622199213
5.024206,-3,11,1,1,-40,-83,-14,10,1.622199213
5.025540,33,-6,0,-7,23,66,-27,4,1.622199213
5.025545,-41,51,2,1,-3,-23,2,-5,1.622199213
5.025547,10,-21,-1,4,24,15,7,29,1.622199213
5.037703,-22,1,-7,-17,-47,21,0,-7,1.622199213
5.038574,-4,-2,0,8,19,-34,-12,-12,1.622199213
5.047543,57,2,2,3,11,-16,7,2,1.622199213
5.047556,-14,-5,0,-2,-39,-9,13,-17,1.622199213
5.061592,-35,12,1,12,47,16,12,11,1.622199213
5.061616,-15,-6,-2,-11,5,-4,-5,12,1.622199213
5.063361,21,2,-6,-21,9,61,-2,-21,1.622199213
5.063378,6,-15,-2,11,14,-52,-27,7,1.622199213
5.084202,19,5,2,0,-26,-12,-4,-9,1.622199213
5.084221,-3,5,-5,-5,-55,-19,19,-7,1.622199213
5.085606,15,-7,1,-5,68,11,22,8,1.622199213
5.085624,-4,5,1,5,-2,-15,-37,-1,1.622199213
5.106786,-32,37,0,-6,46,73,-7,5,1.622199213
5.107721,16,-18,-2,2,30,-54,9,13,1.622199213
5.108024,3,-2,-2,3,-16,-41,-23,-32,1.622199213
5.108048,-5,-11,-2,-3,-14,22,6,15,1.622199213
5.120724,-14,-5,5,3,-7,12,21,-9,1.622199213
5.120747,-3,0,0,2,-35,0,-27,-22,1.622199213
5.129856,-10,10,3,5,-14,-41,12,9,1.622199213
5.129862,6,16,-2,-3,36,7,24,77,1.622199213
5.144156,-50,3,-2,-10,-25,0,9,-3,1.622199213
5.144175,37,-7,-5,0,3,4,-8,2,1.622199213
5.145654,4,-12,-3,5,-11,-16,2,-12,1.622199213
5.145670,-19,-3,1,-10,-27,12,-10,-22,1.622199213
5.167477,7,1,0,2,13,15,-10,12,1.622199213
5.167506,-3,7,0,8,44,14,-10,-5,1.622199213
5.169295,-3,-1,3,-4,-85,-41,2,8,1.622199213
5.169308,2,-13,-2,-3,-13,42,-2,-37,1.622199213
5.181729,44,16,-1,0,12,5,-9,-6,1.622199213
5.181749,-17,-18,-5,3,-2,-1,4,-19,1.622199213
5.183365,8,33,-2,-19,-49,-9,-25,7,1.622199213
5.183375,-2,-9,-5,9,76,23,-3,4,1.622199213
5.205767,-3,-15,0,-1,-41,-24,-1,0,1.684021905
5.205778,17,17,0,2,0,5,7,15,1.684021905
5.205781,-30,-8,-4,-15,33,20,5,-10,1.684021905
5.205784,23,-7,0,15,-1,-57,14,13,1.684021905
5.226620,-25,-8,0,4,0,13,-19,2,1.684021905
5.226642,1,3,0,2,32,23,0,-45,1.684021905
5.228229,-19,-37,-8,0,-42,20,-4,-1,1.684021905
5.228258,15,11,-1,-11,-30,-5,3,-8,1.684021905
5.241041,-22,-20,-2,0,47,3,-3,-8,1.684021905
5.242469,-19,8,0,-2,-26,-1,2,27,1.684021905
5.247820,15,-6,-1,-2,-14,-15,-10,-24,1.684021905
5.247837,-27,28,3,5,7,44,-1,-12,1.684021905
5.264176,10,-1,-3,-8,-22,-52,3,12,1.684021905
5.264193,17,-23,1,-10,6,37,0,0,1.684021905
5.266558,-19,9,-3,24,51,-3,-27,-1,1.684021905
5.266577,15,-10,-5,-11,-22,-26,1,12,1.684021905
5.287415,-3,1,-1,-3,-16,-6,6,-4,1.684021905
5.287497,-21,11,-4,-4,29,7,-14,-16,1.684021905
5.288227,-22,16,5,8,22,-48,17,22,1.684021905
5.288248,71,9,-4,-13,-60,-25,-13,-9,1.684021905
5.301124,-1,-5,-3,3,15,33,-3,-6,1.684021905
5.301141,11,-4,2,3,-8,0,1,-3,1.684021905
5.308089,52,-16,-7,-2,-25,-12,18,53,1.684021905
5.309977,-11,16,-3,-13,-5,-8,-37,-6,1.684021905
5.324216,-21,-14,-2,1,8,33,30,-10,1.684021905
5.324232,-10,7,1,-9,-21,-22,7,3,1.684021905
5.325543,22,44,6,18,64,8,-25,-11,1.684021905
5.325553,-9,-16,0,0,-7,-2,17,-7,1.684021905
5.346677,38,-9,-4,-2,-6,8,-21,11,1.684021905
5.346693,-2,-14,-2,6,15,-24,8,-14,1.684021905
5.348159,-23,-2,-1,-5,-24,11,11,2,1.684021905
5.348179,21,-4,-3,-3,26,-17,-9,-6,1.684021905
5.362157,-3,-12,-1,9,62,3,-8,-19,1.684021905
5.362169,-8,56,0,-13,-73,-18,-22,7,1.684021905
5.375465,15,-15,-2,2,10,32,-2,-15,1.684021905
5.375488,-37,-13,0,7,7,-2,18,-6,1.684021905
5.384155,12,-36,-7,-29,-54,12,6,-3,1.684021905
5.384172,13,-4,0,23,41,-7,-37,-2,1.684021905
5.385646,-57,19,-1,-6,-13,62,26,-1,1.684021905
5.385662,22,-14,-1,6,-8,-20,-18,-10,1.684021905
5.406933,14,11,1,-3,-4,12,1,0,1.684021905
5.406956,-32,-17,-2,-6,34,5,18,2,1.684021905
5.408822,13,2,2,2,-4,-37,-6,22,1.684021905
5.408833,7,-5,3,1,-14,22,3,-6,1.684021905
5.421153,-43,0,-4,0,52,-2,1,-6,1.684021905
5.422415,14,-3,-9,-9,-98,7,1,19,1.684021905
5.427826,-7,-21,1,-3,73,20,1,13,1.684021905
5.427847,-2,13,0,-7,3,11,9,8,1.684021905
5.444137,-29,26,4,11,0,-12,36,-9,1.684021905
5.444162,25,-10,-4,7,45,-38,-70,-15,1.684021905
5.445851,9,-15,-3,-9,-39,-27,1,-11,1.684021905
5.445871,1,-3,1,-5,-33,3,-8,2,1.684021905
5.466932,-14,40,1,8,2,28,19,-3,1.684840597
5.467493,-19,2,2,-10,-21,30,40,4,1.684840597
5.469234,5,-33,-5,-1,1,-39,-26,-10,1.684840597
5.469241,-10,14,0,5,74,15,10,13,1.684840597
5.480939,-6,5,2,-4,-60,-21,-45,5,1.684840597
5.482127,42,-4,-2,-3,5,6,17,2,1.684840597
5.487657,-41,-4,-4,-5,-9,18,3,-7,1.684840597
5.487675,-1,-19,-1,17,38,-23,13,10,1.684840597
5.504081,26,5,1,-7,-11,-20,-3,0,1.684840597
5.504129,-3,-4,-1,-8,-60,-4,3,-6,1.684840597
5.505552,-1,-7,4,23,13,52,11,43,1.684840597
5.505569,-11,15,0,-6,22,-27,-3,6,1.684840597
5.526789,14,-12,-2,0,-4,14,-4,-13,1.684840597
5.526811,-1,3,-1,2,13,-16,37,41,1.684840597
5.528542,-10,-17,-5,-15,-70,-32,-29,-34,1.684840597
5.528556,-7,-24,0,2,29,69,-1,-8,1.684840597
5.541105,34,-4,-1,7,5,-41,6,22,1.684840597
5.541122,-71,1,3,-5,-40,-14,-13,-12,1.684840597
5.547703,93,18,-4,-4,49,2,0,-45,1.684840597
5.547720,-65,-21,-5,4,-23,10,-26,2,1.684840597
5.564121,24,-16,0,-7,-15,-14,-4,-11,1.684840597
5.564135,-20,23,0,-2,7,-3,-9,-15,1.684840597
5.565560,-23,1,0,-2,26,24,24,2,1.684840597
5.565575,8,0,-1,2,-38,-2,-3,-2,1.684840597
5.586967,28,12,-5,-22,-24,-11,-22,-8,1.684840597
5.586985,19,-11,1,26,27,-27,22,5,1.684840597
5.588774,-9,-4,4,-1,11,-4,-2,8,1.684840597
5.588784,15,8,1,-9,4,12,11,-15,1.684840597
5.600288,-44,-5,-2,-1,-86,29,-4,15,1.684840597
5.600305,-2,-12,-2,-10,72,47,-3,-6,1.684840597
5.611092,-11,7,1,4,-35,-23,-1,-5,1.684840597
5.611105,15,-17,-1,1,-25,-13,4,-16,1.684840597
5.624215,-3,-6,-3,2,-12,1,14,17,1.684840597
5.624231,33,-5,-2,-4,64,35,6,-9,1.684840597
5.626029,-44,13,-1,-3,-20,-41,-29,-26,1.684840597
5.626043,21,6,-3,-5,-4,4,23,-6,1.684840597
5.646554,9,-17,-1,2,-29,7,-10,-4,1.684840597
5.646613,20,2,4,12,48,-56,13,4,1.684840597
5.652685,29,10,-5,-23,-63,12,-3,-2,1.684840597
5.652702,-9,38,1,7,24,-19,-2,13,1.684840597
5.660398,-17,18,2,6,13,-12,-5,-10,1.684840597
5.660430,-3,3,1,-4,-19,38,-2,-2,1.684840597
5.670381,-20,-13,1,-1,27,-22,-5,0,1.684840597
5.670387,-25,-9,-1,-7,-59,22,-12,4,1.684840597
5.684113,21,7,0,12,118,-37,-11,-7,1.684840597
5.684130,-17,-9,-7,-13,-73,-28,-3,20,1.684840597
5.686279,13,-4,-1,4,31,11,7,13,1.684840597
5.686290,-2,-3,-3,-10,-101,8,16,7,1.684840597
5.706854,28,-29,-4,-1,-13,20,-1,3,1.654245873
5.706940,-41,-22,-4,6,40,-35,-14,-12,1.654245873
5.708239,7,9,-2,0,-33,15,12,5,1.654245873
5.708254,12,-13,0,-3,47,-18,-34,17,1.654245873
5.720196,5,-1,0,1,-17,7,16,-12,1.654245873
5.720218,-29,5,-1,-7,-28,3,2,26,1.654245873
5.730007,-8,-7,-6,-1,6,11,-5,-12,1.654245873
5.730020,-35,11,0,-3,33,-16,1,-7,1.654245873
5.744166,8,-2,1,3,27,9,-10,-10,1.654245873
5.744193,-17,6,-1,12,-8,-10,-2,-19,1.654245873
5.745696,-3,-9,-3,-7,14,-25,-4,-3,1.654245873
5.745711,-25,36,-1,6,91,-9,13,-1,1.654245873
5.766538,55,-1,-4,-3,57,-5,-22,32,1.654245873
5.766552,-24,-21,-11,-19,-58,1,35,-20,1.654245873
5.767971,-8,8,3,6,1,-6,-15,1,1.654245873
5.767996,68,-10,-1,-6,-67,-23,-7,3,1.654245873
5.780313,-29,-4,2,8,25,11,6,-11,1.654245873
5.780334,1,23,1,-5,-12,-6,-10,-7,1.654245873
5.790511,10,-3,-1,5,4,28,1,24,1.654245873
5.790519,-16,-25,0,-2,4,7,19,-9,1.654245873
5.804182,-27,-11,-1,2,-36,-19,-28,-2,1.654245873
5.804198,1,-12,4,7,-3,26,-10,-1,1.654245873
5.805975,-2,2,-4,-1,-41,-24,33,31,1.654245873
5.805985,-16,-20,-10,-20,13,-7,-3,-10,1.654245873
5.826926,-3,2,1,27,22,20,13,7,1.654245873
5.826954,32,10,-1,-7,-21,-50,-10,-10,1.654245873
5.828699,-1,-6,2,4,7,30,-9,-13,1.654245873
5.828711,-17,-3,2,3,-33,-12,15,55,1.654245873
5.840477,-21,15,-1,-9,11,32,12,-15,1.654245873
5.840507,-14,-18,0,-2,26,-14,-14,-7,1.654245873
5.849720,10,-14,0,7,58,15,-9,-11,1.654245873
5.849725,9,12,0,-5,-43,6,1,-13,1.654245873
5.864085,-2,8,-1,-4,-27,-38,5,-3,1.654245873
5.864101,27,-21,-3,2,55,30,-15,9,1.654245873
5.865800,9,-9,-2,-11,0,10,18,-5,1.654245873
5.865819,-40,20,-3,3,8,26,0,-15,1.654245873
5.886845,-5,3,0,-8,-33,-59,-10,6,1.654245873
5.886882,12,10,2,4,23,-2,-4,-8,1.654245873
5.888684,-16,-3,-2,-1,0,13,-15,-8,1.654245873
5.888690,32,20,-1,1,-85,-7,-11,-11,1.654245873
5.900451,-10,14,0,-7,68,77,-7,-25,1.654245873
5.900479,25,-2,-2,-4,9,-23,-3,9,1.654245873
5.910597,16,11,1,8,-41,-8,10,-5,1.654245873
5.910611,-1,-26,-1,5,-6,8,-8,0,1.654245873
5.924084,-3,-19,-2,-12,-31,-40,-14,20,1.654245873
5.924094,-24,21,-1,-5,-16,44,-6,-6,1.654245873
5.925526,0,-7,-1,3,27,-12,3,8,1.654245873
5.925559,7,-5,-1,-1,11,-8,-11,-35,1.654245873
5.946773,-16,-18,1,3,-20,4,11,1,1.654245873
5.946798,-2,-2,-3,-4,10,1,14,11,1.654245873
5.948686,6,3,2,-2,27,-10,-19,-9,1.654245873
5.948697,-16,-17,-5,12,13,22,9,32,1.654245873
5.960240,13,16,-3,1,30,-29,-15,-9,1.598334966
5.960260,3,-16,-7,-16,-34,28,27,16,1.598334966
5.969953,17,-23,-3,-3,21,15,-14,-16,1.598334966
5.969960,25,-9,4,3,-42,-6,10,-3,1.598334966
5.986025,-17,14,0,-9,30,-1,3,-5,1.598334966
5.986036,-33,6,6,17,-42,3,16,5,1.598334966
5.986039,5,17,0,-8,-51,-7,2,-4,1.598334966
5.986041,-1,3,2,1,125,-23,-7,2,1.598334966
6.006927,25,-16,-4,-4,-44,8,14,4,1.598334966
6.007019,14,6,0,-4,10,8,-4,-9,1.598334966
6.009473,-34,5,1,2,2,-24,-8,-3,1.598334966
6.009483,5,5,-1,-3,36,61,19,-12,1.598334966
6.029164,17,-7,-3,-2,-44,-31,-19,3,1.598334966
6.029184,-8,11,1,-1,2,15,-9,-22,1.598334966
6.031198,25,-12,-4,3,3,-14,-13,-2,1.598334966
6.031214,10,17,2,-9,4,-12,1,0,1.598334966
6.044122,-22,-19,-4,24,35,36,22,-1,1.598334966
6.044160,-5,4,2,-8,-25,13,-33,20,1.598334966
6.045982,-19,1,-1,-2,33,-66,24,-14,1.598334966
6.046004,-4,-25,-4,-3,-11,-21,-10,-7,1.598334966
6.066558,-12,2,-2,-6,-27,-5,-3,4,1.598334966
6.066581,25,-3,1,6,14,4,-2,-4,1.598334966
6.068186,-17,21,-1,-15,-8,1,-11,-37,1.598334966
6.068206,17,-20,-1,17,64,5,-8,-5,1.598334966
6.089244,4,16,-1,-9,-63,-71,-15,-18,1.598334966
6.090472,24,-5,1,4,-11,-3,15,47,1.598334966
6.090661,-60,11,3,1,-29,3,-26,-9,1.598334966
6.090735,30,-6,-4,-8,-24,-4,-2,0,1.598334966
6.104659,8,10,2,2,33,30,18,4,1.598334966
6.104689,-15,4,-4,-6,-22,-20,-24,-32,1.598334966
6.106499,30,-5,0,5,18,25,3,20,1.598334966
6.106504,-9,24,0,-3,-34,-14,-9,-12,1.598334966
6.126625,-35,-4,2,4,-8,-4,8,6,1.598334966
6.126647,11,1,1,-4,2,-68,6,-1,1.598334966
6.128180,11,4,-1,2,-39,-17,-1,4,1.598334966
6.128196,-15,-6,-4,-14,-17,13,-3,29,1.598334966
6.149143,-9,5,0,6,33,-27,-22,-47,1.598334966
6.149160,5,32,-1,-4,-6,44,-3,-4,1.598334966
6.150582,7,-22,-1,5,86,-15,9,-4,1.598334966
6.150595,0,20,-1,-4,-62,-8,1,0,1.598334966
6.163636,-26,-5,-6,-16,-68,21,14,4,1.598334966
6.163654,8,-13,2,1,41,-12,-40,0,1.598334966
6.170367,-39,-24,-1,1,-8,11,1,4,1.598334966
6.170385,-6,-13,0,-1,32,6,7,-7,1.598334966
6.188528,3,-17,-2,-2,25,6,-3,5,1.598334966
6.188538,-8,11,-3,1,13,4,17,-15,1.598334966
6.188541,5,6,2,-4,-47,11,20,71,1.598334966
6.188543,-5,-11,1,3,13,-26,-10,-21,1.598334966
6.209534,3,2,1,2,-13,22,-3,8,1.598334966
6.211949,11,-24,1,2,19,-24,6,-16,1.598334966
6.211970,6,9,-6,-9,23,-17,5,11,1.598334966
6.211973,-14,-2,-2,-6,9,31,-7,-2,1.598334966
6.223814,14,-8,0,-12,-30,0,8,15,1.541098769
6.223829,-16,38,3,24,28,6,10,-12,1.541098769
6.237949,-19,-1,0,7,48,51,-2,-15,1.541098769
6.238006,16,-8,-2,-1,-20,-17,-18,-5,1.541098769
6.246684,4,10,-1,-13,-38,-14,-7,-3,1.541098769
6.246705,25,-11,-1,1,-22,-3,1,4,1.541098769
6.248191,-36,4,-2,-2,-9,15,0,-17,1.541098769
6.248201,2,-16,-1,6,11,-12,-8,11,1.541098769
6.269301,-36,33,-3,3,43,17,1,4,1.541098769
6.269326,-17,-27,-5,-13,17,-4,-1,0,1.541098769
6.270938,53,13,2,1,-40,-12,-13,5,1.541098769
6.270962,-20,17,1,-5,-14,15,14,-14,1.541098769
6.283488,-11,-3,2,2,47,-11,-16,-32,1.541098769
6.283506,4,-10,-4,-7,-34,3,0,-4,1.541098769
6.290473,-13,0,2,1,-17,-11,4,55,1.541098769
6.291890,35,-6,-1,1,5,40,12,16,1.541098769
6.306600,-9,16,-3,0,2,-50,-20,-9,1.541098769
6.306617,1,-20,-4,-3,-5,59,-5,-6,1.541098769
6.308263,9,-1,-1,-2,-62,-76,3,-13,1.541098769
6.308280,9,-2,3,4,83,2,0,-14,1.541098769
6.329091,12,-11,-2,-3,-60,14,2,21,1.541098769
6.329105,-57,-9,2,17,77,-17,5,-11,1.541098769
6.330855,54,0,-4,-15,-54,35,12,-6,1.541098769
6.330873,-12,-27,-5,-7,-13,-32,-12,-5,1.541098769
6.344917,-43,-10,1,8,52,27,5,1,1.541098769
6.344934,42,-27,-6,-16,-61,-20,7,6,1.541098769
6.350405,-12,29,-3,2,20,12,-18,-22,1.541098769
6.350428,-18,22,-1,3,-5,-12,8,27,1.541098769
6.366632,-5,-13,4,2,18,17,22,64,1.541098769
6.366651,-6,8,3,-1,-30,-16,6,24,1.541098769
6.368089,32,-22,-3,0,19,14,-8,-15,1.541098769
6.368102,9,2,-6,-8,-35,-16,-8,-13,1.541098769
6.389676,-19,-9,-3,0,15,-8,-9,-20,1.541098769
6.389684,14,-3,0,1,-1,4,-3,9,1.541098769
6.390612,-13,17,3,5,9,14,0,-7,1.541098769
6.390620,-2,-10,2,1,3,-9,-5,-1,1.541098769
6.403039,34,3,0,-1,5,17,4,-12,1.541098769
6.405374,-26,53,-3,-2,-5,-6,1,-5,1.541098769
6.410610,4,-13,0,-4,3,27,-16,-1,1.541098769
6.410641,-19,-22,-4,-1,-11,-1,-3,-10,1.541098769
6.426403,25,4,-3,-2,3,1,-13,-57,1.541098769
6.426433,1,-9,-2,-4,-20,-39,-6,1,1.541098769
6.428744,5,-4,0,2,13,-5,-2,-11,1.541098769
6.428756,3,1,-3,0,-10,1,4,-7,1.541098769
6.448320,1,-14,-1,-1,-26,-15,7,0,1.541098769
6.448337,-2,-3,-3,-4,28,17,-12,-18,1.541098769
6.449876,7,-5,-3,0,0,4,3,-15,1.541098769
6.449887,18,-9,0,1,0,-15,-4,6,1.541098769
6.462857,1,1,9,1,0,2,3,-5,1.541098769
6.462930,2,58,-7,-6,-11,1,-8,-8,1.541098769
6.470336,-31,-10,2,-2,2,-6,6,9,1.541098769
6.472086,6,-8,3,0,-2,-5,-6,-45,0.941258540
6.486512,36,15,-7,-4,11,7,-23,-56,0.941258540
6.488347,-62,-19,11,5,-9,3,4,-9,0.941258540
6.488360,11,-13,-6,-2,-1,-12,-7,-15,0.941258540
6.488366,5,29,-3,-1,-22,-1,-1,-2,0.941258540
6.508920,-12,28,0,-2,22,-37,2,4,0.941258540
6.508986,50,-7,0,-1,-42,-5,-5,-19,0.941258540
6.511603,-36,-13,-6,-6,25,1,-20,-10,0.941258540
6.511630,12,-13,1,-1,-5,4,11,-5,0.941258540
6.522648,12,-21,-1,0,-8,-1,6,30,0.941258540
6.522665,1,-19,-1,0,13,29,-1,45,0.941258540
6.535510,10,1,-1,1,-19,-40,-3,0,0.941258540
6.535524,-22,18,0,0,-2,15,0,3,0.941258540
6.546069,-2,-13,1,-1,8,6,2,13,0.941258540
6.547485,15,-30,-7,-5,-13,-17,-10,-10,0.941258540
6.547502,-7,-14,2,1,3,23,12,30,0.941258540
6.547504,-7,7,1,1,11,-5,-1,-11,0.941258540
6.568399,-18,-11,-3,0,-7,-2,9,63,0.941258540
6.568420,-5,1,3,2,34,2,1,-11,0.941258540
6.569347,-13,21,0,1,-10,8,6,16,0.941258540
6.569352,-1,-4,-1,-1,2,-11,-6,7,0.941258540
6.583126,-24,33,-4,-2,-5,6,-4,-19,0.941258540
6.583157,5,4,-5,-1,3,3,3,-5,0.941258540
6.590439,15,-4,-2,0,9,-6,-6,1,0.941258540
6.590466,-31,22,0,1,-2,-5,-2,17,0.941258540
6.606139,6,-19,-2,-4,-3,16,6,-7,0.941258540
6.607446,-13,-6,0,-2,-9,-15,-6,-20,0.941258540
6.607462,0,8,0,-1,-4,5,8,-12,0.941258540
6.607467,6,2,-1,-1,-18,-4,-3,15,0.941258540
6.628608,6,-22,-2,-1,19,0,-1,2,0.941258540
6.628629,-5,-19,-3,3,13,42,21,63,0.941258540
6.629149,-11,3,-1,0,-2,-19,-3,-26,0.941258540
6.629167,9,2,0,-4,3,-3,-5,-17,0.941258540
6.642795,-17,7,0,0,0,5,-1,-6,0.941258540
6.642814,-18,-14,2,-5,-26,6,-9,15,0.941258540
6.650384,20,-23,-6,-4,4,-7,3,15,0.941258540
6.650402,26,-5,-2,-2,-3,0,3,15,0.941258540
6.666388,18,16,2,1,-13,-14,8,43,0.941258540
6.668111,-25,-8,-1,0,6,2,0,-6,0.941258540
6.668116,8,13,1,0,2,9,5,36,0.941258540
6.668119,-27,0,-1,0,0,-9,-3,-3,0.941258540
6.690141,11,-11,-1,1,3,5,-6,46,0.941258540
6.690150,31,1,-1,-2,-1,-19,2,-19,0.941258540
6.690152,-24,-1,1,3,-1,10,1,24,0.941258540
6.690155,-16,-12,-2,0,6,-2,-6,-5,0.941258540
6.703112,5,4,-2,-2,-4,9,4,-27,0.941258540
6.703142,-35,-6,-6,-3,-6,-11,-6,-15,0.941258540
6.710673,11,-10,0,-2,-5,-6,-5,-21,0.941258540
6.710706,8,-6,3,1,0,12,0,5,0.941258540
6.726303,4,-5,-1,2,-1,6,-5,3,0.941258540
6.726337,1,-3,-1,0,-4,-28,-10,-14,0.941258540
6.728684,7,-8,-3,0,6,-1,2,-12,0.320770037
6.728703,19,0,-6,-2,-24,4,4,27,0.320770037
6.748368,-20,-2,-1,-3,-30,-6,-4,-53,0.320770037
6.748387,19,11,3,-2,34,-13,-4,-5,0.320770037
6.749336,-23,17,0,5,25,40,5,50,0.320770037
6.749345,23,-23,1,0,1,-7,3,-14,0.320770037
6.762900,-17,-12,-4,-3,0,-3,-1,-19,0.320770037
6.764132,-10,4,-2,-5,-19,-7,-6,-38,0.320770037
6.770364,17,5,-2,-6,-40,9,-2,-30,0.320770037
6.770381,-29,10,-1,4,40,-49,-4,-19,0.320770037
6.786629,46,-2,-1,0,-8,-5,9,15,0.320770037
6.786663,-34,-7,2,0,-3,2,5,0,0.320770037
6.793731,17,-27,-2,0,2,-1,1,-7,0.320770037
6.793758,-16,-4,-2,-3,-15,11,-2,0,0.320770037
6.808950,-3,13,0,-2,4,-3,-3,-21,0.320770037
6.808984,24,-10,-1,-1,-3,-6,-2,0,0.320770037
6.811316,-25,18,-2,-4,-2,-2,-7,-19,0.320770037
6.811329,15,23,-3,0,-1,11,6,7,0.320770037
6.822823,-19,3,-1,0,11,1,-5,1,0.320770037
6.824755,17,6,-3,-2,-21,15,5,5,0.320770037
6.830334,-22,-6,6,4,-1,0,7,33,0.320770037
6.830353,-37,-3,0,3,-6,-15,-9,-10,0.320770037
6.846061,62,-10,-9,-7,-13,-15,4,47,0.320770037
6.846084,6,16,-2,-1,10,26,-4,-28,0.320770037
6.847204,-9,10,1,-3,6,-6,-4,-35,0.320770037
6.847213,-3,-18,-2,-1,-25,0,-3,0,0.320770037
6.868517,-3,-2,4,3,18,-2,-5,-53,0.320770037
6.868540,3,-12,-5,-2,-1,-4,3,-24,0.320770037
6.869558,14,8,-2,-1,-5,-9,-1,-2,0.320770037
6.869564,-15,12,3,-1,13,18,1,-7,0.320770037
6.883172,-24,-21,-2,0,-4,-5,-8,-10,0.320770037
6.883205,11,-3,0,0,1,-2,2,7,0.320770037
6.892471,-1,-10,1,6,12,-16,-4,10,0.320770037
6.892480,-16,-2,-5,-5,3,72,9,12,0.320770037
6.907841,7,-5,-1,1,3,-47,10,13,0.320770037
6.907852,-13,17,-3,0,-12,-6,-6,0,0.320770037
6.907854,-10,-8,-1,-2,4,-10,0,-1,0.320770037
6.907857,35,-15,-2,-1,2,2,-9,-7,0.320770037
6.928648,-2,-8,1,3,-16,24,0,8,0.320770037
6.928672,-20,4,0,-1,20,-4,-1,17,0.320770037
6.929868,1,3,3,-2,5,-5,5,-18,0.320770037
6.929876,33,-15,-4,6,-40,-35,-22,37,0.320770037
6.943215,-46,3,-5,-3,67,21,-6,5,0.320770037
6.943242,33,21,4,5,14,2,-11,1,0.320770037
6.950714,-3,-9,-6,-9,-13,14,-6,-9,0.320770037
6.950731,-17,-28,-2,-4,-3,-71,13,-29,0.320770037
6.965872,-7,19,3,0,-29,2,5,55,0.320770037
6.965889,-4,-15,1,1,-18,-6,-9,27,0.320770037
6.967174,13,-18,-4,1,1,-1,-1,-12,0.320770037
6.967185,-23,44,5,2,39,12,7,36,0.320770037
6.989025,-2,-21,-5,-5,-9,3,1,-32,0.313980759
6.989076,4,-26,0,-3,-6,-1,11,-3,0.313980759
6.989182,-10,2,-2,-2,-10,-2,-8,-11,0.313980759
6.989283,21,14,0,-3,-2,2,-1,-16,0.313980759
7.011409,-9,1,-1,-2,-6,0,-4,-8,0.313980759
7.011562,-1,9,1,0,2,3,1,10,0.313980759
7.013460,0,-2,0,0,-9,-7,0,0,0.313980759
7.013475,4,-9,-2,-2,5,2,-6,-14,0.313980759
7.026467,-12,28,0,3,5,13,3,-6,0.313980759
7.026507,6,1,-3,-3,-11,-8,-6,4,0.313980759
7.029074,-8,1,-2,0,7,-2,-2,-3,0.313980759
7.029090,6,0,-2,-3,1,12,2,-32,0.313980759
7.049118,11,0,3,0,-7,2,-6,-21,0.313980759
7.049130,-35,-14,-5,-3,-1,-11,-2,-18,0.313980759
7.049133,25,0,0,-7,-73,-13,-6,11,0.313980759
7.049135,-40,0,-12,-1,102,39,-10,15,0.313980759
7.071476,18,-7,0,-2,-15,-7,1,-10,0.313980759
7.071494,-7,-16,-1,1,3,-3,2,6,0.313980759
7.072715,41,-5,-3,-1,2,-18,1,-8,0.313980759
7.072727,10,-18,0,-4,-34,14,-2,-10,0.313980759
7.086840,0,5,0,-1,1,-1,-1,3,0.313980759
7.086873,-7,15,2,2,5,3,5,6,0.313980759
7.088498,-26,-3,-2,-2,8,5,-4,-2,0.313980759
7.088503,28,1,4,0,-15,-8,3,-3,0.313980759
7.108933,-33,-27,-3,0,9,2,-2,-10,0.313980759
7.108957,-3,10,-2,-2,-13,2,5,48,0.313980759
7.111731,0,-11,-2,1,16,3,2,-4,0.313980759
7.111757,4,3,0,-1,-9,-9,-6,-12,0.313980759
7.131052,2,4,-2,-2,-8,2,6,26,0.313980759
7.131067,26,-15,1,0,-3,-4,-3,-14,0.313980759
7.131645,-50,62,2,0,14,8,1,2,0.313980759
7.131661,-10,-15,-4,0,-8,-4,3,52,0.313980759
7.146052,-2,27,0,-2,-5,2,0,17,0.313980759
7.146075,14,-5,-3,-1,0,0,2,-2,0.313980759
7.147346,7,3,-2,0,13,6,-3,5,0.313980759
7.147356,13,0,1,-4,-17,-6,4,-34,0.313980759
7.168486,-10,-5,-3,0,0,-3,-5,-14,0.313980759
7.168504,2,1,-1,-2,3,0,1,4,0.313980759
7.170056,0,-12,-3,-2,2,1,3,1,0.313980759
7.170062,-9,23,10,6,-5,-5,1,5,0.313980759
7.191763,26,-41,-4,-1,0,0,-6,-10,0.313980759
7.191778,-48,6,7,0,1,-1,-1,-15,0.313980759
7.191784,11,-15,-22,-6,0,-1,-7,-12,0.313980759
7.191789,-41,78,-6,-6,-9,-3,-2,-1,0.313980759
7.207784,31,36,25,7,4,-1,-7,-65,0.313980759
7.207794,5,-58,-1,1,-1,1,6,1,0.313980759
7.207796,-10,-9,-9,2,2,0,-7,-20,0.313980759
7.207799,33,6,14,3,1,-1,5,23,0.313980759
7.229929,-27,30,-19,-7,-7,-3,-1,-10,0.313980759
7.229947,-23,20,3,0,-3,0,2,-9,0.313980759
7.230829,14,-7,-3,-2,1,2,0,-4,0.313980759
7.230839,6,-33,-9,-1,-3,-2,-4,2,0.313980759
7.250930,-29,1,4,1,0,1,-1,11,0.149350928
7.250954,13,-8,-1,0,-2,1,-2,-3,0.149350928
7.252529,-3,5,2,-2,2,0,0,10,0.149350928
7.252534,2,-12,-2,-1,-4,-1,-2,-14,0.149350928
7.265963,-3,-22,-10,-2,0,-1,1,12,0.149350928
7.265981,36,8,16,-2,0,-2,-6,1,0.149350928
7.266645,-26,-16,-1,1,1,0,1,-3,0.149350928
7.267588,-18,0,-1,-1,-3,-1,-1,-4,0.149350928
7.288669,-13,-16,7,-1,-1,-2,-1,21,0.149350928
7.288703,22,53,-7,-4,-2,0,-3,-23,0.149350928
7.289257,-29,-14,15,5,1,1,1,14,0.149350928
7.289301,3,-50,-13,-2,-2,-1,-11,-2,0.149350928
7.319381,11,-1,-6,-2,-2,-4,-8,-39,0.149350928
7.319398,-14,7,0,0,-1,-2,-6,2,0.149350928
7.319867,31,33,7,-1,0,-1,1,-1,0.149350928
7.319906,-30,-25,-9,-2,-2,-4,-7,-59,0.149350928
7.326392,62,8,-4,-2,0,1,-2,13,0.149350928
7.326424,24,-25,-4,-3,-2,-2,-6,-2,0.149350928
7.328679,-55,5,-6,-3,-1,-2,-1,-5,0.149350928
7.328696,-21,-28,8,3,-1,-1,0,-18,0.149350928
7.348567,-4,2,0,-1,-2,-2,-2,0,0.149350928
7.348584,1,-10,-5,1,-1,2,5,16,0.149350928
7.349166,45,-9,-9,-1,1,2,11,60,0.149350928
7.349182,-55,30,23,-1,-3,-2,3,1,0.149350928
7.371049,3,-30,-1,-2,-2,-2,-6,7,0.149350928
7.371066,-21,-13,-13,-2,-1,-3,-2,-20,0.149350928
7.372256,1,-39,-2,-4,-3,0,-3,-16,0.149350928
7.372266,59,39,-7,-3,-3,-4,-3,25,0.149350928
7.385951,-9,3,0,-1,-1,2,3,1,0.149350928
7.386785,-10,-4,-4,-2,-2,-1,-2,-13,0.149350928
7.386790,-29,-1,5,-1,1,0,-3,-7,0.149350928
7.386792,79,-31,-5,-2,0,-3,3,19,0.149350928
7.408786,-41,-4,-7,-3,-2,-1,2,-5,0.149350928
7.408818,-14,38,-4,-1,-1,0,0,6,0.149350928
7.411384,-13,17,1,-2,-2,-1,5,-12,0.149350928
7.411405,-1,-5,-1,3,-2,2,-5,2,0.149350928
7.430939,10,11,8,4,1,-1,5,2,0.149350928
7.430956,-49,-1,24,2,1,-1,-1,84,0.149350928
7.431781,-12,-9,0,2,0,-3,-5,3,0.149350928
7.431802,5,21,-9,-5,-1,-1,1,1,0.149350928
7.446115,36,-10,-6,0,0,0,2,-2,0.149350928
7.446131,-50,11,-9,-1,-2,-2,17,-44,0.149350928
7.446701,34,-14,3,2,2,0,46,1,0.149350928
7.447629,0,-21,0,0,-1,-1,-24,17,0.149350928
7.468391,-24,-22,-3,-2,-2,-1,-44,-6,0.149350928
7.468408,16,37,-4,-3,-1,0,-33,-11,0.149350928
7.470007,-7,5,2,-1,-2,-3,-23,-19,0.149350928
7.470013,35,-24,1,-2,-1,-2,17,-18,0.149350928
7.491116,-1,40,-8,-3,-3,-1,14,5,0.149350928
7.491155,14,-22,-2,0,-2,-2,7,-11,0.149350928
7.491640,17,6,5,-1,0,2,6,10,0.149350928
7.491679,-19,11,-3,-2,-3,-4,3,-5,0.149350928
7.506330,-1,-10,5,2,4,5,19,35,-0.064255791
7.506372,3,-22,-6,-2,-3,-4,-3,-7,-0.064255791
7.506583,15,40,-2,-1,0,0,-4,4,-0.064255791
7.506590,-33,-31,-2,-2,-4,-1,-4,-22,-0.064255791
7.528502,-17,-9,0,2,1,1,-1,-5,-0.064255791
7.528526,18,11,-5,-2,3,0,10,41,-0.064255791
7.530419,46,3,0,-2,-3,-4,-10,9,-0.064255791
7.530430,-36,-6,-4,-3,19,-4,-6,-7,-0.064255791
7.551536,-2,-12,1,-1,-23,-5,1,-55,-0.064255791
7.551555,51,-13,-2,0,0,0,-2,-8,-0.064255791
7.551635,-14,-17,-5,-4,-2,-3,-16,-25,-0.064255791
7.551674,7,20,0,0,1,2,11,32,-0.064255791
7.565467,1,14,3,-2,5,-3,0,-2,-0.064255791
7.565492,-3,-8,0,1,-3,0,1,-3,-0.064255791
7.573619,-4,-24,1,0,-3,-3,-3,-13,-0.064255791
7.573635,-5,40,4,0,-4,0,0,-35,-0.064255791
7.589151,-14,-19,-4,-5,1,-3,0,21,-0.064255791
7.589170,7,0,-2,0,-2,0,-3,-1,-0.064255791
7.589483,-14,-3,-1,0,1,3,4,19,-0.064255791
7.589498,-39,17,-6,1,-4,1,-2,4,-0.064255791
7.611227,35,-1,-6,-4,1,0,3,26,-0.064255791
7.611266,-22,13,-2,-2,-1,-2,2,-41,-0.064255791
7.613569,-20,-6,-1,-1,0,0,-1,1,-0.064255791
7.613585,27,5,0,-2,-2,-3,-7,-26,-0.064255791
7.625687,-48,-8,3,3,1,1,3,26,-0.064255791
7.625721,18,-18,-5,-2,-2,-3,-6,-28,-0.064255791
7.633595,0,-6,-4,-4,-3,-2,-6,-3,-0.064255791
7.633611,4,-11,2,-1,-4,1,6,15,-0.064255791
7.648465,3,10,-4,-3,2,-3,-4,-19,-0.064255791
7.648485,6,-11,0,2,-1,0,-2,12,-0.064255791
7.649223,-26,0,1,0,1,21,-2,-10,-0.064255791
7.649239,-2,1,0,0,-4,-19,-7,19,-0.064255791
7.671120,17,-4,1,-1,2,-9,-4,-11,-0.064255791
7.671137,-2,4,-2,0,-1,5,-3,6,-0.064255791
7.672789,61,-20,-1,0,1,4,-1,-3,-0.064255791
7.672802,-29,75,-7,-4,-4,4,2,-12,-0.064255791
7.685353,-16,4,0,0,-1,-5,-6,-8,-0.064255791
7.685370,8,-10,0,-2,-1,-1,1,-7,-0.064255791
7.693463,-11,10,0,1,0,-10,-2,11,-0.064255791
7.693483,10,-31,1,1,1,3,11,23,-0.064255791
7.708486,3,1,1,1,-2,-4,-9,-18,-0.064255791
7.708526,-13,21,-5,-3,-1,0,1,16,-0.064255791
7.709155,-7,6,1,-2,-14,-7,-4,-10,-0.064255791
7.709187,-33,-21,2,3,27,8,0,41,-0.064255791
7.731881,15,-1,-1,-1,-3,6,4,-2,-0.064255791
7.731913,21,-7,1,-1,-6,-5,-4,-14,-0.064255791
7.733705,-26,6,-3,-2,4,-6,-3,-1,-0.064255791
7.733712,2,-11,0,-1,-14,0,-2,-15,-0.064255791
7.745315,-4,3,-4,-2,6,0,0,-25,-0.064255791
7.745364,-11,0,0,-2,2,-1,1,3,-0.064255791
7.753469,10,2,3,1,-4,-7,-4,3,-0.036402106
7.753486,3,-19,-2,-1,0,-1,1,-23,-0.036402106
7.768739,5,11,3,1,0,3,0,28,-0.036402106
7.768750,-3,-12,-4,-3,-1,3,9,26,-0.036402106
7.768988,-3,-4,-2,1,-2,-31,-5,-14,-0.036402106
7.768996,-21,-20,-5,-8,20,24,-1,-27,-0.036402106
7.791205,29,0,-1,4,-9,-19,-13,50,-0.036402106
7.791227,11,-6,-3,1,0,15,11,-1,-0.036402106
7.793318,-14,-2,-1,-3,10,-1,8,14,-0.036402106
7.793333,3,-2,0,2,-7,-3,-6,21,-0.036402106
7.805477,19,-1,-3,-5,0,5,-1,-21,-0.036402106
7.805496,-25,0,-2,-2,4,-8,-5,6,-0.036402106
7.813595,12,4,0,0,1,-10,-6,-5,-0.036402106
7.813611,5,-27,-2,-7,-31,-9,-3,-9,-0.036402106
7.828595,0,-14,1,4,21,10,6,-19,-0.036402106
7.828617,-36,28,5,4,-7,4,1,-13,-0.036402106
7.830376,6,4,-3,-3,1,-24,-7,0,-0.036402106
7.830389,4,5,-2,0,1,8,3,1,-0.036402106
7.850838,-12,-2,-3,-2,-6,-4,4,-19,-0.036402106
7.850855,43,-18,-3,-2,2,0,-2,-3,-0.036402106
7.851506,-24,14,3,-1,-1,13,-1,-24,-0.036402106
7.851543,6,48,2,1,0,-8,-1,9,-0.036402106
7.865399,-3,-28,-8,-3,-5,2,1,6,-0.036402106
7.866312,-36,-1,1,-1,-1,-5,-13,4,-0.036402106
7.873698,-4,1,-3,-2,-6,12,3,1,-0.036402106
7.874976,13,0,0,2,-1,-7,-2,16,-0.036402106
7.888484,-13,15,3,-1,-4,1,1,-9,-0.036402106
7.888508,11,-8,2,0,-2,-7,-5,-4,-0.036402106
7.889579,-7,7,-1,-1,0,10,1,14,-0.036402106
7.889584,3,-33,0,2,1,0,9,43,-0.036402106
7.911283,30,7,0,-3,-2,-1,5,4,-0.036402106
7.911297,-27,14,-3,-7,-5,-6,-11,-35,-0.036402106
7.911841,-4,18,-22,0,3,8,9,63,-0.036402106
7.911864,-41,-73,39,5,-2,-5,1,-72,-0.036402106
7.934067,6,57,-22,-6,-7,-1,0,-21,-0.036402106
7.934085,-1,-8,9,4,1,-2,4,0,-0.036402106
7.935904,20,-14,17,-2,-4,1,-3,-25,-0.036402106
7.935914,12,21,-10,-3,-4,-2,-2,6,-0.036402106
7.948765,-8,-10,13,2,3,0,0,14,-0.036402106
7.948800,4,22,-5,-3,0,-1,-2,1,-0.036402106
7.950163,-5,-49,-12,0,-3,2,-1,-4,-0.036402106
7.950169,-8,10,-1,2,0,-4,-6,-10,-0.036402106
7.972748,-8,4,-19,-10,-5,-2,-6,2,-0.036402106
7.972757,-5,52,5,1,1,-4,-7,-39,-0.036402106
7.972851,-35,41,-4,-9,-5,0,1,6,-0.036402106
7.972854,-42,-26,-13,0,0,-2,-1,-7,-0.036402106
7.994108,3,-4,3,1,0,-1,-1,-3,-0.036402106
7.994127,22,-67,4,2,1,1,3,1,-0.036402106
7.995039,8,-31,1,0,0,-2,-4,-9,-0.036402106
7.995057,12,6,0,-3,-2,-2,1,47,-0.036402106
8.008704,11,15,7,1,0,0,-3,2,-0.051324044
8.008753,-1,-41,-5,-3,-2,0,1,44,-0.051324044
8.011022,18,8,5,2,0,0,-2,-14,-0.051324044
8.011034,-1,15,-11,-5,-1,0,-3,0,-0.051324044
8.030936,2,-11,3,1,-2,-1,0,11,-0.051324044
8.030962,-30,-12,-4,0,-2,-2,2,3,-0.051324044
8.032643,5,2,-4,0,-1,2,-4,-7,-0.051324044
8.032656,10,-3,-3,-3,-1,-1,-1,-14,-0.051324044
8.054255,-14,-7,3,0,-2,-3,-4,-12,-0.051324044
8.054328,2,1,-8,-2,-1,0,3,2,-0.051324044
8.054812,0,22,5,0,0,0,0,-2,-0.051324044
8.054827,21,18,-5,-4,-3,-1,-2,-6,-0.051324044
8.068306,-29,-42,6,1,0,0,5,18,-0.051324044
8.068324,36,29,-4,-2,0,-2,-5,2,-0.051324044
8.068941,-52,-21,-5,-2,0,1,-3,-2,-0.051324044
8.068977,31,-9,0,-1,0,-3,-4,-8,-0.051324044
8.091147,-6,12,-3,-3,-1,0,-1,-22,-0.051324044
8.091165,-33,-8,-1,1,-1,0,2,11,-0.051324044
8.092925,63,56,-6,0,-2,0,-1,-5,-0.051324044
8.092939,-21,-53,3,0,0,1,-3,3,-0.051324044
8.114437,-25,-19,0,0,-2,-1,6,-13,-0.051324044
8.114452,-20,30,-6,-6,-2,-3,-3,6,-0.051324044
8.115063,2,-16,-1,-3,0,-2,-2,-30,-0.051324044
8.115080,20,28,4,-2,0,-4,-4,-12,-0.051324044
8.128708,3,-19,-5,0,0,0,2,16,-0.051324044
8.128734,-12,27,18,2,0,1,-4,-16,-0.051324044
8.129197,-9,-9,-10,-2,-2,0,1,11,-0.051324044
8.129213,-11,19,-8,-3,-2,-1,-1,-7,-0.051324044
8.151473,17,-27,-7,-4,-4,-4,-9,-15,-0.051324044
8.152734,24,-9,-5,-2,-2,-2,-2,0,-0.051324044
8.152739,-5,1,5,1,-1,-1,1,7,-0.051324044
8.152742,2,-16,-7,-1,0,2,2,3,-0.051324044
8.175055,4,32,8,-1,0,-3,-1,1,-0.051324044
8.175066,3,-31,-6,-1,-3,0,0,1,-0.051324044
8.175069,-4,10,2,1,-1,-1,-1,7,-0.051324044
8.175071,18,2,-7,-4,-3,-4,0,-2,-0.051324044
8.190693,-15,2,0,-1,-1,0,-2,9,-0.051324044
8.190702,0,-12,-1,-2,1,0,-2,-4,-0.051324044
8.190705,27,-11,15,3,3,1,-1,-2,-0.051324044
8.190707,-16,40,-5,-3,-2,-3,-1,14,-0.051324044
8.211045,-33,-17,1,0,0,2,-5,-14,-0.051324044
8.211066,-2,10,-8,-1,-1,1,4,10,-0.051324044
8.211819,-14,-8,-4,0,-1,1,1,-8,-0.051324044
8.211843,52,1,6,0,1,0,-7,16,-0.051324044
8.234435,16,1,-5,-1,-3,-1,-2,-7,-0.051324044
8.234459,14,11,16,3,0,-1,1,-2,-0.051324044
8.236468,-29,-34,-5,-3,-3,-2,-2,-9,-0.051324044
8.236479,-2,-14,-4,1,1,1,1,-2,-0.051324044
8.248795,-1,24,0,-1,-1,-2,-2,-16,-0.051324044
8.248828,-17,-30,-3,0,3,4,8,45,-0.051324044
8.251928,-17,31,-13,-3,-2,0,-1,5,-0.051324044
8.251946,-9,-1,1,0,-1,1,2,-7,-0.051324044
8.270837,13,4,-8,-2,-1,0,-1,1,-0.064355300
8.270852,0,-8,-6,-2,-1,-2,-2,-18,-0.064355300
8.271693,8,-10,9,-2,-1,0,-1,3,-0.064355300
8.271731,0,-13,-9,-2,-1,-1,1,-6,-0.064355300
8.294343,0,32,4,0,2,2,5,23,-0.064355300
8.294365,-44,-1,-6,-3,-2,-1,3,5,-0.064355300
8.296041,-21,-2,-1,-2,-3,-3,-3,-8,-0.064355300
8.296053,29,12,-1,-1,-3,-3,-3,-38,-0.064355300
8.308786,-51,-39,7,-1,0,-1,-2,-2,-0.064355300
8.308818,18,7,0,0,-1,-1,-1,-9,-0.064355300
8.311266,18,29,0,0,-2,0,0,2,-0.064355300
8.311279,-8,-14,4,1,0,-1,0,7,-0.064355300
8.330927,12,-15,-6,-2,-3,-2,-5,-7,-0.064355300
8.330938,20,26,-10,-3,-2,-2,-4,-1,-0.064355300
8.331613,-17,-22,-5,-3,-3,0,-1,0,-0.064355300
8.331649,-15,-9,0,-2,-1,0,2,9,-0.064355300
8.354049,-7,29,3,-1,-2,-2,1,9,-0.064355300
8.354066,22,-15,2,-3,-4,-1,-5,-12,-0.064355300
8.355602,13,-4,0,-1,0,-2,-1,3,-0.064355300
8.355608,6,-1,3,1,0,-1,-1,12,-0.064355300
8.368377,10,5,15,-2,-3,-1,0,3,-0.064355300
8.368395,-44,-32,-8,-1,-1,0,2,-8,-0.064355300
8.369328,45,5,-2,-1,1,1,-1,6,-0.064355300
8.369336,-45,18,-3,-3,-1,-2,-2,-8,-0.064355300
8.391009,28,-14,-8,-2,-3,-5,-13,-36,-0.064355300
8.391026,10,30,-1,-1,-2,-1,-3,-16,-0.064355300
8.393666,1,-10,6,1,0,1,0,-2,-0.064355300
8.393681,-3,-5,-2,1,2,1,1,6,-0.064355300
8.414220,-12,-22,-2,-3,-1,-1,0,-8,-0.064355300
8.414245,9,-4,5,0,0,-3,0,-6,-0.064355300
8.415226,-19,21,-4,-2,-1,-1,-2,6,-0.064355300
8.415237,3,-5,-2,-2,-2,-2,0,-11,-0.064355300
8.428994,14,8,0,0,0,1,1,14,-0.064355300
8.429016,1,-11,-5,-1,-1,-3,-2,3,-0.064355300
8.429595,-1,12,3,-1,1,-2,0,-6,-0.064355300
8.429614,-24,-42,-1,-1,0,0,-1,9,-0.064355300
8.451412,23,2,-10,1,0,0,1,6,-0.064355300
8.451445,-32,28,3,-2,-2,-1,0,-5,-0.064355300
8.452851,20,-34,6,1,-2,-1,-3,0,-0.064355300
8.452857,-18,20,2,-4,-2,-4,-3,0,-0.064355300
8.474239,6,1,-4,-3,-3,-4,-8,-44,-0.064355300
8.474295,36,-11,4,3,2,0,-3,4,-0.064355300
8.474757,-35,19,-12,-6,-3,-5,-11,-39,-0.064355300
8.474797,-8,-25,2,-1,-2,-2,0,-8,-0.064355300
8.487822,13,19,9,1,0,0,-2,2,-0.064355300
8.487844,13,-17,-11,-1,-1,-2,-4,-1,-0.064355300
8.495995,2,-8,2,2,1,0,4,3,-0.064355300
8.496013,9,15,-2,-3,-1,-2,-2,-4,-0.064355300
8.511033,-20,-14,-6,-2,0,2,3,9,-0.064355300
8.511100,9,29,1,0,-2,-2,-4,11,-0.064355300
8.512280,-12,-41,-1,0,0,0,2,20,-0.064355300
8.512286,9,42,4,-1,-1,0,-1,0,-0.064355300
8.534420,-2,-25,-7,0,2,2,6,19,-0.064409574
8.534558,12,-29,1,2,0,-1,0,-10,-0.064409574
8.534936,10,-5,2,-2,-1,-2,-1,21,-0.064409574
8.534974,13,6,-7,-2,-2,0,1,2,-0.064409574
8.547800,-56,-18,-5,-2,-2,0,-3,-2,-0.064409574
8.547812,25,6,1,-3,-1,0,0,3,-0.064409574
8.556388,19,-25,0,3,2,2,3,-2,-0.064409574
8.556420,-25,27,-7,-4,-3,-2,-3,-18,-0.064409574
8.570965,17,-24,-6,-1,1,0,2,21,-0.064409574
8.570982,-2,15,-1,-2,-2,0,-1,-11,-0.064409574
8.572327,7,-6,-5,-3,0,-1,2,6,-0.064409574
8.572334,-6,-17,4,2,-2,0,0,9,-0.064409574
8.595574,21,14,2,-2,0,-1,4,50,-0.064409574
8.595600,-22,-7,-3,-3,0,-1,3,-7,-0.064409574
8.595607,26,39,-4,-2,-2,1,0,-10,-0.064409574
8.595612,12,-24,7,6,3,0,0,12,-0.064409574
8.607844,-39,-7,0,-3,-3,-3,-5,-11,-0.064409574
8.607860,15,-32,-2,-1,-1,-3,-1,4,-0.064409574
8.616316,8,-5,-5,-4,-3,-1,0,-15,-0.064409574
8.616335,-26,11,-5,-3,-3,-1,-3,-8,-0.064409574
8.631300,25,16,-2,1,-1,0,-2,-13,-0.064409574
8.631325,-20,14,6,1,0,1,-2,-3,-0.064409574
8.631768,-20,-26,-3,0,-1,-2,-5,-19,-0.064409574
8.631864,21,-20,0,1,-1,1,0,24,-0.064409574
8.654440,0,16,-3,0,0,-1,0,-3,-0.064409574
8.654470,0,-2,-5,-3,0,-1,-5,2,-0.064409574
8.656727,-7,4,8,2,0,0,0,11,-0.064409574
8.656740,21,20,-6,-1,-1,-2,-6,-1,-0.064409574
8.668375,38,13,3,0,-1,0,-1,3,-0.064409574
8.670367,-75,-46,-6,-1,-2,1,0,-11,-0.064409574
8.676048,-12,-5,-11,-1,-1,-2,-2,9,-0.064409574
8.676073,-1,0,15,2,0,0,0,-4,-0.064409574
8.690858,5,13,-2,-4,-3,-3,-3,-19,-0.064409574
8.690895,39,22,1,0,0,0,-1,2,-0.064409574
8.691678,-17,-7,-3,-2,0,-3,-6,-23,-0.064409574
8.691717,31,-6,-6,0,-1,-1,0,6,-0.064409574
8.714168,-64,7,-5,-2,-1,-4,-5,-17,-0.064409574
8.714185,-8,-2,0,-2,-1,-3,-6,-13,-0.064409574
8.715238,1,11,1,0,-1,2,1,10,-0.064409574
8.715246,29,-2,1,-4,0,-2,-2,-7,-0.064409574
8.727858,-35,-25,2,2,0,1,-1,-15,-0.064409574
8.727881,28,60,4,-2,-5,-5,-12,-25,-0.064409574
8.735930,-2,-10,0,1,0,-2,-1,-24,-0.064409574
8.735948,-16,11,0,0,-1,-1,1,-4,-0.064409574
8.752833,-2,-13,-5,-2,-2,0,5,19,-0.064409574
8.752845,-5,0,0,0,2,1,6,47,-0.064409574
8.752847,-21,13,5,0,-1,-1,0,5,-0.064409574
8.752850,6,14,-6,-4,-2,-1,0,2,-0.064409574
8.774211,11,-31,7,2,1,-1,0,5,-0.064409574
8.774227,5,2,-9,0,-1,-1,1,-2,-0.064409574
8.775153,5,16,11,1,0,1,-3,12,-0.064391483
8.775158,51,-4,-10,-3,-3,0,0,0,-0.064391483
8.787902,-75,-19,-4,1,-1,-1,-4,-10,-0.064391483
8.787926,-6,-24,-3,-1,-1,2,2,1,-0.064391483
8.795969,3,1,-1,-1,-2,-2,0,3,-0.064391483
8.795998,-30,-9,-1,0,-1,1,-2,-14,-0.064391483
8.811049,46,13,1,-1,0,-1,-2,2,-0.064391483
8.811066,-9,3,-3,2,-2,-3,-7,-25,-0.064391483
8.812710,-21,34,14,-1,0,0,4,33,-0.064391483
8.812722,-21,0,2,-2,-1,-1,-2,-7,-0.064391483
8.834007,21,5,2,-1,0,0,-2,1,-0.064391483
8.834024,27,17,-11,-4,-2,-4,-3,-19,-0.064391483
8.834760,4,-15,-4,-2,-1,-1,-1,1,-0.064391483
8.835946,-30,-12,0,0,-1,-1,0,0,-0.064391483
8.856964,13,13,-3,-2,-1,-1,1,4,-0.064391483
8.856981,-12,-17,6,1,0,1,1,8,-0.064391483
8.858473,3,-6,-6,-2,-1,-2,-3,-8,-0.064391483
8.858484,6,1,-4,-2,0,-2,1,6,-0.064391483
8.871298,2,2,0,-2,-1,-3,-7,-21,-0.064391483
8.871330,27,0,5,1,0,2,1,11,-0.064391483
8.873355,-32,-5,-4,-3,-3,-4,-3,-40,-0.064391483
8.873366,-10,-5,-7,-3,-1,-1,-9,21,-0.064391483
8.894212,-16,-5,3,1,0,1,0,1,-0.064391483
8.894237,-13,2,7,0,0,-1,8,36,-0.064391483
8.895056,3,11,-7,-4,-1,-1,2,-1,-0.064391483
8.895080,-7,1,-4,1,0,0,1,-11,-0.064391483
8.916552,33,3,5,0,-2,-2,-2,3,-0.064391483
8.916571,-39,12,-1,-2,-1,-1,0,-3,-0.064391483
8.917533,69,-13,-6,0,-1,-1,-3,4,-0.064391483
8.917581,-21,2,-6,-2,0,-3,-6,-29,-0.064391483
8.931094,16,-3,8,3,2,1,5,23,-0.064391483
8.931111,-2,-22,-6,-3,-3,-4,-5,-19,-0.064391483
8.933811,7,14,2,-1,-1,0,1,-8,-0.064391483
8.933821,-19,-21,1,-1,1,1,0,17,-0.064391483
8.954032,-9,9,-2,-1,-2,-1,-1,-6,-0.064391483
8.954045,11,-8,3,0,0,2,-1,1,-0.064391483
8.954890,1,-14,-5,-2,1,-1,3,7,-0.064391483
8.954899,0,-1,2,0,-3,-3,-1,-4,-0.064391483
8.976849,-36,-6,-7,-2,-3,-1,-3,-2,-0.064391483
8.976875,26,-11,3,-1,0,0,0,7,-0.064391483
8.978713,-15,1,-2,-1,0,-2,-3,5,-0.064391483
8.978777,53,-2,-2,-3,-4,0,2,-6,-0.064391483
8.991024,12,7,-4,-2,-1,0,-7,-12,-0.064391483
8.991042,-24,15,3,2,-1,0,-2,-19,-0.064391483
8.993235,16,-21,3,1,0,2,-3,2,-0.064391483
8.993251,0,13,7,1,0,-2,0,4,-0.064391483
9.014546,-37,11,-10,-6,-3,-1,0,8,-0.064391483
9.014585,20,-15,-5,-1,-1,-1,1,3,-0.064391483
9.015224,-23,15,4,0,-1,0,-1,6,-0.064391483
9.015259,0,0,-4,-3,-1,-3,-5,31,-0.064391483
9.036943,22,-6,6,-1,-1,-1,-4,-11,-0.064287452
9.038954,0,-11,-2,-2,-2,-1,-1,-18,-0.064287452
9.038961,-34,-3,-7,-2,-2,-1,-2,19,-0.064287452
9.038964,-23,5,1,0,-1,-2,-3,-20,-0.064287452
9.050903,24,12,1,0,1,1,3,-4,-0.064287452
9.050920,-16,-2,-2,-1,0,-2,-1,6,-0.064287452
9.051781,4,-12,-9,-3,-1,0,-1,-11,-0.064287452
9.051790,36,-7,2,0,-1,-1,2,-11,-0.064287452
9.075386,-14,-15,0,0,-3,-2,-3,12,-0.064287452
9.075401,19,19,-2,-1,-1,1,1,5,-0.064287452
9.075408,-2,-19,1,-1,-3,-3,-2,-5,-0.064287452
9.075413,-5,18,-6,-1,-1,1,6,22,-0.064287452
9.096654,-14,-27,-3,-1,0,0,4,20,-0.064287452
9.096674,16,-8,-2,-1,-1,1,2,1,-0.064287452
9.097925,-3,4,2,1,1,1,1,6,-0.064287452
9.097943,-33,-11,-1,-2,-2,-3,-1,-15,-0.064287452
9.111063,16,16,-2,0,1,-3,-2,-4,-0.064287452
9.111091,-13,28,1,-1,0,0,-1,2,-0.064287452
9.111851,-6,-6,2,0,-1,1,0,-1,-0.064287452
9.111913,-5,-15,2,1,-1,2,-2,-7,-0.064287452
9.134140,9,11,-4,-2,-2,-1,2,0,-0.064287452
9.134158,-27,15,0,0,1,-2,2,58,-0.064287452
9.135375,26,3,1,0,0,-2,-2,-5,-0.064287452
9.135384,-21,-11,-3,-2,-2,-2,0,-20,-0.064287452
9.157001,7,4,-7,1,-1,-1,2,61,-0.064287452
9.157027,-34,-14,7,0,-1,0,0,-9,-0.064287452
9.157252,33,36,5,1,-2,-1,-2,-7,-0.064287452
9.157288,6,-6,1,1,-1,1,0,-3,-0.064287452
9.170974,-1,0,0,-1,-1,0,-2,-23,-0.064287452
9.170989,-1,-13,-14,-3,-4,-4,-8,-22,-0.064287452
9.171716,-23,-4,-2,-2,-2,-1,4,19,-0.064287452
9.171753,1,-22,0,0,1,1,-3,-9,-0.064287452
9.194236,9,1,0,0,-2,-1,-1,-16,-0.064287452
9.194266,6,10,0,0,-2,-2,-5,-16,-0.064287452
9.196202,-27,-15,-3,0,-1,0,2,-2,-0.064287452
9.196214,13,42,7,-3,-1,-2,-1,2,-0.064287452
9.216846,1,-12,2,-3,0,-2,0,-7,-0.064287452
9.216906,-8,-21,-6,-2,0,-1,0,0,-0.064287452
9.218408,16,9,5,1,-2,-3,-7,-1,-0.064287452
9.218423,-4,1,-4,0,-1,0,2,2,-0.064287452
9.230218,-4,31,3,1,0,1,6,38,-0.064287452
9.230232,-38,-12,-2,-4,-2,-2,-4,-14,-0.064287452
9.241775,0,-7,-6,1,-1,-3,-2,-12,-0.064287452
9.241782,6,-1,2,0,-2,-2,-3,-11,-0.064287452
9.254999,-9,7,-3,-2,-2,-3,-1,-22,-0.064287452
9.256320,-33,-4,8,0,0,2,7,6,-0.064287452
9.256326,40,-54,-4,-1,2,1,2,35,-0.064287452
9.256328,-2,30,-2,-3,-1,-1,-1,5,-0.064287452
9.278245,-13,0,4,-1,-1,-2,-1,12,-0.064287452
9.278262,16,8,-3,1,0,1,2,10,-0.064287452
9.278266,-32,-23,-1,1,0,0,-3,-13,-0.064287452
9.278268,31,-11,-3,0,-1,-2,-4,1,-0.064287452
9.290607,-36,-17,-4,-2,-1,0,-1,17,-0.064382440
9.290631,19,0,-2,-3,-1,-1,-2,-15,-0.064382440
9.299461,-5,21,1,-3,-2,-1,1,-2,-0.064382440
9.299468,7,-10,-6,0,-1,-1,1,-6,-0.064382440
9.314165,-4,-1,0,0,-1,-1,-2,-18,-0.064382440
9.314256,15,-25,-3,-1,-2,-1,-2,-10,-0.064382440
9.316001,13,32,13,1,-1,-2,-1,10,-0.064382440
9.316007,-36,-11,-4,-1,-1,-2,-3,-5,-0.064382440
9.336738,18,-29,1,1,2,2,0,-21,-0.064382440
9.338764,-57,42,-4,-5,-2,-3,-4,-1,-0.064382440
9.338785,21,-9,-8,-2,0,4,9,35,-0.064382440
9.338791,-43,0,9,0,2,0,-2,32,-0.064382440
9.350903,39,18,3,3,0,-3,-7,-19,-0.064382440
9.350948,55,-25,-2,1,0,2,4,4,-0.064382440
9.361490,-47,-36,1,-3,-1,-1,0,-18,-0.064382440
9.361504,4,22,-7,-2,-2,0,0,-1,-0.064382440
9.374158,-6,12,-8,-6,-2,-1,-4,-2,-0.064382440
9.374220,6,13,1,-1,-1,-1,-2,8,-0.064382440
9.375473,11,13,-1,0,-1,0,-4,21,-0.064382440
9.375495,1,-18,2,2,0,0,2,-9,-0.064382440
9.396764,-17,-29,-2,-1,-3,-2,-2,-11,-0.064382440
9.396790,34,5,-2,0,-2,-3,-2,5,-0.064382440
9.398187,-12,8,-1,-3,-3,-4,-6,-20,-0.064382440
9.398206,39,-3,-2,-2,1,2,7,10,-0.064382440
9.410400,-54,30,6,-2,-2,-1,2,3,-0.064382440
9.410430,5,0,1,-1,-1,-1,-4,-15,-0.064382440
9.419219,-14,4,-5,-1,1,2,6,13,-0.064382440
9.419240,-6,-7,3,2,-1,-3,-5,-15,-0.064382440
9.434476,-1,-1,0,-2,-2,-4,-5,-22,-0.064382440
9.434498,-55,-14,-4,-1,0,0,-5,-32,-0.064382440
9.435838,28,11,-8,-5,-1,-3,1,-9,-0.064382440
9.435868,9,-3,-3,-2,-2,1,0,-7,-0.064382440
9.456888,-5,-13,2,-2,-3,0,2,-17,-0.064382440
9.458074,-16,1,3,3,2,-1,-4,-2,-0.064382440
9.458080,10,-8,-8,-3,-3,-2,-4,-17,-0.064382440
9.458083,-34,32,1,-2,-1,-2,-5,2,-0.064382440
9.470554,21,0,-4,-1,-3,-2,0,-4,-0.064382440
9.470582,25,-2,3,1,2,2,3,15,-0.064382440
9.479806,-12,-15,-2,-1,-3,-3,-3,-18,-0.064382440
9.479812,17,-15,1,-1,-1,1,1,1,-0.064382440
9.494219,4,6,-3,-1,2,-1,-1,0,-0.064382440
9.494245,6,-6,2,-2,-1,-1,2,7,-0.064382440
9.496373,13,13,2,0,1,-1,2,-23,-0.064382440
9.496388,-30,-23,-4,-4,-2,-2,3,-14,-0.064382440
9.516950,11,14,-6,-1,-2,0,-3,-1,-0.064382440
9.516998,-15,-19,-3,0,0,1,6,38,-0.064382440
9.520018,-22,40,5,-2,-1,0,0,-19,-0.064382440
9.520029,21,-25,-5,0,0,1,6,27,-0.064382440
9.530204,17,-30,-3,0,-2,-1,0,5,-0.064382440
9.530219,18,-8,2,0,-1,-2,-2,-7,-0.064382440
9.540011,2,26,-1,-1,-2,-2,-8,-19,-0.064382440
9.540017,-22,-2,0,-1,-2,-1,-2,0,-0.064382440
9.554362,10,-9,4,1,-2,1,-3,6,-0.064377913
9.554380,8,10,2,2,-1,0,-3,3,-0.064377913
9.555608,12,-28,-6,-1,0,-2,-1,10,-0.064377913
9.555616,-26,6,7,0,-1,-3,-3,-13,-0.064377913
9.577876,5,-3,-3,-3,-2,-2,6,-3,-0.064377913
9.577890,15,6,2,0,-1,-1,-3,-6,-0.064377913
9.578460,-21,-30,-1,-1,-2,-1,-2,-11,-0.064377913
9.578487,-32,27,-1,-3,-1,-2,-1,-3,-0.064377913
9.592389,43,6,-7,0,-1,-2,-4,-6,-0.064377913
9.592397,1,1,-4,-2,-2,-3,-7,15,-0.064377913
9.599371,8,-5,4,2,2,1,-1,49,-0.064377913
9.599379,2,15,-1,0,-3,-1,1,34,-0.064377913
9.614187,-87,-6,3,0,0,0,2,3,-0.064377913
9.615277,84,-11,-6,-2,-1,-2,0,-17,-0.064377913
9.615720,8,10,0,-1,0,2,8,50,-0.064377913
9.615729,-6,-4,-3,0,-2,-2,-2,-10,-0.064377913
9.637047,-5,-14,2,1,2,1,0,4,-0.064377913
9.637086,-38,44,-1,0,-1,-2,-1,-6,-0.064377913
9.639394,-5,-5,-3,-1,-1,-1,-5,-26,-0.064377913
9.639405,0,-10,6,1,1,-2,-6,-10,-0.064377913
9.650618,11,-2,0,-1,-3,0,0,0,-0.064377913
9.650657,52,14,3,-1,-2,1,-3,-16,-0.064377913
9.661511,-91,-30,-3,-3,-1,-1,-4,-19,-0.064377913
9.661525,-5,-15,-4,-1,-3,-1,0,-25,-0.064377913
9.674490,-12,5,-3,0,-1,-2,-2,18,-0.064377913
9.674520,24,-17,-3,-1,-1,-2,-3,3,-0.064377913
9.675532,27,28,-3,-1,-3,-3,-2,-2,-0.064377913
9.677075,29,-17,3,-1,-1,-1,-1,-21,-0.064377913
9.696861,-3,12,7,2,2,-1,-3,-15,-0.064377913
9.696881,-22,-7,-15,-6,-1,-2,2,1,-0.064377913
9.698272,13,-15,0,1,-2,1,6,22,-0.064377913
9.698290,-10,-14,-1,0,-1,1,2,-5,-0.064377913
9.710627,34,12,1,1,-1,1,-1,-2,-0.064377913
9.710655,13,11,1,-2,-2,-2,0,0,-0.064377913
9.721076,-26,-27,-3,2,1,0,-4,4,-0.064377913
9.721081,4,20,-4,-4,-1,1,-3,8,-0.064377913
9.734241,17,-9,-3,-1,0,-3,-2,-1,-0.064377913
9.734317,-54,-13,2,1,-1,0,2,-3,-0.064377913
9.735536,14,17,-3,-4,-3,0,-5,-17,-0.064377913
9.735545,16,-3,2,0,1,0,-2,4,-0.064377913
9.757357,-14,-2,-3,-3,-1,-2,2,0,-0.064377913
9.757400,16,-7,-2,0,0,0,-8,11,-0.064377913
9.759424,-6,-9,-2,-1,0,-2,-1,-8,-0.064377913
9.759437,-3,16,-2,-2,-1,2,0,7,-0.064377913
9.770543,22,33,-5,-4,-3,-2,-7,-59,-0.064377913
9.770575,22,-18,-2,-2,-1,-2,5,-11,-0.064377913
9.779256,-38,-9,1,2,0,1,2,16,-0.064377913
9.779270,7,0,2,2,0,1,-3,7,-0.064377913
9.795688,15,12,0,-2,-1,-2,-4,0,-0.064377913
9.795704,-54,-42,3,0,-2,0,0,-29,-0.064377913
9.795708,7,23,-6,-6,-3,-3,-7,-23,-0.064377913
9.795710,13,-24,-3,1,0,0,6,9,-0.064377913
9.816686,3,-13,1,-2,0,-1,0,-4,-0.064282926
9.816705,-64,3,1,0,-1,2,-2,9,-0.064282926
9.818292,41,-1,-1,-2,-1,-3,-1,-25,-0.064282926
9.818299,7,-10,-2,-2,-1,-2,0,3,-0.064282926
9.846880,-13,3,-3,-1,-1,0,2,-1,-0.064282926
9.846900,-1,6,4,2,2,2,9,6,-0.064282926
9.848134,-9,-1,0,1,-1,1,-1,-4,-0.064282926
9.848149,4,-2,-3,-2,-2,15,2,2,-0.064282926
9.854435,-4,-18,-1,0,1,-8,-6,22,-0.064282926
9.854466,-15,10,0,-1,-2,-3,-1,-21,-0.064282926
9.856323,11,0,1,1,-2,-3,0,-1,-0.064282926
9.856335,0,6,-1,-1,1,0,-2,-3,-0.064282926
9.877067,-3,-28,-3,0,-4,0,0,-4,-0.064282926
9.877107,-1,44,-21,-7,-5,-5,-9,-18,-0.064282926
9.879338,-22,27,22,5,2,4,3,35,-0.064282926
9.879355,-10,-14,-3,0,-2,-7,-6,-11,-0.064282926
9.899152,-25,-24,1,0,-1,0,1,5,-0.064282926
9.899170,8,21,0,-1,1,-2,1,11,-0.064282926
9.900716,14,-1,-5,-2,0,-2,-2,-3,-0.064282926
9.900730,-16,8,0,-1,-1,-5,-3,1,-0.064282926
9.914203,33,20,-4,-2,0,-2,-4,36,-0.064282926
9.914238,-18,-46,2,0,-1,2,0,2,-0.064282926
9.916238,24,22,-4,-1,0,-1,1,-20,-0.064282926
9.916246,-10,-16,2,0,-4,-4,-6,9,-0.064282926
9.936726,0,3,-2,0,0,0,-2,-9,-0.064282926
9.936742,2,-3,0,1,-1,-2,-9,-27,-0.064282926
9.938159,-7,-16,-2,-3,1,0,0,-9,-0.064282926
9.938236,20,10,-3,-3,-3,-8,0,-6,-0.064282926
9.959167,-13,-8,2,1,-1,2,1,9,-0.064282926
9.961766,2,-2,0,-1,-2,-4,-4,-5,-0.064282926
9.961785,1,-1,-2,-1,-3,0,-3,-8,-0.064282926
9.961788,-18,-8,-7,-3,-1,-2,-1,25,-0.064282926
9.973490,-3,3,4,-1,-1,-1,1,-11,-0.064282926
9.973507,10,-2,7,1,2,1,3,15,-0.064282926
9.980290,41,-1,-5,-1,-2,-1,-3,-8,-0.064282926
9.980307,-50,-23,-3,0,2,2,4,54,-0.064282926
9.996626,17,1,-2,-2,-4,-2,0,-6,-0.064282926
9.996639,18,-1,0,-2,-1,-3,0,1,-0.064282926
9.998283,8,10,-4,0,-1,0,-3,17,-0.064282926
9.998296,9,18,4,-1,0,-2,-3,-23,-0.064282926
15.029415,-8,9,5,-7,10,0,-1,1,-0.064287452
15.029465,-1,-1,-15,-4,-7,-3,-1,3,-0.064287452
15.029469,-12,11,3,-3,-1,1,-1,0,-0.064287452
15.029473,3,-1,-9,19,4,0,-1,0,-0.064287452
15.050876,4,0,6,-7,15,-1,1,-1,-0.064287452
15.050898,-8,13,2,-2,-21,-3,1,4,-0.064287452
15.051760,17,-57,-12,-8,-4,0,-2,-6,-0.064287452
15.051778,4,8,-11,-8,-3,-4,-3,8,-0.064287452
15.066077,9,19,10,-3,4,1,1,2,-0.064287452
15.067688,29,5,1,30,7,0,2,-2,-0.064287452
15.067700,-7,9,-6,-4,-7,-4,-3,0,-0.064287452
15.067703,-3,19,1,-3,1,-2,-2,4,-0.064287452
15.088722,-25,3,-1,6,3,-1,-3,-4,-0.064287452
15.088756,5,-14,3,-4,2,1,1,3,-0.064287452
15.090576,18,-19,-12,-5,-2,-3,-4,-5,-0.064287452
15.090582,-46,-53,-2,6,-3,-4,0,-3,-0.064287452
15.111662,17,54,-2,1,1,-1,-2,1,-0.064287452
15.111691,2,18,-7,-11,2,-2,-3,-3,-0.064287452
15.118486,14,-15,-3,-8,-3,-1,-4,-2,-0.064287452
15.118503,18,7,4,6,2,0,2,-2,-0.064287452
15.125304,-9,13,4,-1,-1,-1,1,2,-0.064287452
15.125326,73,-15,-10,-7,-3,-2,-7,-8,-0.064287452
15.133617,-18,38,1,0,-1,1,-2,3,-0.064287452
15.133634,18,-6,-8,-11,-6,-2,3,-5,-0.064287452
15.148452,-19,-17,2,6,-3,-3,-1,4,-0.064287452
15.148470,-3,-55,-6,3,16,1,-1,-1,-0.064287452
15.149549,44,51,4,5,-1,0,1,0,-0.064287452
15.149560,-20,36,3,2,3,0,-1,-3,-0.064287452
15.170844,3,-68,7,-5,-5,1,1,-1,-0.064287452
15.170859,-28,34,-12,-8,-17,-3,-1,-1,-0.064287452
15.171592,11,-28,-4,4,8,-1,-1,-37,-0.064287452
15.171631,-38,-15,-1,-8,-7,-1,1,41,-0.064287452
15.185339,-5,11,5,1,3,-1,-2,5,-0.064346252
15.185356,-7,6,-4,-2,-4,-3,-2,-7,-0.064346252
15.193474,-8,-4,6,0,-1,-2,-3,-13,-0.064346252
15.193502,6,-3,1,2,-6,-2,-2,-14,-0.064346252
15.208561,-26,21,-4,-1,1,1,3,-4,-0.064346252
15.208579,-4,19,-1,-1,-3,-1,1,13,-0.064346252
15.210402,-18,5,-3,4,-5,-2,0,14,-0.064346252
15.210416,39,0,1,2,-1,-1,-3,-8,-0.064346252
15.230865,7,-17,-7,-7,-1,-1,-3,1,-0.064346252
15.230895,-10,-20,7,-1,-1,-1,1,-3,-0.064346252
15.231596,27,-1,-3,6,3,0,1,6,-0.064346252
15.231633,-20,2,-5,-7,0,-3,-3,-6,-0.064346252
15.246237,-3,-33,4,0,0,1,-1,-11,-0.064346252
15.246249,-27,6,-11,-11,-5,-2,3,-2,-0.064346252
15.253607,2,30,-2,2,0,2,0,12,-0.064346252
15.254953,15,-20,6,-4,-1,-1,0,2,-0.064346252
15.268845,46,34,-10,-1,-1,-3,-2,1,-0.064346252
15.268863,-10,12,1,2,1,-1,-2,-2,-0.064346252
15.270725,3,-18,5,4,0,1,1,12,-0.064346252
15.270733,-15,-13,-8,-11,-3,0,-2,-16,-0.064346252
15.291399,1,29,8,1,1,-1,0,13,-0.064346252
15.291431,17,-9,-1,-1,-7,-2,-1,-1,-0.064346252
15.293671,12,82,-2,-20,-5,-1,-1,-4,-0.064346252
15.293685,-3,-72,-3,-6,7,0,-1,-3,-0.064346252
15.305423,-8,14,-9,4,-1,-1,-1,-12,-0.064346252
15.305448,15,23,-6,-5,-1,-4,-5,7,-0.064346252
15.313667,-10,-40,16,5,1,-1,-1,1,-0.064346252
15.313693,-25,40,6,-1,-4,1,0,-62,-0.064346252
15.328443,9,-20,3,-1,1,0,-7,30,-0.064346252
15.328467,-13,-28,-7,4,-2,0,0,-11,-0.064346252
15.329316,-6,-13,-6,-1,-1,-3,-1,-10,-0.064346252
15.329330,6,34,4,2,0,0,-1,-4,-0.064346252
15.350974,35,28,-2,-1,-4,-1,1,-14,-0.064346252
15.350991,15,8,-4,3,1,-1,-2,-1,-0.064346252
15.351878,7,-33,-1,2,4,-1,2,8,-0.064346252
15.351883,-2,12,0,6,1,0,-1,16,-0.064346252
15.365768,16,37,1,7,-12,1,-1,-8,-0.064346252
15.365802,-53,20,11,-4,22,2,1,10,-0.064346252
15.373983,23,26,-3,1,-4,-7,1,-2,-0.064346252
15.374026,-12,-38,-7,1,-1,-4,-5,5,-0.064346252
15.388864,-8,-11,-5,-8,-2,1,1,-7,-0.064346252
15.388919,13,20,0,-1,-9,-1,-4,-13,-0.064346252
15.396005,-35,-27,18,-1,1,2,-1,-2,-0.064346252
15.396023,-13,32,0,5,3,2,2,9,-0.064346252
15.410979,22,23,4,0,0,-2,0,0,-0.064346252
15.410998,-9,1,-3,-2,-2,0,3,-2,-0.064346252
15.412495,-5,-56,-39,-31,-7,-1,-3,0,-0.064346252
15.412503,-47,13,11,-2,2,-1,-2,4,-0.064346252
15.434090,-24,-63,-3,-1,5,0,0,-6,-0.064459331
15.434102,46,22,-3,0,-4,-2,0,2,-0.064459331
15.434722,-8,12,-1,6,-6,-1,-1,1,-0.064459331
15.434730,-9,37,-3,-4,-2,-3,-3,-1,-0.064459331
15.451099,13,28,-3,-8,-2,0,0,-3,-0.064459331
15.451111,-8,-73,0,-7,0,-1,-3,-6,-0.064459331
15.451114,-19,-13,4,6,-9,-4,-2,-10,-0.064459331
15.451116,34,-13,-9,-3,4,-2,-1,4,-0.064459331
15.471455,-7,-5,3,13,5,-2,0,-1,-0.064459331
15.471489,2,14,-2,-14,-7,-1,0,1,-0.064459331
15.473498,4,3,1,9,2,0,-1,0,-0.064459331
15.473505,8,-3,4,2,-7,-2,1,3,-0.064459331
15.494102,-2,13,-5,-4,1,0,0,-1,-0.064459331
15.494132,18,4,6,8,-3,-1,1,-1,-0.064459331
15.496434,-11,66,0,-5,-7,-2,-2,-2,-0.064459331
15.496448,15,-92,10,9,7,1,-1,4,-0.064459331
15.508513,2,12,2,-1,1,1,-1,-3,-0.064459331
15.508531,-6,-16,-8,-1,-1,-1,0,1,-0.064459331
15.510980,-22,32,-1,-5,-4,-1,0,3,-0.064459331
15.511001,-6,-30,-13,-2,-11,-4,1,2,-0.064459331
15.530844,44,38,5,-8,-5,-3,-3,-7,-0.064459331
15.530892,-17,10,0,5,0,0,-3,1,-0.064459331
15.531830,-3,-18,0,5,6,-1,0,3,-0.064459331
15.531850,6,18,-2,-8,-4,0,1,2,-0.064459331
15.554531,-62,-27,-6,9,3,-3,-2,-9,-0.064459331
15.554563,14,-3,-4,-16,-3,-2,-2,-13,-0.064459331
15.556392,-1,-1,0,6,-3,4,5,72,-0.064459331
15.556403,23,16,-2,-3,10,0,-3,0,-0.064459331
15.568984,-38,-4,5,-3,1,-2,2,-6,-0.064459331
15.569017,2,67,-1,0,-3,1,0,-4,-0.064459331
15.570679,-3,-115,-7,2,3,-2,-4,-25,-0.064459331
15.570685,18,29,3,9,5,2,2,0,-0.064459331
15.591272,40,10,1,-6,-1,-1,-1,18,-0.064459331
15.591283,-49,-10,-7,0,-2,-1,-2,-3,-0.064459331
15.591570,11,15,8,0,1,0,-2,-15,-0.064459331
15.591606,6,17,-3,-4,-6,-2,-1,1,-0.064459331
15.614365,-7,11,2,3,-1,-1,-1,-13,-0.064459331
15.614384,22,-9,0,1,4,0,3,6,-0.064459331
15.615900,-22,-18,-3,-1,1,-3,-4,-15,-0.064459331
15.615910,-17,8,-1,-6,-3,-3,-4,-7,-0.064459331
15.628577,-6,-23,0,1,0,2,2,4,-0.064459331
15.628612,-1,-7,-6,9,-2,-2,-1,2,-0.064459331
15.629939,-20,-20,-4,0,2,0,0,-10,-0.064459331
15.629949,9,14,1,0,-4,0,2,4,-0.064459331
15.652300,3,-39,-6,-8,-4,-3,-3,2,-0.064459331
15.652308,11,40,4,-1,-2,0,-1,4,-0.064459331
15.652311,-13,-22,-3,2,3,0,-2,-9,-0.064459331
15.652314,1,64,4,-5,-3,0,-4,-7,-0.064459331
15.674413,-10,-90,-5,-1,-5,-2,2,-2,-0.064459331
15.674428,-62,14,2,1,-1,-2,-1,-6,-0.064459331
15.676120,47,25,-8,-13,-1,-1,-2,2,-0.064459331
15.676140,3,11,-6,1,-4,-1,-1,-2,-0.064459331
15.688796,-2,23,2,-1,4,-2,-1,4,-0.064391483
15.688822,15,-28,2,0,-8,0,0,1,-0.064391483
15.689388,-10,16,-3,-1,7,-1,-3,-5,-0.064391483
15.689398,-5,4,4,0,-4,-1,-1,0,-0.064391483
15.711575,-17,-32,-16,-5,-2,-1,-2,-8,-0.064391483
15.711597,15,-25,12,3,3,1,-1,-1,-0.064391483
15.713568,23,40,4,3,-3,0,-1,-6,-0.064391483
15.713583,-22,-10,-6,-3,2,0,-1,-2,-0.064391483
15.734115,-19,29,1,-2,-2,-1,-1,-3,-0.064391483
15.734187,-12,-8,-8,-3,0,0,-3,-1,-0.064391483
15.734793,20,54,5,5,0,-2,1,-2,-0.064391483
15.734802,-38,-59,-6,-3,-3,0,-1,-3,-0.064391483
15.748430,26,37,-1,-5,-4,-2,-3,2,-0.064391483
15.748449,17,-14,-1,-1,1,-2,-2,0,-0.064391483
15.749207,9,17,-1,-6,-1,-1,1,-1,-0.064391483
15.749230,18,-14,2,0,-2,-1,-3,-23,-0.064391483
15.771202,-15,15,-1,1,0,0,2,61,-0.064391483
15.771235,2,11,8,-1,0,0,0,-10,-0.064391483
15.772286,26,-17,-5,2,-1,-3,-3,-2,-0.064391483
15.772291,-28,-4,1,0,-1,-3,-2,-11,-0.064391483
15.794175,-35,-11,-2,-1,0,-1,-1,-18,-0.064391483
15.794193,43,-29,-8,-2,-1,0,-2,-1,-0.064391483
15.794884,-32,-18,0,-4,-3,0,-2,9,-0.064391483
15.794903,20,2,-5,1,-2,0,1,9,-0.064391483
15.809693,-3,7,0,0,0,0,1,-12,-0.064391483
15.809709,-41,-14,-4,-1,-1,0,0,7,-0.064391483
15.809712,-21,7,1,-1,-2,-2,-3,-15,-0.064391483
15.809714,20,1,-4,-2,-1,-3,-1,7,-0.064391483
15.830897,8,9,0,3,0,0,-2,-12,-0.064391483
15.830915,9,-6,-2,0,-4,-3,0,-8,-0.064391483
15.831910,-10,8,4,1,0,0,1,-1,-0.064391483
15.831916,20,18,2,5,-2,-2,0,9,-0.064391483
15.855435,8,10,2,-2,-2,1,-1,-1,-0.064391483
15.855452,14,11,0,1,2,-1,-2,1,-0.064391483
15.855458,-42,9,-5,-1,-6,-3,-2,-4,-0.064391483
15.855464,10,-25,7,-2,-1,-1,-2,1,-0.064391483
15.869074,-3,-15,-1,0,-1,0,-3,-13,-0.064391483
15.869084,7,-1,-8,-4,0,-2,-2,2,-0.064391483
15.869246,-1,-12,-2,6,1,-1,2,0,-0.064391483
15.869294,26,43,-2,-4,1,0,0,-2,-0.064391483
15.891088,-6,-59,-8,-3,-3,0,-3,-3,-0.064391483
15.891106,13,38,9,0,0,0,-1,0,-0.064391483
15.892983,-36,-100,-9,-5,3,2,0,3,-0.064391483
15.892999,25,52,5,2,-3,-2,-1,0,-0.064391483
15.914122,21,6,5,-13,-3,-3,-2,-2,-0.064391483
15.914142,-45,-92,-14,-2,-3,-3,-3,-3,-0.064391483
15.915733,15,57,8,3,2,-1,0,-4,-0.064391483
15.915747,-11,-1,-32,-12,-3,1,2,2,-0.064391483
15.936544,42,127,35,6,1,-3,-2,-2,-0.064391483
15.936597,-29,-90,-64,-21,-8,-2,-2,-5,-0.064391483
15.937240,16,87,44,7,-1,0,-1,0,-0.064391483
15.938537,-26,24,12,13,9,1,-2,6,-0.064391483
15.950937,-26,54,-19,4,-1,-2,-1,-4,-0.064463853
15.950954,17,-8,-1,-2,0,-3,-1,0,-0.064463853
15.951697,15,28,2,-11,-5,-1,2,1,-0.064463853
15.951733,-28,-53,2,7,-3,-1,-6,-4,-0.064463853
15.975859,-5,-37,-4,-1,-1,-1,0,-2,-0.064463853
15.975886,-5,19,42,11,4,0,0,-4,-0.064463853
15.978394,-11,-62,-33,-11,-4,-2,-4,-4,-0.064463853
15.978409,19,-30,-5,-5,1,-2,1,2,-0.064463853
15.988880,-20,-6,-2,1,-2,-1,-1,0,-0.064463853
15.988914,-3,18,-3,2,-1,-2,0,-1,-0.064463853
15.991070,15,-4,11,-5,-1,-1,-2,-5,-0.064463853
15.991076,-4,-10,-3,-6,0,0,3,2,-0.064463853
16.011240,-6,-19,-12,3,0,-2,-7,1,-0.064463853
16.011253,25,43,16,0,1,0,2,4,-0.064463853
16.011811,-1,-11,1,5,0,-1,1,-1,-0.064463853
16.011828,-9,-7,-1,1,-2,-1,-3,-10,-0.064463853
16.034053,-2,11,7,2,1,-1,12,0,-0.064463853
16.034101,-1,4,2,-5,-3,0,-10,-2,-0.064463853
16.034985,8,-7,-13,1,2,1,-5,8,-0.064463853
16.034991,-9,-9,-9,-7,-4,-3,-3,-8,-0.064463853
16.048476,12,11,6,-2,-3,-1,-1,-7,-0.064463853
16.048499,-13,-12,1,0,-1,1,2,-8,-0.064463853
16.053652,-4,-8,-21,-6,-4,-3,-3,-6,-0.064463853
16.053673,10,7,16,5,3,0,-1,5,-0.064463853
16.072243,-15,-4,-11,-9,-3,-1,1,4,-0.064463853
16.072263,20,19,12,6,6,0,1,2,-0.064463853
16.072267,-6,7,0,6,-3,0,1,-8,-0.064463853
16.072271,9,-2,7,0,1,0,-1,-10,-0.064463853
16.094208,-1,-9,-2,0,-1,-1,-2,5,-0.064463853
16.094231,1,27,-7,-5,-2,-1,-2,-4,-0.064463853
16.095288,33,14,3,-1,0,-2,-1,3,-0.064463853
16.095300,-31,-31,-4,-5,-1,-1,4,2,-0.064463853
16.107716,39,-31,-11,-5,-4,-2,-7,-8,-0.064463853
16.107735,6,18,-5,-3,-5,-1,0,2,-0.064463853
16.115993,9,27,2,4,3,1,0,4,-0.064463853
16.116025,12,6,-6,0,1,-4,-4,3,-0.064463853
16.131044,-4,-14,6,1,3,1,4,-5,-0.064463853
16.131076,35,15,-2,1,-1,-2,-6,2,-0.064463853
16.132899,17,-14,-8,-8,-4,-2,2,-2,-0.064463853
16.132918,-4,9,-5,-3,-2,0,-3,-12,-0.064463853
16.154384,-52,-12,6,2,5,-1,0,-2,-0.064463853
16.154417,-46,12,2,5,2,-1,-2,-8,-0.064463853
16.156199,-30,9,-5,-3,-2,-3,48,1,-0.064463853
16.156205,-32,-42,-1,-3,-2,-1,-2,1,-0.064463853
16.167636,25,14,-3,-3,-4,0,-25,3,-0.064463853
16.167653,-17,6,3,0,0,1,-39,14,-0.064463853
16.176295,-17,-19,-6,-3,1,0,-39,6,-0.064463853
16.176415,0,30,0,-3,-5,-2,-1,9,-0.064463853
16.199315,-9,-17,11,5,-2,2,117,-6,-0.064423144
16.199330,-16,-7,-7,-3,-2,1,53,77,-0.064423144
16.199940,-11,-1,4,2,2,-1,-96,2,-0.064423144
16.199960,8,8,-4,-3,-1,-1,-90,-6,-0.064423144
16.214474,18,-15,-20,-6,-2,-4,-88,-9,-0.064423144
16.214506,31,8,11,2,-2,-3,15,-58,-0.064423144
16.216849,15,11,3,-2,-2,-1,53,-24,-0.064423144
16.216860,15,-1,2,-2,-1,-1,34,-27,-0.064423144
16.227869,9,9,-4,1,3,1,13,50,-0.064423144
16.227886,-14,-8,-7,-1,0,14,24,-25,-0.064423144
16.236309,30,-19,-3,-4,-3,-29,-13,-3,-0.064423144
16.236333,17,25,2,0,-2,3,10,-48,-0.064423144
16.251368,-10,-4,1,0,1,1,5,12,-0.064423144
16.251385,-3,16,-2,-3,2,-2,-11,1,-0.064423144
16.253770,-9,-40,1,2,-2,6,-1,17,-0.064423144
16.253776,-3,-2,-3,-4,-1,-2,13,17,-0.064423144
16.274369,4,6,4,1,0,-4,-4,-12,-0.064423144
16.274377,0,9,1,1,-2,-2,-20,16,-0.064423144
16.274676,-10,5,-6,-2,0,4,8,-7,-0.064423144
16.274683,35,-9,0,-1,-1,-4,6,13,-0.064423144
16.290651,-4,5,1,0,-1,4,-10,-13,-0.064423144
16.290658,-3,-9,-4,-3,-4,-5,-12,-12,-0.064423144
16.296169,-9,-2,0,0,0,3,11,-1,-0.064423144
16.296187,-8,6,0,1,-3,0,4,17,-0.064423144
16.319392,-11,-6,0,-1,-1,-2,-7,-23,-0.064423144
16.319400,-2,-8,-2,0,1,-3,-12,-1,-0.064423144
16.319694,-9,2,1,-1,-2,2,7,4,-0.064423144
16.319701,-13,-13,-1,-3,-3,-2,-4,-28,-0.064423144
16.336150,-1,-4,-4,-2,-3,0,2,9,-0.064423144
16.336160,-24,-6,2,0,2,-5,-5,-9,-0.064423144
16.336163,-13,-2,0,-1,0,1,-5,-60,-0.064423144
16.336166,-9,5,2,-1,-1,-3,-2,2,-0.064423144
16.348256,-6,-18,2,-1,-3,-2,-3,-24,-0.064423144
16.348290,18,23,-5,-5,-4,-2,-2,-2,-0.064423144
16.356015,-8,-10,-4,-2,2,0,-5,8,-0.064423144
16.356040,-14,-4,0,-1,-1,-2,4,11,-0.064423144
16.372102,7,9,1,2,0,-3,-6,2,-0.064423144
16.372134,2,-11,1,0,-1,1,-2,9,-0.064423144
16.372522,2,4,2,0,1,0,3,9,-0.064423144
16.372537,-10,2,0,-1,1,0,3,11,-0.064423144
16.394248,11,-22,-11,-2,-3,-1,-7,5,-0.064423144
16.394275,2,32,7,0,-1,-2,-3,-7,-0.064423144
16.396463,-10,4,-2,0,-4,1,2,5,-0.064423144
16.396481,8,8,-4,-1,0,0,2,13,-0.064423144
16.407858,-14,-18,4,-1,-3,-3,-4,-6,-0.064423144
16.407875,10,-18,-2,0,-1,-4,-5,-106,-0.064423144
16.416007,-1,4,-1,-1,1,3,12,59,-0.064423144
16.416027,18,6,11,1,-1,-2,-4,-17,-0.064423144
16.430958,-49,-2,-4,2,1,-2,-3,-9,-0.064423144
16.430996,42,-7,-10,-8,-5,-8,-12,-26,-0.064423144
16.431792,9,-26,-7,1,0,0,0,-4,-0.064423144
16.431819,15,8,-8,0,0,-2,0,6,-0.064423144
16.454458,-9,3,-1,-6,-1,1,5,5,-0.064423144
16.454491,-39,0,3,2,1,3,7,33,-0.064423144
16.455800,0,23,7,-1,-1,-2,-3,-3,-0.064445762
16.455805,-29,-35,-4,-1,-1,0,4,20,-0.064445762
16.477732,18,33,-2,-1,-4,-2,-8,-15,-0.064445762
16.477747,-13,16,-4,3,1,1,4,61,-0.064445762
16.477749,22,-36,-6,-3,-1,-1,1,-20,-0.064445762
16.477752,-28,-9,-7,-2,1,0,0,20,-0.064445762
16.491693,8,24,16,5,1,-1,1,-15,-0.064445762
16.491710,1,-13,3,2,4,0,-12,83,-0.064445762
16.492206,16,37,0,1,0,-2,2,-12,-0.064445762
16.492241,1,-19,1,1,-1,0,0,-6,-0.064445762
16.514087,36,9,-3,-2,-1,-3,-5,-56,-0.064445762
16.514104,-29,-29,-12,-8,-7,-3,3,-18,-0.064445762
16.515141,-18,7,8,1,0,0,-5,-10,-0.064445762
16.515159,6,-2,5,0,-3,-1,-1,13,-0.064445762
16.539017,-8,28,-17,-4,-3,0,-2,2,-0.064445762
16.539052,-8,-9,16,3,0,-1,-1,-89,-0.064445762
16.539055,-8,29,7,-3,-3,-2,3,-17,-0.064445762
16.539058,7,2,-7,-1,3,0,-2,13,-0.064445762
16.551119,11,-28,-14,1,1,1,2,46,-0.064445762
16.553313,4,25,16,1,-2,-2,-1,-1,-0.064445762
16.553331,-51,-64,-6,-2,-3,0,0,-4,-0.064445762
16.553338,12,20,5,1,-1,1,3,2,-0.064445762
16.574455,8,-19,-8,-2,2,0,-6,70,-0.064445762
16.574594,21,11,-14,-5,0,-2,3,8,-0.064445762
16.575010,8,3,3,2,1,-1,-4,-5,-0.064445762
16.577220,-28,-1,-4,-3,-2,-4,-1,-19,-0.064445762
16.596609,-36,-52,1,-1,-2,-1,0,-19,-0.064445762
16.596627,-25,38,-1,-1,0,1,5,54,-0.064445762
16.598303,31,8,-4,0,-2,0,-1,20,-0.064445762
16.598320,-8,-8,1,-3,-2,-1,0,12,-0.064445762
16.610945,-39,6,2,-4,-4,-1,4,-11,-0.064445762
16.610963,25,-11,3,4,2,-1,-5,10,-0.064445762
16.612012,-19,-18,-9,0,-2,-2,-4,-35,-0.064445762
16.612020,10,14,-10,-3,-1,1,-2,20,-0.064445762
16.634085,9,-3,11,-1,0,-4,0,-26,-0.064445762
16.634104,10,53,1,2,-2,-4,-6,-57,-0.064445762
16.634752,-17,-54,-1,1,1,1,1,67,-0.064445762
16.634775,38,33,-4,-1,-3,-5,-4,-19,-0.064445762
16.656660,-7,7,0,-2,-1,1,1,-7,-0.064445762
16.656677,-2,-14,-6,-1,-3,-1,-1,-74,-0.064445762
16.657694,8,-1,1,-1,1,-2,-5,-3,-0.064445762
16.657699,-16,-15,4,0,-1,0,3,-30,-0.064445762
16.671008,14,15,-4,-3,2,-2,-14,-11,-0.064445762
16.671025,1,-20,-6,-4,-2,-1,3,-8,-0.064445762
16.672029,0,10,-7,-3,-1,0,1,29,-0.064445762
16.672034,-2,36,-2,-1,-2,0,0,-14,-0.064445762
16.695297,49,10,11,3,1,-2,0,-1,-0.064445762
16.695312,-11,-36,-1,-2,-2,0,2,32,-0.064445762
16.695315,6,27,-8,-1,-2,2,1,52,-0.064445762
16.695318,5,-16,-6,-1,-3,-5,-5,-10,-0.064445762
16.716722,18,19,3,-3,-2,-4,-1,-61,-0.064423144
16.716740,-51,-5,3,0,-1,-1,-2,-10,-0.064423144
16.719004,10,14,0,-3,-3,-4,-5,-27,-0.064423144
16.719015,17,-13,3,2,-1,-3,-3,42,-0.064423144
16.731238,0,17,-5,1,1,1,5,53,-0.064423144
16.731271,29,-39,0,2,2,2,9,58,-0.064423144
16.733080,-24,47,4,0,0,-1,-4,-23,-0.064423144
16.733088,-16,-10,0,-3,-2,1,-1,-23,-0.064423144
16.756894,-14,-18,-2,-1,-2,0,0,-7,-0.064423144
16.756906,-5,9,-4,-2,-1,0,-4,31,-0.064423144
16.756908,11,14,6,0,1,2,-1,21,-0.064423144
16.756911,-8,-43,-1,-1,1,-2,-3,-6,-0.064423144
16.775993,-8,-14,-5,-1,0,-1,0,2,-0.064423144
16.776020,-7,-30,-12,-2,-1,-2,1,27,-0.064423144
16.783400,-3,-2,5,2,1,-2,-3,-63,-0.064423144
16.783418,-13,20,10,-1,0,-1,-6,-13,-0.064423144
16.791308,-17,24,-7,-2,0,0,-4,19,-0.064423144
16.791344,-20,-31,-5,-2,-3,-3,-1,-27,-0.064423144
16.793588,31,-47,-11,-3,-1,1,-3,34,-0.064423144
16.793603,-8,-2,-6,0,-1,-1,-2,-10,-0.064423144
16.814729,21,9,5,-1,-2,-1,-4,-16,-0.064423144
16.814753,10,8,2,3,0,1,2,9,-0.064423144
16.816982,-15,-6,-3,-2,-3,-3,-1,-22,-0.064423144
16.816990,11,37,3,0,-1,0,3,-35,-0.064423144
16.836544,-42,-22,-4,-3,-2,-2,-6,-6,-0.064423144
16.836583,41,5,3,-1,1,-2,-10,-11,-0.064423144
16.837325,-6,-2,4,0,1,-1,0,-46,-0.064423144
16.837337,21,-18,-17,-5,-2,-2,-2,-3,-0.064423144
16.850188,-5,15,10,1,0,-2,-1,-19,-0.064423144
16.850200,-5,22,-3,-2,-3,0,9,13,-0.064423144
16.858921,3,30,-9,-4,-4,-3,-7,-21,-0.064423144
16.858951,9,4,9,4,0,1,4,15,-0.064423144
16.874245,-9,-21,-3,0,-2,-3,-2,-3,-0.064423144
16.874262,-4,2,-3,-6,-3,-4,-5,-80,-0.064423144
16.877050,-19,-33,-3,-1,1,-1,-2,53,-0.064423144
16.877067,-18,15,-2,-2,-3,-1,-14,-1,-0.064423144
16.897535,-11,0,-3,0,-1,-2,-7,20,-0.064423144
16.897546,10,8,4,2,0,0,-5,-8,-0.064423144
16.897549,21,-23,1,-1,-2,-1,8,-9,-0.064423144
16.897551,-12,15,-5,-4,-3,-2,0,-28,-0.064423144
16.910254,-20,-31,2,-1,-2,-2,3,-29,-0.064423144
16.910277,-2,-3,-3,-2,0,-1,-3,-5,-0.064423144
16.920915,-1,-7,2,3,0,0,2,-10,-0.064423144
16.920921,6,-3,5,1,0,-2,3,2,-0.064423144
16.934010,4,25,-2,-3,-3,-1,0,-8,-0.064423144
16.934027,18,-6,-3,-3,0,-1,24,1,-0.064423144
16.935533,11,6,-7,-4,-1,2,-11,64,-0.064423144
16.935565,-6,-25,1,1,-1,-2,-16,1,-0.064423144
16.956882,12,-8,-3,0,-1,0,-4,4,-0.064423144
16.956899,-8,-11,-1,-2,1,-2,0,0,-0.064423144
16.959327,-2,37,-2,-2,-1,-5,8,-20,-0.064423144
16.959341,3,-17,6,1,-1,-1,7,4,-0.064423144
16.970624,0,-44,-3,-2,-1,0,10,16,-0.064337204
16.970657,-5,17,-2,3,-1,2,-9,-12,-0.064337204
16.979899,-4,13,0,-1,-3,-5,-6,-66,-0.064337204
16.979958,2,-4,-2,0,0,2,-1,10,-0.064337204
16.994197,-28,-8,-1,-2,0,2,5,42,-0.064337204
16.994224,12,-7,-4,0,-2,0,-6,10,-0.064337204
16.995826,-5,12,3,0,-1,-2,-5,-15,-0.064337204
16.995844,-20,-10,2,0,1,-2,5,-18,-0.064337204
17.016741,27,8,2,0,-1,0,0,-18,-0.064337204
17.016773,-8,13,-5,-6,-4,-2,0,-37,-0.064337204
17.018731,-37,-15,-3,-3,-2,-2,2,1,-0.064337204
17.018746,-12,5,-5,-1,2,0,9,45,-0.064337204
17.030979,51,0,0,2,0,-1,-4,1,-0.064337204
17.031026,-10,-13,-4,-1,0,7,2,21,-0.064337204
17.039784,0,-4,7,2,-4,-14,-3,-7,-0.064337204
17.039791,-31,56,-7,-4,-3,1,-2,0,-0.064337204
17.055121,5,25,-6,-1,0,-2,-3,-22,-0.064337204
17.055162,11,20,5,0,1,-2,-4,3,-0.064337204
17.060235,-1,-33,3,2,2,4,-2,7,-0.064337204
17.060254,33,-4,-3,-2,-2,-1,-3,3,-0.064337204
17.076897,-28,2,1,5,0,1,2,8,-0.064337204
17.076920,-10,-5,0,-1,-3,-1,-7,-1,-0.064337204
17.078897,7,7,-1,-3,-1,1,4,4,-0.064337204
17.078912,6,-15,-6,-3,-2,-2,2,-4,-0.064337204
17.090660,-11,-48,1,-1,0,-1,-5,16,-0.064337204
17.090693,-4,37,3,-2,-3,-5,-4,9,-0.064337204
17.099817,-14,0,-1,2,-1,2,-1,-7,-0.064337204
17.099847,14,7,-2,-1,-2,-2,-1,-3,-0.064337204
17.114499,34,-23,-3,-3,-2,-3,0,-18,-0.064337204
17.114516,-31,-13,-4,-1,-1,-3,-7,-35,-0.064337204
17.116699,11,12,6,2,0,2,1,17,-0.064337204
17.116717,0,0,2,0,0,1,5,33,-0.064337204
17.136508,-7,13,-1,-2,-1,-1,2,1,-0.064337204
17.136527,1,-10,3,0,0,0,0,15,-0.064337204
17.138012,5,1,-9,-7,-3,-3,-13,-12,-0.064337204
17.138024,-13,7,5,4,2,2,6,28,-0.064337204
17.150352,-2,9,-3,-4,-4,-3,-5,-12,-0.064337204
17.150370,29,-5,0,-1,0,-4,-7,-52,-0.064337204
17.161816,-13,5,-2,-2,-1,0,3,-24,-0.064337204
17.161841,-1,-21,-6,-2,0,-6,-6,20,-0.064337204
17.174133,-19,-4,0,2,0,-1,-4,-1,-0.064337204
17.174150,6,20,-3,-3,-2,-2,-1,16,-0.064337204
17.175538,-8,-46,1,0,1,1,2,-6,-0.064337204
17.175553,3,37,-1,-5,-5,-5,-6,-36,-0.064337204
17.196633,-1,-35,-4,-5,-2,-3,-1,-14,-0.064337204
17.196654,7,-10,-2,0,1,-1,5,23,-0.064337204
17.198182,38,-9,-1,-2,-1,0,-1,3,-0.064337204
17.198202,11,-22,-2,1,0,1,0,-4,-0.064337204
17.210331,-21,12,-1,0,-1,-2,1,0,-0.064337204
17.210356,-18,-14,-3,-2,-2,-2,2,17,-0.064337204
17.220071,7,22,-1,-1,-1,1,0,15,-0.064337204
17.220077,-13,-42,0,-1,0,-1,-9,-43,-0.064337204
17.234169,22,27,1,-2,-1,0,3,-12,-0.048994611
17.234187,-25,-25,1,2,1,2,0,-10,-0.048994611
17.235500,-15,35,-1,1,1,0,-1,-3,-0.048994611
17.235537,10,-29,-2,-1,-1,-2,-2,-39,-0.048994611
17.257865,-14,22,0,-1,-1,-1,0,-4,-0.048994611
17.257882,-8,-18,0,1,2,2,4,59,-0.048994611
17.258056,-12,-9,-2,0,0,-2,1,39,-0.048994611
17.258071,-12,65,1,-2,-1,-1,1,-7,-0.048994611
17.272301,37,-29,-1,-2,0,-2,-3,1,-0.048994611
17.272308,16,24,-3,-3,-4,-2,-4,-2,-0.048994611
17.279722,-12,-7,2,0,-3,0,1,-9,-0.048994611
17.279732,25,-23,-6,-2,0,-1,1,15,-0.048994611
17.294344,-32,12,5,1,0,3,4,9,-0.048994611
17.294376,-3,-8,-1,-1,1,-4,-9,-4,-0.048994611
17.296345,-4,-6,-2,0,-1,-2,-13,-52,-0.048994611
17.296360,-27,12,6,2,2,0,-9,5,-0.048994611
17.319242,56,13,-4,-4,-3,-8,-4,-9,-0.048994611
17.319258,-41,0,-1,0,-1,12,-1,-9,-0.048994611
17.319266,27,10,-1,0,1,2,8,-9,-0.048994611
17.319271,-43,-4,-2,0,-4,-19,-2,-4,-0.048994611
17.330795,3,-4,-1,2,0,0,-13,15,-0.048994611
17.330829,-21,-13,1,0,-2,-8,-3,1,-0.048994611
17.341071,19,-1,0,-1,-1,4,2,8,-0.048994611
17.341078,43,1,-7,-6,-6,6,4,3,-0.048994611
17.354406,-24,9,2,1,0,0,4,13,-0.048994611
17.354438,27,-14,-2,-2,0,-5,-1,-9,-0.048994611
17.356692,-32,20,-1,-1,-2,2,1,10,-0.048994611
17.356698,-11,-17,1,-2,1,-1,-1,-6,-0.048994611
17.376764,-25,3,0,-1,0,2,1,-6,-0.048994611
17.376797,45,14,-2,0,0,-3,-2,-17,-0.048994611
17.379334,26,16,-4,-1,-1,-1,11,34,-0.048994611
17.379351,-9,-1,5,3,-1,2,-4,-5,-0.048994611
17.399581,-5,31,-5,-5,-4,-4,-2,-8,-0.048994611
17.400840,-24,-18,-3,-4,-3,4,-2,-28,-0.048994611
17.400846,23,9,7,6,4,-24,-11,13,-0.048994611
17.400849,-20,4,-5,-2,-3,24,1,5,-0.048994611
17.414220,-29,-10,-1,-1,0,18,5,14,-0.048994611
17.414244,54,3,-4,-2,-2,-20,-10,1,-0.048994611
17.415718,-3,-28,-3,-4,-2,0,-1,-9,-0.048994611
17.415735,-1,7,6,3,2,-6,1,12,-0.048994611
17.436486,-8,15,1,0,1,4,-4,-19,-0.048994611
17.436504,-5,-2,-1,1,-1,3,-4,-10,-0.048994611
17.438391,-17,0,-4,-4,-2,1,6,21,-0.048994611
17.438413,4,11,-2,0,-1,-6,0,-28,-0.048994611
17.459258,-35,-11,-3,-2,-1,-4,-4,-2,-0.048994611
17.459279,-6,5,0,0,0,0,6,13,-0.048994611
17.460771,5,-22,1,-1,0,-6,-11,-4,-0.048994611
17.460791,-2,-23,-2,-1,-1,1,-5,-9,-0.048994611
17.474825,15,-21,-5,-2,-3,-10,-3,-24,-0.048994611
17.474834,-7,-5,1,1,0,0,0,9,-0.048994611
17.480386,-9,7,-1,-1,-1,7,-6,6,-0.025840504
17.480411,13,-5,-4,-1,-1,-8,5,16,-0.025840504
17.496784,3,-6,2,2,-3,-2,-5,1,-0.025840504
17.496803,-1,-4,0,-2,-4,-12,2,18,-0.025840504
17.498152,1,22,-1,2,-3,-9,7,-9,-0.025840504
17.498211,-7,-8,1,-1,4,-2,2,14,-0.025840504
17.520072,-7,-22,-1,0,1,-7,-1,6,-0.025840504
17.520084,-2,20,1,-1,-5,15,4,0,-0.025840504
17.520629,-1,1,0,0,-3,-6,-8,-20,-0.025840504
17.520641,-7,-6,0,-1,0,-2,1,-4,-0.025840504
17.535390,-1,31,-4,-3,-2,-5,0,6,-0.025840504
17.535427,-7,5,4,-3,-2,12,-1,6,-0.025840504
17.535575,13,-26,-5,-4,-1,2,0,7,-0.025840504
17.535583,12,-10,1,2,4,2,-2,2,-0.025840504
17.556802,-7,-2,-1,0,0,3,-2,-1,-0.025840504
17.556829,1,0,-4,0,2,-3,-3,-7,-0.025840504
17.558172,-17,4,-2,-3,-4,0,4,2,-0.025840504
17.558179,7,-8,-4,-3,-5,-9,-18,-30,-0.025840504
17.586664,12,20,1,0,0,1,7,14,-0.025840504
17.586689,-16,28,-2,-2,-1,-7,-2,-24,-0.025840504
17.588220,-6,-7,0,0,1,2,2,-7,-0.025840504
17.588234,14,3,1,0,1,3,5,24,-0.025840504
17.593471,-14,-17,1,0,1,12,-3,-6,-0.025840504
17.593501,34,-1,-4,-3,2,-19,-2,-18,-0.025840504
17.600633,9,-11,-4,-3,22,12,7,4,-0.025840504
17.600666,15,-6,-1,-4,-5,-19,0,1,-0.025840504
17.616724,-17,-5,-4,-7,-14,-1,0,5,-0.025840504
17.616741,-17,-8,0,0,-2,-6,4,18,-0.025840504
17.618285,-5,-1,2,4,-3,-1,-6,-3,-0.025840504
17.620376,6,-12,-4,-2,0,-3,0,13,-0.025840504
17.639502,4,1,-2,-2,6,3,-6,-18,-0.025840504
17.639534,-11,-9,2,2,1,0,-7,6,-0.025840504
17.641994,-8,-1,-3,0,1,-5,-1,-24,-0.025840504
17.642007,6,29,0,0,-1,1,0,4,-0.025840504
17.653986,23,-10,-3,-3,-10,-9,-3,-7,-0.025840504
17.654011,-13,-7,1,3,28,7,12,57,-0.025840504
17.660313,-13,-7,-1,-3,-12,21,3,-8,-0.025840504
17.660340,1,34,-1,-5,-16,-35,-2,-1,-0.025840504
17.676902,-11,-11,-4,-3,2,5,-2,-25,-0.025840504
17.676939,5,-10,0,-2,-8,7,-2,-6,-0.025840504
17.678341,-10,-4,0,2,2,21,13,9,-0.025840504
17.678362,4,24,0,1,5,-9,-6,4,-0.025840504
17.699230,17,-2,2,-1,3,-4,0,8,-0.025840504
17.699248,-4,-9,-2,-1,-13,-8,-2,-7,-0.025840504
17.700580,-7,18,-1,1,8,-1,-16,19,-0.025840504
17.700594,-18,-20,-3,-4,-24,13,7,-13,-0.025840504
17.713536,18,-2,-1,0,35,11,2,0,-0.025840504
17.713554,-20,4,-1,4,19,-5,4,28,-0.025840504
17.720655,15,-2,-4,-9,-38,8,-11,-11,-0.025840504
17.720686,5,-21,-2,1,16,7,6,26,-0.025840504
17.738526,3,1,-1,2,-9,9,7,31,0.170166561
17.738535,9,-47,-3,-3,-10,-23,-1,-23,0.170166561
17.738539,-29,11,3,1,11,11,-2,34,0.170166561
17.738541,9,-31,-4,1,1,-19,-2,-3,0.170166561
17.759382,-16,-3,0,-2,-60,8,-2,-10,0.170166561
17.759425,2,19,1,5,68,-15,-18,-8,0.170166561
17.761798,21,-34,-4,-7,-18,36,0,-16,0.170166561
17.761812,11,-5,1,-5,23,9,-2,-4,0.170166561
17.773989,-32,5,2,6,-11,-34,15,19,0.170166561
17.774017,17,-14,-3,0,-37,-35,-19,-9,0.170166561
17.780784,7,-7,-2,-3,23,-5,-4,-10,0.170166561
17.780818,-26,-1,0,0,-10,33,2,-8,0.170166561
17.796682,9,-8,0,-4,-1,-45,-14,-12,0.170166561
17.798260,-6,16,-1,-2,-5,19,1,14,0.170166561
17.798274,-10,7,-1,3,2,-24,2,-9,0.170166561
17.798277,-7,-12,-3,-4,-6,13,2,-10,0.170166561
17.819164,16,13,4,3,20,-14,2,-11,0.170166561
17.819179,-26,-1,-3,-3,-12,20,11,-14,0.170166561
17.820608,33,-11,-3,-1,-11,-24,2,31,0.170166561
17.820660,13,-9,-3,-2,-14,4,-3,-2,0.170166561
17.833423,-20,-3,-2,4,44,7,-4,5,0.170166561
17.833518,12,-4,-5,-12,-43,29,-9,-43,0.170166561
17.840348,-2,4,0,0,27,17,-3,-28,0.170166561
17.840380,-16,7,1,4,19,-17,-3,-12,0.170166561
17.856494,6,-17,0,-2,-18,20,-7,18,0.170166561
17.856512,18,-1,-3,-5,-5,-25,3,22,0.170166561
17.858013,-27,-28,-1,0,-28,-18,2,-1,0.170166561
17.858048,12,-1,1,1,20,-2,-5,0,0.170166561
17.879229,-9,10,-3,-1,-22,22,-2,-10,0.170166561
17.879255,-6,-5,4,7,56,19,2,4,0.170166561
17.880707,0,62,0,-3,-28,-25,-4,-7,0.170166561
17.880728,-13,7,-5,-5,16,1,9,10,0.170166561
17.892651,18,-10,-6,-7,-6,9,6,-4,0.170166561
17.892670,0,4,-1,-1,-28,-53,-7,-7,0.170166561
17.902338,-2,-4,-2,-8,1,-19,3,1,0.170166561
17.902353,0,5,-1,5,3,19,-3,-11,0.170166561
17.916648,-1,38,0,-1,-10,54,-7,-1,0.170166561
17.916669,-4,-8,-2,-1,10,-29,1,13,0.170166561
17.918029,-13,15,2,5,-33,2,-5,-3,0.170166561
17.918040,-6,-22,-6,-14,36,5,-3,-7,0.170166561
17.938996,8,-12,4,13,7,3,7,-2,0.170166561
17.939006,-25,13,1,-2,-19,14,6,2,0.170166561
17.940494,21,-33,-3,-11,-38,15,-6,-13,0.170166561
17.940502,-5,26,1,5,-22,-46,-3,4,0.170166561
17.954002,-3,-34,-2,-1,28,23,6,-5,0.170166561
17.954017,-22,18,-2,2,29,21,-8,-12,0.170166561
17.963202,8,-1,4,8,9,-32,4,22,0.170166561
17.963213,24,-9,2,-1,-25,34,-3,7,0.170166561
17.976624,8,-7,-2,-7,-3,-42,-26,-4,0.170166561
17.976652,6,18,-2,-6,-12,-4,-6,-28,0.170166561
17.978837,-16,-22,-1,2,20,4,1,-22,0.170166561
17.978901,10,27,-4,-6,-9,-8,-8,-6,0.170166561
18.001060,-3,-23,-3,-1,-32,-42,5,6,0.586076593
18.001072,10,8,0,0,55,36,10,-7,0.586076593
18.001075,-2,16,0,0,9,-7,-7,6,0.586076593
18.001078,12,-21,-1,-1,-20,72,18,36,0.586076593
18.012779,15,38,2,0,4,-55,-12,-6,0.586076593
18.012800,-1,-16,-3,3,-32,-7,-7,-4,0.586076593
18.023699,7,-1,0,0,18,14,-3,6,0.586076593
18.023706,-22,-8,4,6,-10,-47,2,-3,0.586076593
18.036628,-3,20,-2,-8,-7,8,5,-4,0.586076593
18.036682,14,-42,-1,-2,-30,4,-16,4,0.586076593
18.039007,-9,11,-2,-7,-1,-1,1,0,0.586076593
18.039013,13,-5,-2,3,-16,-4,-10,-6,0.586076593
18.059762,-17,1,1,2,-33,-36,1,3,0.586076593
18.059789,14,4,-1,0,39,16,22,30,0.586076593
18.062350,8,-31,1,5,-15,-9,-5,-44,0.586076593
18.062364,-23,2,0,-2,2,-3,-15,-14,0.586076593
18.073329,25,17,-3,0,-4,5,-2,-3,0.586076593
18.073361,-21,1,0,0,-6,10,-20,-6,0.586076593
18.083503,5,-9,-1,-2,15,-5,1,-14,0.586076593
18.083521,-21,6,1,-1,-3,-10,3,1,0.586076593
18.096709,63,-35,-2,-6,11,15,-14,-3,0.586076593
18.096742,-14,9,-2,3,0,-6,3,-14,0.586076593
18.098217,-12,11,-1,3,9,6,12,34,0.586076593
18.098241,34,-12,-3,-1,24,-30,9,-13,0.586076593
18.119194,-5,1,-3,-8,18,8,-47,-7,0.586076593
18.120473,-31,-1,3,2,-7,-37,13,5,0.586076593
18.120484,19,-22,-5,-9,-56,-36,-17,-6,0.586076593
18.120490,-23,4,3,4,34,11,34,12,0.586076593
18.133207,5,0,-1,2,17,31,15,3,0.586076593
18.133240,23,-15,-2,-5,-17,-3,-1,-1,0.586076593
18.142856,-43,42,3,3,30,11,1,-1,0.586076593
18.142872,-1,-15,-2,-5,-11,-25,-25,-12,0.586076593
18.158933,-1,-7,3,0,2,-1,8,7,0.586076593
18.158945,-12,5,3,2,-19,10,-5,4,0.586076593
18.158948,-1,15,0,-1,9,24,18,-3,0.586076593
18.158951,25,-13,-2,-5,-26,-2,-19,5,0.586076593
18.179150,-31,7,0,1,25,17,10,-5,0.586076593
18.179168,12,9,-5,-1,-40,50,-7,19,0.586076593
18.181358,17,-6,1,1,31,9,13,10,0.586076593
18.181374,-21,24,2,8,-5,-28,-7,-16,0.586076593
18.193123,-23,35,2,0,31,18,14,10,0.586076593
18.193150,24,-11,3,3,4,-19,11,-33,0.586076593
18.203556,-16,28,-5,3,-14,41,-18,1,0.586076593
18.203573,5,-3,2,-2,-44,-35,14,-5,0.586076593
18.217201,-25,-12,-1,0,11,-12,0,-1,0.586076593
18.217218,31,5,-6,-8,-4,1,6,-4,0.586076593
18.218984,32,-23,-5,-2,16,-3,0,5,0.586076593
18.218997,-19,-13,-5,-8,7,10,-7,-1,0.586076593
18.239521,-4,-2,-1,5,-30,-2,-8,-8,0.586076593
18.239580,-5,3,1,-6,-16,-20,9,-4,0.586076593
18.240745,22,-25,-3,-2,-15,56,-10,-1,0.586076593
18.240795,1,1,-6,-4,39,-38,2,5,0.586076593
18.252668,14,-13,-2,1,-35,-17,4,37,0.988512101
18.252706,-37,-6,-2,-5,28,21,11,-1,0.988512101
18.262588,10,-9,-2,-2,-5,-23,-30,-9,0.988512101
18.262598,-18,-11,-1,1,6,10,-1,-11,0.988512101
18.276734,-1,-7,-3,2,5,10,8,-14,0.988512101
18.276755,-21,23,3,3,5,-7,-10,9,0.988512101
18.279003,2,-3,-6,-7,-54,-33,8,1,0.988512101
18.279015,42,-4,-4,-2,4,39,4,3,0.988512101
18.299071,-17,-25,0,-4,-13,-30,-24,-10,0.988512101
18.299086,-20,9,1,7,32,16,17,61,0.988512101
18.300690,-5,-12,-4,-5,42,-13,13,-8,0.988512101
18.300707,-21,29,2,1,-23,40,-10,2,0.988512101
18.313210,-4,7,4,-3,-8,-19,20,-5,0.988512101
18.313225,54,-12,-6,-6,-40,-71,-16,-38,0.988512101
18.322138,11,12,0,-1,20,14,9,13,0.988512101
18.322144,-8,-12,0,2,7,11,2,13,0.988512101
18.337397,-1,25,-1,-3,-20,35,1,-2,0.988512101
18.337428,-33,3,0,-1,-56,-48,-9,-3,0.988512101
18.343463,-14,-3,2,1,52,1,11,2,0.988512101
18.343490,12,-12,-1,-5,14,3,12,-9,0.988512101
18.359686,-25,0,-3,-1,-8,-15,-64,-37,0.988512101
18.359703,12,13,-5,-1,8,26,15,-2,0.988512101
18.360817,-37,-10,3,5,-12,-18,-3,-3,0.988512101
18.360842,29,1,-1,-3,-28,-29,-19,2,0.988512101
18.381802,-13,-1,-2,-1,53,46,26,58,0.988512101
18.381819,5,-25,-2,-7,21,38,-11,-5,0.988512101
18.383079,-11,24,2,5,-2,-24,-4,-3,0.988512101
18.383090,-11,7,0,1,13,-6,1,-3,0.988512101
18.396705,-5,-9,-3,-4,-19,-34,11,11,0.988512101
18.398281,28,10,-5,-8,40,24,-16,-12,0.988512101
18.398296,-29,-8,2,-4,-27,-7,10,11,0.988512101
18.398299,-31,6,0,3,13,14,0,-3,0.988512101
18.419491,25,-7,1,3,-23,-19,-7,-15,0.988512101
18.419516,-17,-13,1,2,31,86,18,20,0.988512101
18.421722,11,24,2,3,3,-34,-42,-16,0.988512101
18.421729,-12,-13,-5,-1,-38,35,8,0,0.988512101
18.441707,14,-34,0,-2,8,-42,0,-16,0.988512101
18.441726,-1,-13,0,1,-18,-80,-24,-8,0.988512101
18.443357,-10,29,-3,-5,-16,-8,-4,0,0.988512101
18.443386,-4,0,2,3,30,17,12,-1,0.988512101
18.456896,9,-7,-3,-3,-4,5,0,-1,0.988512101
18.456925,-16,32,0,2,-64,0,-11,-17,0.988512101
18.458152,7,-20,-3,-9,60,28,12,3,0.988512101
18.458210,30,0,-4,0,-13,-38,-22,-1,0.988512101
18.479122,-15,-11,-2,-4,-45,43,20,-14,0.988512101
18.479140,5,23,-1,4,49,1,-7,-7,0.988512101
18.481035,18,3,-1,2,-27,23,8,-2,0.988512101
18.481115,-21,-11,-2,0,-17,-36,12,73,0.988512101
18.501653,-3,45,3,5,-2,-10,15,19,0.988512101
18.501666,-24,-14,0,-13,8,3,-10,-12,0.988512101
18.503138,35,-18,0,6,-9,-16,-4,-3,1.138468764
18.503180,30,15,-6,-10,-3,-2,-14,-38,1.138468764
18.515878,-6,2,-1,3,-4,-6,0,18,1.138468764
18.515916,0,-9,2,6,-4,15,6,10,1.138468764
18.522884,-38,35,2,-4,-8,-44,0,-11,1.138468764
18.523779,3,2,4,3,34,-16,-6,-9,1.138468764
18.539352,15,-15,-4,-7,-1,55,8,-16,1.138468764
18.539450,-21,8,-6,-5,-54,-15,-15,-26,1.138468764
18.540712,9,-20,0,4,19,28,-10,2,1.138468764
18.540717,-66,2,3,5,14,-44,14,-21,1.138468764
18.563039,49,-8,-2,2,71,40,14,-17,1.138468764
18.563053,5,-14,0,-5,-33,-33,6,5,1.138468764
18.563056,2,-5,-2,-5,-12,13,8,6,1.138468764
18.563127,20,-25,-2,-2,-25,-9,-8,-5,1.138468764
18.578728,-45,0,-6,-8,-24,-46,0,-12,1.138468764
18.578746,10,-15,-2,5,13,34,11,0,1.138468764
18.583218,-3,1,0,-2,2,-29,-3,3,1.138468764
18.583247,-22,-8,3,3,24,24,0,-2,1.138468764
18.599078,17,-6,0,2,-2,-8,-7,-21,1.138468764
18.599095,9,-16,1,4,9,13,9,34,1.138468764
18.600462,-11,-9,-5,-6,-10,35,-9,-5,1.138468764
18.601668,6,-9,-3,-6,-62,-21,-4,-3,1.138468764
18.622098,-36,-13,-4,-9,74,69,0,-15,1.138468764
18.622131,-9,31,-2,12,4,-18,-5,-12,1.138468764
18.623783,-19,-8,0,3,47,26,9,9,1.138468764
18.623795,29,31,-2,-8,29,-4,-10,3,1.138468764
18.636343,16,-6,-2,6,-9,18,-10,4,1.138468764
18.636375,-9,-2,0,-8,4,-18,18,15,1.138468764
18.643238,46,0,-1,6,-16,-6,2,-12,1.138468764
18.643272,-7,1,-1,4,5,16,-7,-2,1.138468764
18.659507,-7,-10,-3,-5,-29,-8,4,9,1.138468764
18.659526,-25,40,3,2,29,3,-6,-14,1.138468764
18.660920,-34,-5,1,0,-14,-33,19,1,1.138468764
18.660947,50,-17,-7,-7,-24,21,-10,-5,1.138468764
18.681700,14,13,-1,-5,-7,-33,-5,-2,1.138468764
18.681729,19,-10,-3,0,-8,5,4,-1,1.138468764
18.683399,-19,1,2,-9,-54,-18,-1,7,1.138468764
18.683411,-48,12,4,14,23,41,4,-28,1.138468764
18.695967,30,-13,-4,-2,88,16,-8,15,1.138468764
18.695986,9,1,-6,-8,0,-28,5,-7,1.138468764
18.702835,-2,-4,-1,6,-22,10,6,-3,1.138468764
18.702858,-33,5,-1,-6,20,9,20,3,1.138468764
18.718160,1,-1,-1,-1,-48,-37,-13,-10,1.138468764
18.718171,-6,-14,2,2,-4,-10,-10,2,1.138468764
18.728595,16,-31,-4,-4,47,57,-11,-3,1.138468764
18.728616,-14,9,1,-4,-28,-2,28,72,1.138468764
18.742281,-40,13,-1,10,-5,-21,-18,11,1.138468764
18.742317,-2,-9,-2,-9,0,17,-5,-1,1.138468764
18.744901,17,-8,-2,-2,-85,-87,6,-12,1.138468764
18.744921,7,-11,-2,0,38,44,-7,-1,1.138468764
18.756206,-27,39,5,-1,-5,2,8,7,1.138468764
18.756224,52,-31,-4,1,-29,9,-3,1,1.138468764
18.762794,-19,-3,-4,-8,-36,-24,6,-5,1.246409701
18.762811,-9,10,1,0,18,-16,-25,23,1.246409701
18.779918,-11,5,4,7,47,16,3,-2,1.246409701
18.779929,-15,-11,2,-1,-28,-32,8,-7,1.246409701
18.780543,-14,17,-2,4,24,36,-17,-4,1.246409701
18.780553,17,-35,-2,-8,-17,-7,3,-6,1.246409701
18.801805,-1,-10,-2,2,25,-4,3,1,1.246409701
18.801830,-4,29,2,3,11,-16,-36,-5,1.246409701
18.804454,1,7,3,2,26,-42,8,11,1.246409701
18.804467,-41,-1,1,-5,-50,-63,-10,-17,1.246409701
18.816554,90,-4,-10,-8,-32,-26,-18,-12,1.246409701
18.816570,-9,-21,0,-2,39,20,16,-1,1.246409701
18.823072,-14,-15,-4,4,34,48,-15,-1,1.246409701
18.823096,-16,4,2,0,1,18,19,-4,1.246409701
18.839474,-9,-6,0,2,-21,-21,-8,-47,1.246409701
18.839505,3,-16,-8,-6,-12,-2,-9,13,1.246409701
18.841438,3,14,4,6,8,-15,-10,0,1.246409701
18.841450,14,-3,1,4,47,118,11,-13,1.246409701
18.861767,16,-32,0,-8,4,-20,-2,-45,1.246409701
18.861793,-4,4,-4,-9,-50,19,6,-15,1.246409701
18.863332,-11,4,0,-2,63,35,13,1,1.246409701
18.863347,3,-2,-4,5,-48,-9,-14,-16,1.246409701
18.875151,-7,4,1,-6,-7,-34,6,19,1.246409701
18.875202,8,9,-5,0,7,1,-4,6,1.246409701
18.884431,-4,-13,0,-5,-22,-1,0,11,1.246409701
18.884437,-29,-8,0,1,1,-21,-8,-11,1.246409701
18.899421,40,9,-2,-2,-26,38,-4,7,1.246409701
18.899454,-14,-4,1,-1,-18,4,31,6,1.246409701
18.901852,-16,-5,-3,1,15,-23,-37,-5,1.246409701
18.901861,63,-1,-5,-10,-48,-6,12,1,1.246409701
18.921512,-37,16,3,5,2,-35,0,17,1.246409701
18.921532,-11,-18,1,-2,3,18,-8,-1,1.246409701
18.922981,2,3,0,-4,-24,20,29,-9,1.246409701
18.923024,-20,22,3,7,22,-5,4,1,1.246409701
18.935102,-17,-2,0,-1,-42,-47,-3,-21,1.246409701
18.935115,59,0,0,-2,11,-26,-14,-22,1.246409701
18.945558,-6,9,-1,-1,-11,-8,2,2,1.246409701
18.945571,4,-15,-3,-4,2,-33,-15,-5,1.246409701
18.959176,-29,30,2,-5,9,26,4,-2,1.246409701
18.959195,-40,-3,6,12,16,17,16,35,1.246409701
18.960977,40,0,-2,-11,-36,-17,3,11,1.246409701
18.960993,8,5,0,4,38,-14,-41,-9,1.246409701
18.981619,-4,-13,0,0,-33,54,3,8,1.246409701
18.981630,-8,37,-3,1,99,-29,-2,-11,1.246409701
18.982992,23,2,-3,-12,1,-14,4,2,1.246409701
18.983055,-2,-19,-1,5,-15,0,22,7,1.246409701
18.996312,-33,-9,-5,1,-50,4,-11,18,1.246409701
18.996327,25,0,1,-7,8,20,-4,-19,1.246409701
19.004715,16,-13,-2,-2,-70,6,-1,2,1.246409701
19.004729,-18,14,0,0,50,-3,-1,-3,1.246409701
19.019264,-14,-11,1,-2,22,-3,9,10,1.351650302
19.020769,-9,-8,-2,1,-8,-9,5,-8,1.351650302
19.020793,18,0,-5,-4,1,-34,-3,-8,1.351650302
19.020796,4,-10,0,-2,-40,-35,-46,-7,1.351650302
19.043268,-14,14,0,-5,-37,-11,17,11,1.351650302
19.043346,-17,-3,-2,4,33,-7,-18,4,1.351650302
19.043353,-27,5,5,7,14,-3,17,42,1.351650302
19.043357,-8,16,-2,-14,59,42,5,-21,1.351650302
19.055200,40,16,0,5,42,10,10,7,1.351650302
19.055223,-8,-2,-4,-4,-73,-65,-12,13,1.351650302
19.064916,-18,1,-2,-1,28,-21,-19,-29,1.351650302
19.064929,21,-6,-2,1,-18,7,19,6,1.351650302
19.079329,2,10,-4,0,14,-40,-24,3,1.351650302
19.079372,15,-9,2,-1,-51,13,8,-17,1.351650302
19.081494,-35,31,2,6,12,19,3,-3,1.351650302
19.081513,9,-12,-6,-11,-30,-17,-14,9,1.351650302
19.101717,-12,-10,1,-4,6,-76,-20,7,1.351650302
19.101742,-16,-9,4,12,61,68,15,8,1.351650302
19.103129,65,-32,-9,-14,-22,-7,-8,-10,1.351650302
19.103171,-30,18,1,7,5,-11,17,8,1.351650302
19.115205,11,5,1,-8,-35,-13,-24,-8,1.351650302
19.115223,-44,7,3,8,6,72,10,-2,1.351650302
19.124968,-24,-8,2,2,-27,7,-3,2,1.351650302
19.124976,98,-4,-10,-12,31,39,6,-24,1.351650302
19.139110,8,-22,1,4,-4,15,20,6,1.351650302
19.139137,-15,-16,4,5,80,-55,-49,5,1.351650302
19.140661,-21,33,0,-7,0,44,20,-10,1.351650302
19.140682,-29,-32,0,9,-32,-8,0,5,1.351650302
19.161729,-7,4,-3,-6,19,22,-13,-59,1.351650302
19.161753,24,-18,-6,-10,-23,21,-5,-12,1.351650302
19.163080,6,19,1,5,26,-32,-2,-11,1.351650302
19.163094,-35,5,-1,-4,9,15,-2,-7,1.351650302
19.175521,24,-9,-2,2,-8,24,27,3,1.351650302
19.175553,-4,6,2,-2,-21,-47,3,-3,1.351650302
19.184346,-45,-12,-1,-1,4,-23,-6,5,1.351650302
19.184355,25,-8,-2,5,23,-12,14,7,1.351650302
19.199528,-31,11,-1,1,42,-27,-5,7,1.351650302
19.199540,-16,29,-3,-10,-32,13,-4,0,1.351650302
19.200540,-6,-9,-1,3,62,13,-12,0,1.351650302
19.200566,72,-7,1,0,-88,13,0,6,1.351650302
19.221686,-5,15,1,2,33,-15,0,7,1.351650302
19.221710,4,-21,-2,0,-20,-51,-5,7,1.351650302
19.224117,-8,-6,-4,-8,-22,43,7,-14,1.351650302
19.224128,-46,14,0,-5,40,3,-15,-26,1.351650302
19.235529,29,-36,-8,1,-26,18,7,16,1.351650302
19.235560,4,0,2,8,47,4,10,-3,1.351650302
19.244332,9,-2,-2,-2,-101,-19,-12,1,1.351650302
19.244367,22,5,1,-9,-5,49,-46,8,1.351650302
19.262032,-12,-9,3,0,-34,-21,24,18,1.351650302
19.262051,-56,42,4,3,43,0,8,-5,1.351650302
19.262054,-9,-20,5,4,-20,4,2,15,1.351650302
19.262057,39,0,-9,1,-13,-71,-3,-11,1.351650302
19.282108,13,-1,1,-20,58,-4,-26,-9,1.560430800
19.282142,12,-22,-6,16,-66,29,-2,8,1.560430800
19.283181,-86,22,8,11,27,-3,-22,0,1.560430800
19.283203,30,-9,-5,-9,9,11,43,6,1.560430800
19.304439,-21,-7,-3,-2,-20,-15,-46,-1,1.560430800
19.304473,42,-15,-2,-1,36,-45,5,-14,1.560430800
19.306485,2,-9,0,-4,14,-3,-4,4,1.560430800
19.306491,-31,14,4,5,1,-46,8,11,1.560430800
19.319230,-13,12,-5,-2,13,104,12,-8,1.560430800
19.319248,2,-4,1,-15,-72,-52,-5,4,1.560430800
19.321144,9,3,-2,-3,46,23,-2,-1,1.560430800
19.321152,26,-11,-5,-4,-3,-10,0,17,1.560430800
19.341751,-18,9,-2,-4,68,3,4,-22,1.560430800
19.341760,6,6,1,-1,-34,37,-10,13,1.560430800
19.343387,9,-27,-2,6,55,37,22,-27,1.560430800
19.343413,-43,19,4,-11,-49,-2,-18,-6,1.560430800
19.364109,-7,13,-2,7,-68,-35,-15,-6,1.560430800
19.364128,-8,0,-5,-12,47,-21,0,-3,1.560430800
19.365952,40,-19,-6,17,-18,52,11,19,1.560430800
19.365964,-25,11,6,5,4,-35,-11,6,1.560430800
19.379450,25,1,-2,-4,-13,3,21,12,1.560430800
19.379471,-5,14,-2,-6,-37,11,-18,-8,1.560430800
19.380837,-31,7,0,-14,-13,40,11,10,1.560430800
19.380892,-32,-4,-9,-2,12,5,-32,-24,1.560430800
19.401507,41,-13,0,4,-26,-53,-33,-2,1.560430800
19.401526,-10,-2,1,-5,30,-4,4,25,1.560430800
19.403093,-13,2,-1,3,41,-1,-1,-6,1.560430800
19.403111,25,12,-4,-8,-72,46,12,-22,1.560430800
19.424096,-17,-19,-3,-1,61,-24,16,11,1.560430800
19.424113,13,-17,-3,-16,1,-18,5,-7,1.560430800
19.425625,8,22,3,17,27,20,1,1,1.560430800
19.425636,-12,37,9,18,21,-44,14,-13,1.560430800
19.438645,16,-4,-6,-12,-108,70,33,-11,1.560430800
19.438682,-3,-7,-4,-14,-48,-28,-28,-11,1.560430800
19.445521,21,13,-5,-3,-8,-30,-5,-25,1.560430800
19.445547,-21,-32,2,17,91,-14,31,23,1.560430800
19.461695,-45,1,4,7,-39,1,0,0,1.560430800
19.461745,39,-43,-6,-19,-22,21,-11,-24,1.560430800
19.463249,3,25,-8,18,-23,43,-12,8,1.560430800
19.463272,33,-16,-4,-17,-31,3,17,10,1.560430800
19.484091,-9,-7,-3,-3,-40,-46,10,15,1.560430800
19.484110,-26,-8,5,23,61,33,0,-38,1.560430800
19.485615,6,8,0,-17,-45,-45,-7,9,1.560430800
19.485633,-33,1,-8,-11,28,56,21,-14,1.560430800
19.498627,10,5,-2,-1,15,-17,-33,-33,1.560430800
19.498717,-22,18,1,9,-75,-16,3,20,1.560430800
19.505300,43,-55,0,-13,-6,-61,-5,-3,1.560430800
19.505316,3,41,-2,7,10,96,-18,15,1.560430800
19.529282,-70,7,8,16,62,10,9,-6,2.089555785
19.529310,107,9,-7,-4,42,-14,-23,-11,2.089555785
19.530614,2,8,1,-6,15,2,30,12,2.089555785
19.530637,-30,-21,-1,-4,-79,-28,-8,7,2.089555785
19.544556,14,7,0,-11,-31,-31,-45,7,2.089555785
19.544605,-16,0,6,16,22,49,26,38,2.089555785
19.545734,-16,26,-3,10,23,-74,-19,-9,2.089555785
19.545755,23,-29,1,-7,-5,1,7,-15,2.089555785
19.560168,-31,11,-1,7,13,3,0,19,2.089555785
19.560187,12,21,1,-7,-47,2,28,-15,2.089555785
19.565570,-38,-14,-3,-30,-14,-18,-43,3,2.089555785
19.565590,46,-11,-9,26,58,-23,9,-10,2.089555785
19.581747,5,2,2,-6,36,-21,35,8,2.089555785
19.581766,-4,-18,-1,-3,-57,23,8,11,2.089555785
19.583306,-78,32,8,20,-59,30,7,2,2.089555785
19.583365,70,-4,-10,-38,1,-39,-57,-21,2.089555785
19.604615,15,6,-7,-1,11,-24,-8,19,2.089555785
19.604650,-31,3,-2,6,11,50,7,-3,2.089555785
19.607244,-9,20,11,19,85,-12,16,25,2.089555785
19.607256,-29,-30,-14,-6,7,-19,-18,0,2.089555785
19.618401,48,0,1,0,-106,-11,-2,-8,2.089555785
19.618424,-1,7,-3,-8,71,-3,2,16,2.089555785
19.625308,2,-6,3,-7,-88,-69,-33,-35,2.089555785
19.625326,-30,12,18,24,36,38,16,19,2.089555785
19.641636,2,11,1,-4,66,9,-16,-20,2.089555785
19.641654,-7,7,-1,12,-32,-37,15,15,2.089555785
19.644044,59,-16,-7,4,29,39,-4,10,2.089555785
19.644060,-36,13,8,-3,-9,-43,11,7,2.089555785
19.664071,-9,-9,0,-2,-31,23,9,-10,2.089555785
19.665142,-25,-22,-4,-15,11,-21,12,0,2.089555785
19.665613,7,31,-3,-1,11,0,27,-7,2.089555785
19.665646,-6,8,-3,-12,-17,18,-15,66,2.089555785
19.678561,-17,-27,-1,13,39,-10,52,-9,2.089555785
19.678585,-4,8,1,-11,1,89,7,27,2.089555785
19.685331,25,-33,-2,-9,28,-45,-28,-37,2.089555785
19.685350,-23,38,0,10,11,3,3,-10,2.089555785
19.702087,-1,-2,0,-8,21,52,-32,20,2.089555785
19.702098,7,-25,-6,-6,-44,-54,-12,18,2.089555785
19.703057,29,-40,-8,-2,-105,5,-45,42,2.089555785
19.703075,-26,-26,-1,-3,38,81,-24,-19,2.089555785
19.724327,40,9,0,18,85,0,-11,-4,2.089555785
19.724359,-54,7,3,8,-19,-4,14,-17,2.089555785
19.726736,43,-8,-5,-7,1,-5,20,-5,2.089555785
19.726760,-38,10,1,-7,-40,-46,16,-5,2.089555785
19.738530,5,-13,-5,-10,-47,59,28,45,2.089555785
19.738547,-28,24,9,24,0,-108,-1,-10,2.089555785
19.745315,-5,-13,-9,-27,-54,59,-25,-12,2.089555785
19.745341,68,37,-6,-16,-8,15,16,-47,2.089555785
19.761770,-24,11,12,39,28,-37,-10,6,2.089555785
19.761793,26,-1,-2,-2,36,23,-15,-45,2.089555785
19.763089,-21,-13,-6,-2,38,-20,24,-22,2.089555785
19.763099,43,-51,2,-7,-26,3,-20,7,2.089555785
19.784110,-30,2,-8,-18,-76,-50,-18,-42,2.677866453
19.784127,23,-12,0,-2,9,37,2,10,2.677866453
19.786375,-85,18,0,-3,27,21,39,19,2.677866453
19.786387,61,-38,-4,15,-11,-34,-40,2,2.677866453
19.797813,-26,40,2,-2,28,-3,14,-4,2.677866453
19.797831,-7,4,-1,-11,6,-12,11,39,2.677866453
19.807227,5,-24,-4,-25,20,-72,1,-15,2.677866453
19.807237,9,28,9,48,-62,73,20,7,2.677866453
19.821812,6,-19,-11,4,10,8,-33,9,2.677866453
19.821843,-16,9,0,16,33,14,-33,-8,2.677866453
19.823452,8,13,0,10,86,42,20,12,2.677866453
19.823466,-83,-9,-4,-19,-45,-79,29,23,2.677866453
19.844194,51,-60,-7,-27,40,41,1,-13,2.677866453
19.844220,23,14,-14,-1,-82,5,-22,-30,2.677866453
19.845691,10,38,9,1,15,-4,22,-14,2.677866453
19.845712,-63,-51,-3,-22,18,29,3,15,2.677866453
19.858156,34,-8,1,9,-47,43,-10,16,2.677866453
19.858169,-2,-4,2,-14,-21,-9,-9,-41,2.677866453
19.867129,-5,9,-2,8,43,78,12,29,2.677866453
19.867141,-16,11,-2,18,-2,26,15,-17,2.677866453
19.881655,20,-30,-1,-9,-8,-69,4,-3,2.677866453
19.881673,-1,-12,1,9,-4,-53,-5,17,2.677866453
19.883280,29,-27,-5,3,-15,100,-16,-28,2.677866453
19.883297,-30,4,8,-7,24,-31,20,11,2.677866453
19.905533,63,-2,-13,-7,-63,-13,-9,-20,2.677866453
19.905545,43,-30,-2,-2,27,29,-12,-32,2.677866453
19.905548,-69,2,3,-2,-98,-128,26,-8,2.677866453
19.905551,-53,12,3,-7,-30,-103,-37,7,2.677866453
19.917915,7,14,-2,6,106,37,39,3,2.677866453
19.917936,26,4,-2,12,83,-2,-41,-30,2.677866453
19.928311,27,11,-4,-24,-46,-53,-1,-51,2.677866453
19.928325,4,-6,-3,6,2,-4,28,-15,2.677866453
19.941887,-24,-4,7,2,58,48,24,-5,2.677866453
19.941919,20,-9,-5,-21,-34,-86,-31,16,2.677866453
19.944162,-9,-27,-4,19,-35,28,1,24,2.677866453
19.944178,-10,60,0,-23,89,23,25,12,2.677866453
19.964085,-53,-9,-3,2,-10,-28,-25,-39,2.677866453
19.964105,33,-58,1,-19,10,43,52,27,2.677866453
19.965642,-2,31,-3,11,-7,44,5,12,2.677866453
19.965681,41,13,-4,13,-25,-38,-57,-3,2.677866453
19.977885,-75,10,12,-4,-51,-14,8,27,2.677866453
19.978005,40,-61,-18,-36,86,31,-18,-3,2.677866453
19.988256,26,54,3,1,-39,48,5,-12,2.677866453
19.988263,-74,43,15,15,3,70,38,5,2.677866453
20.001730,55,-41,-12,-19,-63,-60,2,-9,2.677866453
20.001748,-69,32,-2,15,-6,21,21,-15,2.677866453
20.003069,5,-17,-2,-16,-4,-23,-25,-8,2.677866453
20.003104,55,-6,-6,-8,47,-7,-12,-10,2.677866453
20.024263,-36,-3,0,21,-76,-17,-7,41,2.677866453
20.024282,-40,18,-1,4,47,57,4,6,2.677866453
25.034031,4,-7,-2,-3,-25,-21,3,4,0.688901823
25.034051,-42,7,-3,-4,27,9,-3,-11,0.688901823
25.035453,-1,6,-1,0,-3,-7,-5,3,0.688901823
25.035496,9,-18,-2,-1,-12,6,5,5,0.688901823
25.056803,-17,20,-2,-3,-2,0,-5,-9,0.688901823
25.056835,10,-5,-1,3,2,9,-1,-2,0.688901823
25.058442,15,-14,3,0,7,9,6,6,0.688901823
25.058449,-32,42,-1,0,27,-18,-5,-7,0.688901823
25.079612,-2,6,-2,-2,2,9,4,0,0.688901823
25.079631,10,-11,-3,-5,-35,4,6,1,0.688901823
25.081046,32,-10,1,0,-33,-10,2,4,0.688901823
25.081065,-46,-2,-1,-2,-4,-12,-17,1,0.688901823
25.094383,-10,-5,-1,3,50,-21,-7,-7,0.688901823
25.094398,17,2,-2,-9,-27,44,1,6,0.688901823
25.095816,-8,2,-1,-2,4,-7,-1,-5,0.688901823
25.095834,31,-3,2,0,-22,0,3,0,0.688901823
25.116489,-11,5,0,-1,3,9,2,-2,0.688901823
25.117349,4,-8,-1,1,13,-9,-2,-1,0.688901823
25.117910,-2,8,-1,-1,-2,-1,0,1,0.688901823
25.117935,5,-14,-1,0,2,6,-1,1,0.688901823
25.140325,-1,9,3,4,15,36,3,-6,0.688901823
25.140335,-15,-17,-4,-5,-9,-38,-17,-6,0.688901823
25.140489,-8,31,-4,-6,-26,-21,7,2,0.688901823
25.140496,11,-13,-1,1,26,-5,-5,-4,0.688901823
25.155678,7,-9,-1,2,-11,-5,0,1,0.688901823
25.155695,18,7,-1,0,4,43,5,7,0.688901823
25.160410,-54,11,1,4,59,1,-7,-3,0.766510375
25.160431,3,-15,-2,-4,-12,-5,0,2,0.766510375
25.176725,11,-1,-1,-3,-27,7,4,1,0.766510375
25.176755,-4,1,-3,0,-15,-12,-5,-4,0.766510375
25.178509,27,-5,-1,2,28,13,-2,-2,0.766510375
25.178526,-6,-8,-1,-2,-4,17,8,5,0.766510375
25.200343,-13,-16,-3,-4,-4,4,-5,-3,0.766510375
25.200357,0,1,2,6,5,0,2,1,0.766510375
25.200555,9,-1,0,-6,-17,-20,4,-1,0.766510375
25.200566,6,-6,-2,-3,-15,3,-3,-3,0.766510375
25.213515,-1,-4,-3,-5,-1,-14,-1,1,0.766510375
25.213533,-8,-8,-1,-2,9,1,-1,-1,0.766510375
25.220553,-5,8,-1,5,20,7,-8,-3,0.766510375
25.220586,9,3,-1,0,29,24,12,2,0.766510375
25.237221,-14,-5,-2,-4,-27,-8,5,-1,0.766510375
25.237253,12,7,1,2,13,-5,-6,0,0.766510375
25.239414,-58,-43,-6,-5,-15,8,-4,-7,0.766510375
25.239423,20,-15,-2,0,-10,-13,-5,-3,0.766510375
25.259236,-16,0,-1,-3,-4,-6,7,-1,0.766510375
25.259265,13,6,-2,-8,-27,-7,-7,3,0.766510375
25.261650,20,-9,1,7,17,-3,-3,1,0.766510375
25.261670,0,2,1,-1,-33,9,-2,-4,0.766510375
25.273444,-4,-7,-4,2,24,-18,-3,0,0.766510375
25.274969,-10,-7,-3,-4,-3,-8,-2,-4,0.766510375
25.280202,9,2,-1,-1,4,3,0,0,0.766510375
25.280258,-15,6,0,-3,0,-4,-3,-6,0.766510375
25.296595,12,6,0,-7,-54,-3,-3,-4,0.766510375
25.296616,-7,-19,-5,-4,56,-3,-1,-5,0.766510375
25.298153,5,3,-1,-1,-9,-4,-4,-1,0.766510375
25.298180,2,-7,-2,1,15,4,2,2,0.766510375
25.319044,-4,-14,-2,0,-2,4,1,3,0.766510375
25.319065,-3,11,0,0,-21,-1,-9,-2,0.766510375
25.320613,-2,-13,-3,-5,-11,-1,-1,-10,0.766510375
25.320633,33,-13,-2,3,11,-14,-1,5,0.766510375
25.333348,-29,-4,-1,0,40,2,-3,-4,0.766510375
25.333367,-18,28,2,0,-39,-6,2,-2,0.766510375
25.340936,9,4,1,-1,-4,5,5,9,0.766510375
25.340956,-2,16,4,0,-16,-10,-5,4,0.766510375
25.356974,13,-17,-3,0,10,1,-5,-5,0.766510375
25.356987,0,8,1,0,4,-7,2,-1,0.766510375
25.358183,-1,5,-1,2,-7,-4,-1,2,0.766510375
25.358201,-3,4,-3,-5,0,-4,-1,0,0.766510375
25.379124,8,7,0,3,-2,11,-3,-2,0.766510375
25.379143,-10,-8,0,0,5,4,12,2,0.766510375
25.380690,8,9,-3,-1,0,-7,-9,-1,0.766510375
25.380703,0,-9,-2,-2,-9,-26,3,0,0.766510375
25.393559,-14,-2,0,0,-1,30,8,-5,0.766510375
25.393584,2,-30,-1,0,-7,-15,-38,-5,0.766510375
25.400225,-1,30,-2,-5,-4,-1,66,3,0.766510375
25.400242,3,14,-5,-6,-11,-2,-74,-21,0.766510375
25.416614,-13,-2,0,-3,-10,-1,7,-1,0.550578750
25.416640,29,-1,4,3,9,6,3,12,0.550578750
25.418950,-17,-15,-1,2,3,8,-3,6,0.550578750
25.418965,-13,-23,-2,1,4,4,20,4,0.550578750
25.439383,10,35,1,-4,0,-3,-5,4,0.550578750
25.439410,-4,5,1,2,3,-7,1,-1,0.550578750
25.440724,4,7,0,-1,0,-1,-13,-22,0.550578750
25.440744,4,11,0,2,-5,-1,16,8,0.550578750
25.452687,1,-13,-1,-1,-1,-7,-10,-2,0.550578750
25.452704,1,-35,-6,-2,3,3,5,-6,0.550578750
25.462825,6,-9,2,2,-8,2,-6,0,0.550578750
25.462839,-22,3,-2,-1,0,-3,6,-4,0.550578750
25.476640,5,-10,-1,-1,-2,-5,2,-3,0.550578750
25.476668,-6,15,-1,-2,1,2,2,0,0.550578750
25.478582,0,-7,-2,0,-2,-3,-10,4,0.550578750
25.478603,-7,-3,-1,-3,-23,5,0,-1,0.550578750
25.499096,10,-1,3,2,30,-6,-4,-17,0.550578750
25.499112,-3,27,-2,-2,-4,3,10,1,0.550578750
25.500530,-10,-6,-1,-2,0,-2,-19,2,0.550578750
25.500543,10,3,0,3,2,-17,0,-24,0.550578750
25.512654,7,7,-3,-4,-15,0,4,11,0.550578750
25.512666,-14,-3,-2,-3,-1,-2,3,-2,0.550578750
25.523355,16,-8,4,4,5,7,-8,4,0.550578750
25.523367,-18,27,-1,-5,-1,-1,-7,-17,0.550578750
25.536858,7,-7,-1,0,-6,-8,1,-2,0.550578750
25.536875,-2,-14,-1,1,6,8,8,11,0.550578750
25.538973,11,23,2,1,-2,-2,1,6,0.550578750
25.539011,-2,-10,1,-1,5,9,12,41,0.550578750
25.559375,-5,-20,-2,-1,-9,-12,-6,0,0.550578750
25.559391,9,8,-1,-1,-3,-1,-2,-40,0.550578750
25.560667,-7,23,-1,-4,-3,-2,15,65,0.550578750
25.560691,8,-5,1,-1,6,0,-4,-33,0.550578750
25.572761,-2,9,2,2,1,4,3,6,0.550578750
25.572786,0,-1,-3,-4,-4,-1,-1,-7,0.550578750
25.582211,7,-2,-2,-1,-3,-4,-9,20,0.550578750
25.582224,-2,-9,-1,0,3,1,7,-9,0.550578750
25.596527,34,-9,5,1,-1,-1,-1,14,0.550578750
25.596545,-28,26,-11,-5,-3,-3,-2,4,0.550578750
25.598129,-4,12,14,-1,-1,-1,-5,-22,0.550578750
25.598144,14,18,1,-2,1,4,13,99,0.550578750
25.618978,-5,-12,-4,1,-3,1,-4,-13,0.550578750
25.620946,10,-14,-5,0,0,-1,0,10,0.550578750
25.620966,1,-20,-3,-1,-4,-3,-7,-49,0.550578750
25.620973,3,17,6,2,0,-1,-2,-13,0.550578750
25.633480,-30,29,-9,-6,-3,-4,-17,-25,0.550578750
25.633505,18,-59,-13,-3,-1,0,-1,9,0.550578750
25.644493,-17,64,-16,-6,-5,-5,-6,-27,0.550578750
25.644516,-35,-35,6,1,2,-2,2,-7,0.550578750
25.665656,18,14,-5,1,0,2,2,-1,0.550578750
25.665676,1,21,3,3,1,0,0,-16,0.550578750
25.667007,14,-41,9,1,1,-1,3,12,0.550578750
25.667021,-7,3,-3,-2,-2,1,-5,-11,0.550578750
25.679106,-8,9,3,-1,-1,3,28,22,0.061185291
25.679124,-6,-7,-4,-3,-2,-3,-47,-4,0.061185291
25.681148,27,31,-39,-5,-3,-2,9,-5,0.061185291
25.681165,-26,30,14,-6,-3,-4,-5,-12,0.061185291
25.692874,-20,-45,11,5,1,0,-15,-22,0.061185291
25.692901,45,-46,10,6,1,4,24,20,0.061185291
25.703301,-4,-72,15,3,1,1,45,24,0.061185291
25.703308,-59,3,-26,-7,-2,-3,-72,-32,0.061185291
25.716925,-57,-8,-35,-12,-6,-3,27,31,0.061185291
25.716937,9,47,5,0,0,0,12,-9,0.061185291
25.718039,66,52,-6,-2,-1,2,-13,-1,0.061185291
25.718058,14,-80,2,3,1,-1,12,-3,0.061185291
25.739221,14,72,14,-1,-3,-6,0,-23,0.061185291
25.739238,-41,7,-2,0,2,-1,10,12,0.061185291
25.741414,-17,-31,0,-4,-7,-6,-23,20,0.061185291
25.741421,3,9,3,-1,-1,0,-5,-9,0.061185291
25.753081,5,-28,4,2,5,6,13,1,0.061185291
25.753117,4,16,4,-1,2,-9,36,32,0.061185291
25.762176,-26,-7,3,-1,-4,17,-59,-43,0.061185291
25.762189,21,-20,-1,-1,0,-1,8,41,0.061185291
25.778691,17,14,-6,-6,-5,-5,-12,4,0.061185291
25.778714,-23,12,5,1,-1,-2,-17,-7,0.061185291
25.778718,-85,-32,5,4,10,2,57,1,0.061185291
25.778720,55,-18,-7,-6,-13,2,-19,33,0.061185291
25.799217,10,1,-5,3,6,3,-23,37,0.061185291
25.799234,-26,25,4,-3,-2,-22,-18,-3,0.061185291
25.800592,-2,14,-3,-3,-10,-3,8,-20,0.061185291
25.802847,23,-4,-7,1,6,-21,14,-25,0.061185291
25.812712,23,-20,13,4,-1,32,7,6,0.061185291
25.812729,-21,-9,-5,-9,-6,-8,-22,4,0.061185291
25.823986,19,2,-4,5,73,21,-21,12,0.061185291
25.824005,-28,-3,-8,-2,7,4,32,-9,0.061185291
25.836442,-7,-10,10,5,-9,-1,5,-11,0.061185291
25.836475,16,17,2,4,10,-1,-19,-17,0.061185291
25.842989,60,33,-3,-7,-23,4,1,-11,0.061185291
25.843027,-5,11,1,2,0,7,12,-13,0.061185291
25.859625,-29,-4,4,0,7,-19,-15,-10,0.061185291
25.859654,7,-7,5,2,-10,18,12,-3,0.061185291
25.860906,26,-3,-16,-8,-15,-22,-4,-5,0.061185291
25.860930,-51,32,7,2,-1,-2,-6,-20,0.061185291
25.872727,21,-28,-7,-3,-13,-10,-11,-3,0.061185291
25.872755,-13,17,-4,-1,0,4,11,2,0.061185291
25.882422,-12,-21,11,2,-6,-2,-4,5,0.061185291
25.882436,10,47,-1,2,4,-5,-3,-19,0.061185291
25.896083,-4,25,-5,-6,-2,1,-4,-13,0.061185291
25.896102,-11,19,2,-2,-1,1,0,-16,0.061185291
25.903114,9,-15,-9,-1,-1,-10,-2,30,0.061185291
25.903132,12,-9,-12,-1,-7,7,10,-6,0.061185291
25.919042,-3,-20,21,4,5,-3,11,89,0.061185291
25.919059,27,-31,-3,1,0,-1,-32,-2,0.061185291
25.920519,-23,-1,3,-1,-11,-8,9,-18,0.061185291
25.920535,-14,-11,-1,-2,-1,3,10,11,0.061185291
25.941622,3,1,-15,-6,-2,-3,3,-21,-0.064092955
25.941647,-7,-23,-4,-4,-3,-5,-15,-6,-0.064092955
25.943433,-5,-13,8,1,-3,-2,-17,9,-0.064092955
25.943449,-6,5,-4,1,1,-1,12,-3,-0.064092955
25.956112,4,4,-1,0,1,-2,5,-21,-0.064092955
25.956130,28,2,13,6,-1,6,9,20,-0.064092955
25.964283,-23,-26,-22,-7,-7,-8,25,-25,-0.064092955
25.964300,29,-28,3,1,-3,-3,-18,1,-0.064092955
25.979143,-19,-11,-7,-7,-5,-5,-13,-20,-0.064092955
25.979177,-18,-8,-2,-1,0,1,15,7,-0.064092955
25.980586,-26,9,12,4,0,1,0,5,-0.064092955
25.980606,29,-25,-10,-4,-1,-2,3,8,-0.064092955
26.001604,-6,23,11,1,1,3,2,37,-0.064092955
26.001628,-3,-6,-6,-1,-3,-3,3,-7,-0.064092955
26.004072,-12,-11,-5,-1,-3,-6,-7,17,-0.064092955
26.004079,-41,8,18,3,-2,1,-1,-3,-0.064092955
26.016611,41,-1,-8,0,1,-4,-12,-32,-0.064092955
26.016636,3,1,-6,-5,-2,0,3,3,-0.064092955
26.018379,4,-15,6,2,-2,0,-2,1,-0.064092955
26.018386,-12,14,-9,-1,1,0,1,0,-0.064092955
26.040834,13,17,0,1,-2,-1,-2,-10,-0.064092955
26.040850,17,0,-12,-6,0,-4,-3,-16,-0.064092955
26.040857,-13,-38,1,1,-2,-1,-10,-9,-0.064092955
26.040900,14,21,4,1,0,-1,-2,-5,-0.064092955
26.061719,-6,-3,3,1,0,-1,1,-2,-0.064092955
26.061743,-2,-32,-3,1,-2,0,-1,-4,-0.064092955
26.063244,4,16,7,6,13,-7,13,1,-0.064092955
26.063258,3,7,4,-2,-1,9,2,3,-0.064092955
26.076041,-4,-6,-6,-3,-14,-3,-27,-13,-0.064092955
26.076126,-3,-5,-4,-4,-7,-1,0,-26,-0.064092955
26.082793,-6,15,2,1,4,-4,-1,-11,-0.064092955
26.082818,8,-15,-2,-1,0,-5,1,7,-0.064092955
26.099480,-8,0,-8,-4,4,2,6,4,-0.064092955
26.099514,-3,11,0,1,5,0,9,-9,-0.064092955
26.101987,-37,18,7,0,-6,2,-11,-21,-0.064092955
26.102006,45,6,-15,-2,1,-3,2,2,-0.064092955
26.121540,-43,-9,8,-3,-1,-3,-5,6,-0.064092955
26.121580,-16,-48,-4,2,0,-1,1,15,-0.064092955
26.123032,16,21,-1,-4,-4,-2,-1,12,-0.064092955
26.123040,-12,22,-2,-2,-2,0,-5,-5,-0.064092955
26.135820,1,11,-7,1,4,-2,6,35,-0.064092955
26.135835,8,4,2,0,0,-2,-3,6,-0.064092955
26.142972,-8,30,0,-1,-3,2,-3,-1,-0.064092955
26.142997,-1,-6,-4,-3,0,-3,-1,-7,-0.064092955
26.159345,24,-8,-5,1,-2,-1,2,-20,-0.064092955
26.159365,-17,4,-21,-4,0,1,-7,-15,-0.064092955
26.161493,21,7,-10,-5,-7,-1,-6,-1,-0.064092955
26.161510,-1,5,54,10,0,-1,2,-7,-0.064092955
26.182326,-9,-91,13,2,4,1,21,-3,-0.064092955
26.182346,-13,-15,7,0,-2,-2,-18,-9,-0.064092955
26.190107,18,20,-23,-5,-1,-2,-4,1,-0.048601096
26.190121,-6,-16,-33,-7,-5,-6,-7,-1,-0.048601096
26.196290,-59,79,10,2,1,-1,3,-29,-0.048601096
26.196301,39,39,2,-2,1,0,15,15,-0.048601096
26.205549,36,6,-9,-6,-3,-1,-2,-1,-0.048601096
26.205556,-10,-33,-1,0,-1,-3,-1,-1,-0.048601096
26.218960,6,5,-4,1,-1,2,-20,-12,-0.048601096
26.218978,-8,-11,1,0,1,0,10,18,-0.048601096
26.220498,5,2,10,1,-2,-2,-19,7,-0.048601096
26.220514,10,-2,-11,-2,-1,1,22,-2,-0.048601096
26.241862,6,0,5,-1,1,-3,-33,-3,-0.048601096
26.241902,-2,7,16,0,-1,2,14,-1,-0.048601096
26.244439,-3,-35,7,2,0,1,11,-1,-0.048601096
26.244454,-8,2,1,-1,0,-3,-10,6,-0.048601096
26.255718,7,23,-19,-4,-1,0,11,-7,-0.048601096
26.255742,4,14,-7,-1,-2,-1,-2,0,-0.048601096
26.265866,-41,-31,19,4,-1,0,1,5,-0.048601096
26.265878,37,-32,-14,-3,-5,-3,-7,9,-0.048601096
26.279122,-10,97,-13,-5,-1,-4,0,4,-0.048601096
26.279177,-15,-43,1,-1,-1,-2,-4,0,-0.048601096
26.280541,-26,4,-5,-1,-1,1,7,-7,-0.048601096
26.280557,-19,-3,-2,-1,1,0,-8,-1,-0.048601096
26.301520,14,-72,-1,-2,-2,-2,-13,-7,-0.048601096
26.302812,0,20,34,7,2,0,12,2,-0.048601096
26.303215,3,6,-9,-2,2,4,-5,-2,-0.048601096
26.303359,-3,1,1,-3,-6,-4,-11,-43,-0.048601096
26.315851,8,-15,-10,0,-1,-4,8,11,-0.048601096
26.315877,-15,-29,-19,-2,-4,-8,-23,-10,-0.048601096
26.324903,14,-3,-2,-4,-2,-1,7,-6,-0.048601096
26.324910,4,43,-1,-5,-4,-2,-3,21,-0.048601096
26.338991,-3,-48,-3,-2,-1,0,15,-17,-0.048601096
26.339005,-25,-18,-6,2,2,0,18,5,-0.048601096
26.340601,-13,12,2,0,-1,-4,-40,-5,-0.048601096
26.340706,37,16,1,-2,1,3,16,13,-0.048601096
26.361682,3,0,-2,-3,-2,-4,-23,-21,-0.048601096
26.361705,4,-8,1,0,-2,2,25,13,-0.048601096
26.363269,9,-13,-3,-1,-1,0,-8,10,-0.048601096
26.363283,-17,3,0,2,-1,-2,2,-15,-0.048601096
26.375205,7,-19,4,1,2,-1,-7,11,-0.048601096
26.375232,15,-28,-5,-3,-3,-1,-10,-2,-0.048601096
26.384074,-33,39,-7,-4,0,1,17,-12,-0.048601096
26.384089,19,-13,2,1,1,0,-20,1,-0.048601096
26.401116,18,-2,0,2,-1,1,20,43,-0.048601096
26.401129,-1,41,-5,-4,-2,-1,-16,-5,-0.048601096
26.401132,0,-19,4,2,-1,-2,8,1,-0.048601096
26.401135,-3,-17,2,0,0,1,6,7,-0.048601096
26.421887,-64,-2,1,1,-1,1,4,-12,-0.048601096
26.424321,20,21,-1,-1,-2,-2,3,-9,-0.048601096
26.424330,9,-10,0,-1,-2,-5,-11,2,-0.048601096
26.424333,-1,0,-8,-3,-1,0,-4,-5,-0.048601096
26.435575,-6,32,-10,-4,-1,0,3,-6,-0.048601096
26.435607,1,-16,24,4,4,-2,-2,-2,-0.048601096
26.445608,-16,-11,-20,-5,-1,-1,5,4,-0.064174373
26.445621,-2,-31,8,3,1,1,20,-4,-0.064174373
26.459683,18,-5,-12,-1,-2,0,-19,8,-0.064174373
26.459713,-11,-34,-13,-4,-2,-4,-18,-12,-0.064174373
26.462181,-4,13,13,4,1,-2,19,-10,-0.064174373
26.462196,-4,12,-15,-6,-1,-3,-16,-3,-0.064174373
26.481736,20,27,0,0,-3,0,13,2,-0.064174373
26.481755,-11,-1,-1,-1,2,2,9,11,-0.064174373
26.483166,48,-8,-4,-1,-2,-1,-5,-5,-0.064174373
26.483184,-14,-4,0,-1,-1,-4,0,-19,-0.064174373
26.495325,13,-9,12,2,1,0,-7,-7,-0.064174373
26.495397,-39,19,-4,-2,-2,-1,11,10,-0.064174373
26.505265,-7,-17,-1,-1,-2,-2,-6,-7,-0.064174373
26.505272,-9,44,2,-2,-1,-2,-15,0,-0.064174373
26.519047,11,-51,10,-2,1,-1,-2,-9,-0.064174373
26.519072,17,43,-17,-4,-2,-1,-29,-4,-0.064174373
26.520971,-6,-42,44,4,2,0,-3,-3,-0.064174373
26.520978,-4,-12,2,3,3,7,35,57,-0.064174373
26.541685,10,22,-6,-5,0,-2,2,-1,-0.064174373
26.541729,12,-11,-15,-3,-1,-1,-12,-13,-0.064174373
26.543196,0,18,-11,-3,-2,0,-24,8,-0.064174373
26.543267,12,15,-1,-1,-1,0,50,-5,-0.064174373
26.556974,-5,-12,-2,-2,-4,-10,-40,-10,-0.064174373
26.556988,0,0,1,-1,-3,-3,-22,6,-0.064174373
26.564432,6,12,-5,0,-1,-4,11,-7,-0.064174373
26.564443,-15,-8,1,-1,0,4,39,-8,-0.064174373
26.579174,-3,0,-8,-3,2,3,-36,-2,-0.064174373
26.579192,0,31,4,-3,0,-2,10,-9,-0.064174373
26.580550,-4,-17,-17,-3,-1,-1,-4,-4,-0.064174373
26.580564,-10,39,10,1,0,-3,-21,12,-0.064174373
26.604019,-4,-63,39,5,-2,0,22,-10,-0.064174373
26.604028,1,-22,-4,5,1,1,-6,9,-0.064174373
26.604032,7,12,-2,0,-2,1,8,4,-0.064174373
26.604035,-2,71,-24,-7,-2,-5,-19,-6,-0.064174373
26.624793,-5,-50,8,5,0,1,7,-2,-0.064174373
26.624820,-14,-17,2,-2,0,-2,6,-2,-0.064174373
26.627203,-6,8,-12,-1,-2,-1,10,0,-0.064174373
26.627221,-33,-14,-5,0,-1,-2,-31,-12,-0.064174373
26.639465,8,51,-9,-3,0,0,-6,1,-0.064174373
26.639486,-3,-18,8,2,0,4,41,7,-0.064174373
26.640611,6,16,-8,-2,-2,-3,-21,-2,-0.064174373
26.641899,0,-15,13,1,-1,-3,-23,-21,-0.064174373
26.661656,-9,6,-8,-3,-3,-2,-3,-2,-0.064174373
26.661677,0,-17,-11,-3,-2,-3,-4,-16,-0.064174373
26.663323,1,11,12,1,0,4,31,47,-0.064174373
26.663334,12,-20,11,4,2,6,24,33,-0.064174373
26.675638,5,11,-11,-1,2,-1,14,-5,-0.064174373
26.675675,-32,1,0,-2,-2,-1,-7,-14,-0.064174373
26.685617,18,30,-23,-6,-1,-2,-18,-30,-0.064174373
26.685624,-6,-64,22,1,-2,-3,-15,-8,-0.064174373
26.699589,1,13,-9,0,0,1,17,12,-0.064328161
26.699622,-12,16,-2,-3,-3,-2,-14,1,-0.064328161
26.700537,2,-11,12,5,2,2,1,3,-0.064328161
26.700559,-25,-51,-18,-5,-3,-2,-10,-11,-0.064328161
26.721891,45,34,-5,-4,-2,0,5,0,-0.064328161
26.721936,7,7,-2,-1,-2,-1,-1,4,-0.064328161
26.724646,-10,-19,1,-3,0,-2,1,-4,-0.064328161
26.724653,23,17,8,3,1,0,-3,-5,-0.064328161
26.735236,-4,5,-1,-2,-2,-2,-4,-6,-0.064328161
26.735260,-43,8,1,1,-1,2,7,47,-0.064328161
26.744969,62,-38,-7,-3,-1,-2,4,-6,-0.064328161
26.744999,14,12,-11,-7,-5,-5,-18,-10,-0.064328161
26.761011,-23,-4,-7,0,1,-1,4,8,-0.064328161
26.761029,13,8,0,-2,-2,-1,-2,-8,-0.064328161
26.761033,-16,12,19,4,-1,1,-4,22,-0.064328161
26.761035,-11,-12,-4,-2,-1,-3,5,-6,-0.064328161
26.781754,3,3,-5,-2,-1,-1,1,-25,-0.064328161
26.781773,-16,31,-2,1,2,0,8,29,-0.064328161
26.783136,6,16,-4,-1,-1,-3,-5,-12,-0.064328161
26.783161,4,-10,-6,-2,0,0,-4,26,-0.064328161
26.795299,-12,5,-2,-1,1,-2,5,-7,-0.064328161
26.795320,53,-17,-4,-4,-3,-4,-16,-62,-0.064328161
26.806375,-13,1,6,1,1,-1,3,3,-0.064328161
26.806386,8,-14,-4,1,1,0,-1,6,-0.064328161
26.819275,-14,57,-4,-6,-4,-2,2,-9,-0.064328161
26.819301,-22,-62,21,7,2,1,-1,1,-0.064328161
26.821766,-41,8,-3,-1,-1,-1,0,-4,-0.064328161
26.821779,13,1,18,2,0,1,-1,-7,-0.064328161
26.841997,-31,9,3,0,-1,1,1,10,-0.064328161
26.842023,16,15,-12,-3,-2,-3,-5,-5,-0.064328161
26.845058,-74,-54,-6,-1,-1,-1,1,-4,-0.064328161
26.845077,-51,25,-6,-3,-3,-1,-2,-4,-0.064328161
26.864020,-25,-74,-11,-3,-3,-4,0,0,-0.064328161
26.864040,43,27,-1,-1,-1,1,0,5,-0.064328161
26.866053,4,2,5,1,1,1,3,24,-0.064328161
26.866066,10,15,0,0,-1,-1,-3,-6,-0.064328161
26.879089,1,12,10,1,1,1,0,-3,-0.064328161
26.879108,-6,-22,-4,-3,-4,-4,-11,-67,-0.064328161
26.880943,15,7,6,1,-1,-3,-3,-17,-0.064328161
26.880960,-10,-27,-8,-3,-2,-2,-3,-24,-0.064328161
26.901489,27,21,1,-1,0,-1,-1,-9,-0.064328161
26.901503,8,-12,0,-2,1,0,-3,-17,-0.064328161
26.903096,33,-13,-7,-1,1,0,1,-6,-0.064328161
26.903135,4,5,3,0,0,-1,-1,3,-0.064328161
26.924141,-16,14,-2,0,0,-1,-2,-4,-0.064328161
26.924165,12,8,0,0,-2,0,1,22,-0.064328161
26.925739,-18,-5,-1,-3,-1,0,2,-3,-0.064328161
26.925761,10,7,-4,1,-1,1,2,10,-0.064328161
26.939114,15,0,3,-1,-1,-1,0,4,-0.064328161
26.939136,6,-2,0,1,0,2,6,53,-0.064328161
26.940645,-43,1,-13,-5,-4,-1,-1,1,-0.064328161
26.940667,-4,-25,1,-3,-1,-3,-13,-53,-0.064328161
26.961623,43,-12,9,2,0,0,-1,0,-0.064310065
26.961648,-25,39,11,0,0,1,0,1,-0.064310065
26.963280,-2,7,-4,2,0,1,8,64,-0.064310065
26.963307,-3,-34,-15,-3,-1,-2,-1,-10,-0.064310065
26.984063,15,-5,-10,-2,-3,-1,-3,2,-0.064310065
26.984089,27,16,-6,-2,-1,-1,2,15,-0.064310065
26.985563,25,2,-1,1,-2,0,-7,9,-0.064310065
26.985578,-48,-12,1,-1,1,1,2,0,-0.064310065
26.999029,6,7,3,0,-2,-2,-1,26,-0.064310065
26.999122,2,-1,0,0,-1,0,6,-20,-0.064310065
27.000524,-35,4,3,-3,-3,0,-2,-21,-0.064310065
27.000557,13,-17,-2,-1,0,-1,3,20,-0.064310065
27.022469,-27,30,-4,-3,-5,-10,-4,-12,-0.064310065
27.022494,1,-4,-9,-5,-1,-2,-2,-2,-0.064310065
27.024494,13,-2,3,-2,0,3,-2,-14,-0.064310065
27.024502,19,27,4,0,-1,-3,-5,-38,-0.064310065
27.044183,-5,-20,-6,-1,0,4,7,9,-0.064310065
27.044212,-5,17,4,3,1,-1,-3,-6,-0.064310065
27.045676,-8,-12,-3,-5,-2,-7,-5,-21,-0.064310065
27.045734,-7,17,-3,0,-3,3,1,6,-0.064310065
27.058719,-3,-12,-1,-1,0,-1,1,41,-0.064310065
27.058731,14,6,-5,-4,-3,-2,-1,-4,-0.064310065
27.065280,23,-11,0,0,0,-2,-6,-18,-0.064310065
27.065305,18,25,1,0,-1,1,1,22,-0.064310065
27.082323,-73,-45,-3,0,1,1,3,-13,-0.064310065
27.082348,-3,-5,0,-1,0,9,-1,10,-0.064310065
27.084425,17,1,-1,-5,-4,-23,-1,-7,-0.064310065
27.084436,3,-28,1,4,0,1,-1,-1,-0.064310065
27.104201,11,22,-1,-3,-2,-2,-1,-7,-0.064310065
27.104253,-9,-9,-3,0,-1,-1,-3,-6,-0.064310065
27.105494,12,20,-1,0,0,5,2,-12,-0.064310065
27.105516,31,13,4,-1,0,-2,-5,13,-0.064310065
27.118382,-48,-10,-1,0,-1,0,13,29,-0.064310065
27.118397,-2,-46,-9,-4,-4,-5,-10,-17,-0.064310065
27.125631,-19,-9,-1,-1,0,1,-1,-17,-0.064310065
27.125666,0,9,-2,-1,0,-3,4,35,-0.064310065
27.142453,35,5,2,0,-1,2,-7,-17,-0.064310065
27.142485,-32,-16,-1,-1,0,-2,3,-6,-0.064310065
27.145150,-8,-2,2,3,1,12,6,4,-0.064310065
27.145166,7,9,-2,-2,-4,-19,-15,-20,-0.064310065
27.164019,28,3,0,-2,1,-1,1,-61,-0.064310065
27.164032,-1,12,-1,-2,0,-8,7,29,-0.064310065
27.165704,13,-2,1,-1,-2,1,-11,-13,-0.064310065
27.165726,-6,-2,-3,-1,0,-1,3,11,-0.064310065
27.179300,-17,-22,-3,0,3,21,-2,-14,-0.064310065
27.179313,15,27,1,-2,-9,-64,-22,5,-0.064310065
27.185283,10,-30,-3,0,1,6,3,36,-0.064310065
27.185309,59,20,9,1,0,-2,3,4,-0.064310065
27.201458,-72,-14,-11,-4,-1,-3,-7,-6,-0.064310065
27.201476,18,22,-6,-1,0,24,1,-12,-0.064310065
27.202982,-7,0,0,-3,-2,-6,4,-6,-0.064310065
27.203018,-4,-20,-2,-2,-3,5,-9,-2,-0.064310065
27.224467,19,21,6,3,2,2,1,17,-0.047913574
27.224504,-27,49,1,-2,0,6,0,-1,-0.047913574
27.226795,11,-5,-3,-1,0,-2,-1,-4,-0.047913574
27.226815,-3,22,-4,-1,4,2,5,-5,-0.047913574
27.238903,7,-13,1,-2,-4,1,2,-3,-0.047913574
27.238936,-1,-19,-1,1,22,2,-5,7,-0.047913574
27.245173,10,3,1,1,-14,4,-7,-8,-0.047913574
27.245192,-13,2,-2,-2,-4,-17,0,-13,-0.047913574
27.261774,7,-9,0,1,-3,-8,2,-7,-0.047913574
27.261793,15,4,0,-2,-2,8,4,16,-0.047913574
27.263121,-26,-1,1,0,4,3,6,1,-0.047913574
27.263139,-27,-9,-3,-2,1,3,-7,7,-0.047913574
27.284169,23,-13,2,-2,-2,-8,-7,-16,-0.047913574
27.284188,4,-6,-4,-2,-8,8,4,-7,-0.047913574
27.285444,0,3,1,-1,1,-7,0,4,-0.047913574
27.285470,-10,9,-6,-3,-6,2,6,-1,-0.047913574
27.298606,11,-14,0,-1,3,-2,-4,18,-0.047913574
27.298640,-8,25,2,2,-1,4,5,-9,-0.047913574
27.305271,5,0,-1,-3,-2,-2,-4,-8,-0.047913574
27.305292,-10,-14,0,1,3,3,-4,-7,-0.047913574
27.322098,10,17,-1,0,-2,3,1,9,-0.047913574
27.322111,1,-19,-1,-1,-5,-3,2,3,-0.047913574
27.327914,-1,16,0,-1,1,3,-3,-31,-0.047913574
27.327937,-12,-27,-1,-1,-1,6,1,57,-0.047913574
27.344160,7,25,-1,-1,-1,-6,-4,12,-0.047913574
27.344206,-9,-25,-2,0,-2,6,10,1,-0.047913574
27.345971,5,-8,1,1,17,-6,4,-33,-0.047913574
27.346043,-1,37,-1,-2,-10,-2,-30,-18,-0.047913574
27.357913,9,-12,-1,1,5,-6,-8,-20,-0.047913574
27.357934,-28,-18,-1,-2,-3,4,1,-9,-0.047913574
27.366989,1,7,-3,-2,3,0,4,9,-0.047913574
27.367000,4,-2,-1,2,2,-6,8,-1,-0.047913574
27.383795,-5,9,-1,-3,-5,0,5,1,-0.047913574
27.383806,10,-10,-1,1,-22,-2,-12,-12,-0.047913574
27.383809,-5,4,-2,0,30,-4,-1,11,-0.047913574
27.383812,-5,-8,0,-4,-23,6,7,-8,-0.047913574
27.404375,1,2,1,-1,3,-3,-6,8,-0.047913574
27.404401,2,-27,-1,0,-16,-6,6,0,-0.047913574
27.406625,-5,-9,-1,0,-7,2,-7,7,-0.047913574
27.406633,4,6,-3,0,9,19,8,-9,-0.047913574
27.417635,4,-2,0,1,-5,-10,-3,-7,-0.047913574
27.417652,0,15,1,-2,3,-3,-1,-1,-0.047913574
27.428700,19,1,-3,0,-9,0,-3,6,-0.047913574
27.428716,-5,-19,-1,-1,8,2,0,-12,-0.047913574
27.442112,-4,29,-1,-1,-5,0,2,7,-0.047913574
27.442159,-1,7,-3,-2,10,2,4,38,-0.047913574
27.444938,15,-8,-1,-3,-4,-1,-2,7,-0.047913574
27.444960,-10,-9,-1,-3,-6,-7,5,-4,-0.047913574
27.464047,7,22,-4,0,1,1,-1,6,0.050402053
27.464064,-2,-71,20,5,9,14,11,82,0.050402053
27.465686,-11,7,6,1,-8,-21,-12,-1,0.050402053
27.465710,1,1,0,-1,-8,-10,-2,6,0.050402053
27.477742,-8,-16,2,-4,5,9,-2,-12,0.050402053
27.477762,4,11,-11,-4,1,-3,-4,-31,0.050402053
27.488691,3,25,-1,0,-9,4,3,3,0.050402053
27.488697,-15,-23,-2,-3,6,-5,-1,-23,0.050402053
27.502257,12,0,-1,0,-1,-6,1,29,0.050402053
27.502291,-3,14,-3,1,2,2,-5,-9,0.050402053
27.504733,-1,-9,-4,-2,-6,1,1,-6,0.050402053
27.504798,24,-27,-5,-2,-3,-18,-3,-18,0.050402053
27.524141,-19,-5,-1,-3,-4,-1,-2,-8,0.050402053
27.524150,-10,-21,-3,-1,-3,-1,-2,-17,0.050402053
27.525734,9,-36,-4,1,-3,-3,0,5,0.050402053
27.525761,9,5,-2,-3,5,7,-1,1,0.050402053
27.539751,20,23,-12,-5,-6,-2,3,-5,0.050402053
27.539768,-18,-21,-2,0,8,-2,-2,-3,0.050402053
27.547797,53,12,27,4,-3,4,-5,-14,0.050402053
27.547838,-68,3,4,11,3,0,-1,-1,0.050402053
27.561772,-3,2,10,6,2,0,-1,-9,0.050402053
27.563491,-31,12,-9,-2,-2,0,-4,-23,0.050402053
27.563504,1,-6,-13,-9,9,-3,1,7,0.050402053
27.563507,-17,8,0,-7,-18,10,2,0,0.050402053
27.586201,16,-12,-5,-2,-1,-7,-1,-4,0.050402053
27.586214,24,29,-4,-6,-3,0,-4,-62,0.050402053
27.586217,-8,-9,-1,-1,-6,-15,-6,-23,0.050402053
27.586220,-4,5,0,-3,12,19,6,-5,0.050402053
27.598147,-15,-17,-7,-2,-2,5,1,-6,0.050402053
27.598173,11,5,4,-2,-5,-5,-4,-59,0.050402053
27.608306,11,-1,-2,-2,-13,20,-2,26,0.050402053
27.608313,-4,20,-3,0,46,-10,-7,-13,0.050402053
27.621987,-5,-23,1,-2,-12,-2,4,-9,0.050402053
27.622020,16,0,4,2,0,-3,3,4,0.050402053
27.623314,-17,18,-6,0,1,-5,-2,-7,0.050402053
27.623319,-2,0,1,1,10,40,5,23,0.050402053
27.644188,8,-10,0,-1,-14,-49,5,48,0.050402053
27.644210,0,2,0,0,4,-14,-6,14,0.050402053
27.646612,-19,-8,-4,0,-1,22,7,20,0.050402053
27.646627,19,14,-1,-4,-13,-8,-1,3,0.050402053
27.657903,-24,-25,4,3,9,4,-7,-14,0.050402053
27.657921,21,-6,-11,-3,-5,6,8,77,0.050402053
27.668535,8,2,-4,-1,-5,-12,2,-2,0.050402053
27.668542,-1,0,-1,-1,-7,-5,-3,-16,0.050402053
27.681538,7,8,3,-1,4,11,-3,-16,0.050402053
27.681560,-2,1,0,0,-9,-12,-6,-7,0.050402053
27.683085,-17,12,-3,-1,3,4,-2,-3,0.050402053
27.683104,26,-11,5,1,-5,-15,0,20,0.050402053
27.704337,-5,20,-5,-3,-4,7,-2,-8,0.050402053
27.704370,-5,6,2,-1,4,3,-3,-7,0.050402053
27.706039,14,11,-15,-3,0,-9,4,4,0.050402053
27.706046,-17,8,-12,-6,-7,-3,-3,-5,0.050402053
27.717695,-25,-49,29,4,3,5,-3,-3,0.050402053
27.717714,1,5,-1,-2,6,3,-10,-11,0.050402053
27.726872,-5,0,2,-1,-1,-3,1,-36,0.057702452
27.726889,2,19,-22,-3,-9,-14,-1,6,0.057702452
27.742611,23,3,-9,1,-6,9,-1,-7,0.057702452
27.742626,22,-19,14,3,2,7,3,-27,0.057702452
27.743201,-17,-10,-4,-2,-21,-36,-6,0,0.057702452
27.743230,-7,6,4,-1,5,7,-4,-5,0.057702452
27.764168,1,28,-8,-6,17,-6,1,-4,0.057702452
27.764195,-16,21,1,-2,-2,1,-5,-8,0.057702452
27.765986,4,-40,-7,-2,-2,9,-1,8,0.057702452
27.765999,-4,10,7,3,-5,3,3,1,0.057702452
27.777796,9,-7,-4,-1,-4,-6,-4,-4,0.057702452
27.777824,7,-8,-6,-2,-4,-5,3,9,0.057702452
27.788660,-38,3,4,0,11,9,2,-7,0.057702452
27.788667,25,-2,9,1,-9,-13,-4,51,0.057702452
27.801717,-2,-4,-5,1,0,11,5,23,0.057702452
27.801751,-8,0,-27,-5,-4,-3,-3,-4,0.057702452
27.804065,-3,10,40,6,4,5,0,2,0.057702452
27.804083,2,-24,1,1,-2,-4,-4,-37,0.057702452
27.824414,11,-1,-3,1,1,-4,1,-36,0.057702452
27.824433,-18,15,-5,-1,-4,6,3,19,0.057702452
27.825685,9,-2,-16,-3,0,-3,0,12,0.057702452
27.825712,9,10,-2,-1,-31,-7,-6,-8,0.057702452
27.847183,-7,3,-4,-2,13,10,1,-3,0.057702452
27.847203,-2,1,2,1,-3,-9,-5,-9,0.057702452
27.848804,13,-5,-6,-1,3,-4,1,23,0.057702452
27.848817,7,-11,5,0,-1,-3,-1,-6,0.057702452
27.861706,21,8,-3,-1,-9,0,-3,-2,0.057702452
27.861726,-6,-16,2,1,-7,-3,-1,-7,0.057702452
27.863456,-6,23,0,-1,2,10,1,1,0.057702452
27.863467,-34,-17,-2,-1,10,-10,-3,2,0.057702452
27.883986,7,5,-2,-4,-7,15,-4,13,0.057702452
27.884000,19,17,2,0,3,2,3,1,0.057702452
27.885516,32,-28,3,1,2,-2,-3,-11,0.057702452
27.885532,7,33,-5,-3,2,-1,3,22,0.057702452
27.907212,-51,-40,-3,-2,1,-5,-4,-10,0.057702452
27.907244,11,36,3,0,-1,-4,2,7,0.057702452
27.909741,-51,-50,-3,-1,-20,6,-10,0,0.057702452
27.909759,26,-24,-3,-3,-19,-5,-2,-13,0.057702452
27.921897,7,15,5,0,40,-3,-3,2,0.057702452
27.921930,41,3,-4,0,0,1,1,6,0.057702452
27.923708,-2,-5,-9,-1,5,-2,9,28,0.057702452
27.923714,2,1,17,2,-11,1,-1,-23,0.057702452
27.945206,-11,-3,-5,-3,14,9,7,-52,0.057702452
27.945234,-10,-2,8,3,-10,-14,-10,23,0.057702452
27.945685,-2,19,-10,-2,9,1,-3,-17,0.057702452
27.945698,-3,-9,-4,-1,5,0,2,-10,0.057702452
27.966483,7,11,-2,-2,-19,-11,-5,0,0.057702452
27.966501,-26,-19,-1,-4,9,7,-6,-10,0.057702452
27.967978,4,10,1,-1,-7,-3,0,-14,0.057702452
27.968012,-7,3,-2,0,1,-2,-2,24,0.057702452
27.980926,-2,-4,-11,-2,-8,2,1,7,-0.006562751
27.980953,2,-26,21,3,2,1,8,45,-0.006562751
27.988253,-20,2,-7,-5,-9,-6,-5,-21,-0.006562751
27.988290,-9,-3,5,1,12,3,0,-11,-0.006562751
28.006615,4,-7,-2,0,-8,-7,-4,7,-0.006562751
28.006624,-6,7,-7,0,0,1,-3,-14,-0.006562751
28.006627,29,9,0,-1,2,-4,4,-4,-0.006562751
28.006630,-11,-5,-4,-2,1,-2,-2,6,-0.006562751
28.026997,-7,7,-2,-1,-4,-1,-2,12,-0.006562751
28.027026,-3,-13,-3,-2,-5,0,1,-13,-0.006562751
28.028786,0,2,5,0,3,5,1,3,-0.006562751
28.028798,-20,20,-7,0,2,-1,0,-4,-0.006562751
28.041016,27,-10,-2,-2,-10,-4,-4,9,-0.006562751
28.041033,-20,24,-1,-4,3,-2,-2,-12,-0.006562751
28.048122,-19,-32,-2,0,3,-2,-1,2,-0.006562751
28.048206,11,-24,-5,-1,4,0,1,3,-0.006562751
28.064127,-15,10,14,0,-5,-2,-3,0,-0.006562751
28.064157,6,-33,-3,1,3,-1,2,-2,-0.006562751
28.066064,-1,74,-2,-4,-3,-3,-3,-2,-0.006562751
28.066083,-6,-21,-3,-1,0,1,-1,-5,-0.006562751
28.086785,13,3,0,0,-4,1,0,8,-0.006562751
28.086830,21,-10,-6,-3,-2,-2,-6,-30,-0.006562751
28.088406,19,38,-29,-4,-2,0,2,21,-0.006562751
28.088431,7,96,55,7,4,1,-4,-15,-0.006562751
28.100874,33,-72,26,6,-2,0,2,-10,-0.006562751
28.100935,71,-39,-23,-3,-1,0,0,-12,-0.006562751
28.107810,50,-20,-2,-3,-3,0,11,40,-0.006562751
28.107825,83,64,-14,3,3,1,10,19,-0.006562751
28.124183,-103,-89,-7,-3,-4,-3,-6,-57,-0.006562751
28.124201,-20,-2,10,-3,-2,-3,-1,9,-0.006562751
28.125860,16,2,-6,-3,1,0,-4,-27,-0.006562751
28.125882,21,-3,-22,-8,-2,-4,2,4,-0.006562751
28.146555,-12,81,0,4,0,3,9,41,-0.006562751
28.146570,-36,-88,-1,-5,-6,-6,-17,-63,-0.006562751
28.147951,-12,11,0,-2,0,-1,-3,-9,-0.006562751
28.147966,-46,-20,6,-1,-2,-1,-5,-13,-0.006562751
28.161888,53,-21,-12,-1,0,-2,-3,16,-0.006562751
28.161906,-25,61,-14,-2,2,3,5,19,-0.006562751
28.167734,-45,-10,29,1,-4,-6,-9,-10,-0.006562751
28.167752,3,-57,-1,0,2,2,0,3,-0.006562751
28.183959,-9,35,-20,-5,-4,-2,-3,-2,-0.006562751
28.183977,39,-32,0,4,2,3,8,25,-0.006562751
28.185817,36,13,-16,-5,-3,-1,0,-16,-0.006562751
28.185822,3,-84,-4,0,-1,1,5,63,-0.006562751
28.209731,43,71,-12,-3,-1,-1,5,-3,-0.006562751
28.209749,-87,-57,19,-9,-8,-10,-12,-39,-0.006562751
28.209753,63,-70,23,11,6,5,12,50,-0.006562751
28.209755,-16,27,-38,-13,-7,-9,-12,-17,-0.006562751
28.220681,66,-19,-3,-2,-2,2,2,23,-0.006562751
28.220715,-65,75,23,13,6,7,10,21,-0.006562751
28.230573,93,82,-31,-11,-5,-8,-14,-12,-0.064332683
28.230581,-23,-5,10,4,2,1,4,-38,-0.064332683
28.244223,-36,17,11,1,-4,-4,-7,-4,-0.064332683
28.244248,8,-9,-1,3,-1,2,1,14,-0.064332683
28.245903,-43,25,10,3,3,2,5,41,-0.064332683
28.245921,-64,12,-6,-2,-1,-3,-5,-28,-0.064332683
28.266643,31,50,-6,-8,-3,-3,-7,-21,-0.064332683
28.266662,-67,0,-12,-4,1,2,6,34,-0.064332683
28.267973,27,-78,5,-1,-2,-1,-1,-2,-0.064332683
28.267983,113,47,-3,0,-1,-4,-12,43,-0.064332683
28.280310,30,-128,9,0,-2,1,1,-3,-0.064332683
28.280328,57,70,-12,-9,-5,-8,-28,-71,-0.064332683
28.290839,-66,8,11,5,1,0,0,0,-0.064332683
28.290845,44,-77,3,4,1,2,1,-17,-0.064332683
28.303927,-54,-23,11,4,-1,-4,-8,-63,-0.064332683
28.303938,-14,82,-43,-15,-7,-7,-13,69,-0.064332683
28.305448,-65,-70,11,7,3,2,2,-12,-0.064332683
28.305457,94,33,-14,-5,-3,-2,-10,-14,-0.064332683
28.326959,-80,67,-5,0,1,-1,-10,5,-0.064332683
28.326994,46,-13,25,4,2,2,10,-14,-0.064332683
28.329242,-51,1,-20,-6,-2,-3,-12,-52,-0.064332683
28.329261,-24,-23,-17,-2,-2,-1,4,11,-0.064332683
28.341662,40,-12,16,3,1,-1,4,6,-0.064332683
28.341680,-6,25,-5,1,2,2,0,-16,-0.064332683
28.350765,51,54,-2,-5,-3,-2,-2,8,-0.064332683
