timestamp,emg1,emg2,emg3,emg4,emg5,emg6,emg7,emg8,label
0.512788,-11,50,1,-1,1,-2,-12,-17,-0.064472901
0.512938,-4,-78,-7,-5,3,1,-9,-16,-0.064472901
0.512947,11,58,7,1,-8,-3,14,16,-0.064472901
0.512955,3,-81,-13,-2,-2,-4,-2,-4,-0.064472901
0.512963,-11,26,-3,-2,4,-1,-9,-12,-0.064472901
0.512970,0,31,5,3,-3,2,7,10,-0.064472901
0.512978,6,9,-2,0,-2,-2,-2,-1,-0.064472901
0.512986,-21,-27,4,-5,1,1,-6,-7,-0.064472901
0.512993,-7,-103,-3,-2,-1,3,6,4,-0.064472901
0.513001,-29,-3,-5,3,-7,-5,8,11,-0.064472901
0.513009,-17,-42,-6,-3,4,-1,-9,-16,-0.064472901
0.513017,13,66,3,1,2,2,-3,0,-0.064472901
0.513024,26,-11,3,1,-5,-4,6,11,-0.064472901
0.513032,11,57,-1,0,0,-3,-6,-9,-0.064472901
0.513040,-23,-76,-6,-4,1,2,-6,-6,-0.064472901
0.513047,3,26,1,0,-1,-1,4,6,-0.064472901
0.513055,-14,32,0,1,-3,1,-1,-1,-0.064472901
0.513062,9,8,-4,-4,2,-1,-7,-11,-0.064472901
0.513070,-16,-22,-3,-2,-2,0,0,-1,-0.064472901
0.513078,16,25,7,1,-1,-1,2,-2,-0.064472901
0.513086,-45,-84,-10,-2,-9,0,20,26,-0.064472901
0.513094,9,38,2,-1,-3,-3,2,1,-0.064472901
0.513101,-17,-3,-1,-4,4,1,-13,-17,-0.064472901
0.513109,-3,-51,1,0,0,3,7,9,-0.064472901
0.513117,18,36,9,7,-5,-3,2,3,-0.064472901
0.513124,-9,-14,-6,-5,1,2,-9,-14,-0.064472901
0.513132,-3,34,-2,1,1,-1,0,4,-0.064472901
0.513139,1,-66,-1,-1,-9,-3,11,13,-0.064472901
0.513148,19,11,-2,-6,2,0,-13,-12,-0.064472901
0.513155,-13,0,2,1,1,1,-4,0,-0.064472901
0.513163,25,6,0,0,-5,-1,9,7,-0.064472901
0.513171,5,17,-2,1,2,-2,-5,-3,-0.064472901
0.513179,13,11,-3,-3,4,-1,-8,-9,-0.064472901
0.513187,0,-17,2,0,-3,-2,3,11,-0.064472901
0.513194,3,24,4,-2,-2,-1,4,5,-0.064472901
0.513202,-1,21,-3,-3,1,0,-10,-15,-0.064472901
0.513210,-6,-12,-1,-4,-1,1,-2,-2,-0.064472901
0.513217,21,113,18,6,1,1,5,8,-0.064472901
0.513224,4,-21,-14,-2,-1,-1,-10,-12,-0.064472901
0.513232,-50,-47,-6,-4,-3,-3,8,11,-0.064472901
0.513240,1,40,-15,-6,-4,1,4,6,-0.064472901
0.513247,14,22,3,1,1,1,-3,-4,-0.064472901
0.513255,-14,-19,1,-1,0,-2,-4,0,-0.064472901
0.513262,13,42,2,2,-3,-2,-4,-2,-0.064472901
0.513270,0,-3,2,0,1,-2,-2,0,-0.064472901
0.513277,-15,-61,-11,-4,-2,-2,0,-4,-0.064472901
0.513285,9,7,0,-2,-1,-1,3,2,-0.064472901
0.513292,8,20,-1,-2,-3,-1,-3,-1,-0.064472901
0.513300,-7,-2,2,2,0,-1,-1,-6,-0.064472901
0.513308,-1,-16,-5,-2,-2,-1,-3,-5,-0.064472901
0.513315,17,-9,9,2,0,-3,0,3,-0.064472901
0.513323,31,-31,-1,-3,-2,1,0,1,-0.064472901
0.513331,-29,-56,-6,-3,-1,-3,-6,-11,-0.064472901
0.513338,10,43,-3,-1,0,-2,-2,3,-0.064472901
0.513346,-32,1,-2,-1,-3,-3,-1,-6,-0.064472901
0.513353,4,12,-3,-2,1,1,-4,-6,-0.064472901
0.513361,10,30,4,0,0,1,2,-1,-0.064472901
0.513369,-1,-14,-5,-2,-4,2,1,4,-0.064472901
0.513376,-5,21,0,0,-2,-1,-2,-2,-0.064472901
0.513383,-5,22,-2,-1,-1,-1,-2,-5,-0.064472901
0.513392,0,12,1,-1,0,-3,-1,1,-0.064472901
0.513399,-13,-3,1,3,-3,-3,-1,-3,-0.064472901
0.513406,25,-92,-8,0,-1,-3,2,4,-0.064472901
0.513414,-6,53,2,-2,-1,-4,1,0,-0.064472901
0.513422,52,36,2,0,3,2,-1,-3,-0.064472901
0.513429,-11,0,-9,-3,1,-3,-5,-8,-0.064472901
0.513436,3,-45,1,0,-4,1,2,2,-0.064472901
0.513444,-2,7,-3,0,-1,0,0,2,-0.064472901
0.513452,8,29,6,-2,-1,-4,-5,-4,-0.064472901
0.513459,-3,0,-5,-2,1,0,2,5,-0.064472901
0.513467,-27,-22,-2,-2,-3,1,4,4,-0.064472901
0.513474,-15,57,0,-2,-2,-2,-3,-5,-0.064472901
0.513747,-7,-84,1,1,-2,-2,-1,2,-0.064472901
0.513767,0,-21,2,-1,0,-1,3,4,-0.064472901
0.526168,-7,6,-4,-3,0,2,-7,-4,-0.064472901
0.526200,5,-4,1,2,1,-1,-2,-4,-0.064472901
0.534762,-12,28,2,-4,0,1,2,5,-0.064472901
0.534793,-17,-15,0,-2,-1,-3,1,0,-0.064472901
0.549553,11,31,0,0,0,-1,-2,0,-0.064472901
0.549562,-54,29,-1,0,-1,1,2,2,-0.064472901
0.551068,-14,-36,-5,-1,-6,-2,0,4,-0.064472901
0.551083,40,-44,1,0,2,0,-4,-4,-0.064472901
0.572248,-2,38,2,-3,0,1,1,-6,-0.064472901
0.572275,4,-25,-1,1,1,-2,-1,-1,-0.064472901
0.573531,-5,12,-2,-1,-1,-2,1,0,-0.064472901
0.573601,-6,0,1,-3,-1,-2,-3,-2,-0.064472901
0.586323,-2,13,3,2,-2,0,0,1,-0.064472901
0.588184,9,-70,-2,-2,-2,0,-1,-1,-0.064472901
0.596001,10,63,1,2,-2,2,1,-1,-0.064472901
0.596007,0,18,-2,-1,-2,-1,-2,-12,-0.064472901
0.609761,-18,33,-3,-1,1,-2,-2,-1,-0.064472901
0.609828,1,23,4,3,0,0,2,2,-0.064472901
0.611172,-2,32,-2,-2,0,0,-2,-2,-0.064472901
0.611191,-9,-31,-2,0,-6,1,4,4,-0.064472901
0.632283,-5,-11,-1,-2,1,-1,2,2,-0.064649307
0.632577,13,14,0,-2,-1,0,-4,-3,-0.064649307
0.634544,-24,-72,-2,0,-3,-3,3,7,-0.064649307
0.634551,-1,92,4,-1,0,-1,-1,-1,-0.064649307
0.646316,10,-37,-5,-1,-1,0,-4,-4,-0.064649307
0.648152,1,-17,-2,-1,1,-2,-5,-7,-0.064649307
0.655689,-17,-10,-3,-1,-3,1,-1,2,-0.064649307
0.655730,18,30,-2,-3,-2,-3,-1,0,-0.064649307
0.668919,-13,31,2,0,-5,3,0,1,-0.064649307
0.670732,10,-81,1,0,-1,0,2,4,-0.064649307
0.675981,-28,-22,-2,-2,-3,-2,0,-2,-0.064649307
0.676011,17,-15,-3,-1,-3,-2,-4,-2,-0.064649307
0.692160,3,14,0,-2,-2,-3,1,3,-0.064649307
0.692182,11,5,-5,-2,-1,2,-4,-4,-0.064649307
0.693946,2,18,-1,0,3,0,-2,-6,-0.064649307
0.693953,-16,-38,-1,-2,-2,-3,2,3,-0.064649307
0.713958,17,21,0,-2,-1,-3,-2,-2,-0.064649307
0.715403,10,52,0,-2,1,-2,-2,-3,-0.064649307
0.715414,17,29,1,-1,0,-4,-5,-7,-0.064649307
0.715418,-21,19,4,2,1,4,-1,4,-0.064649307
0.729065,3,-16,-3,-2,0,-2,-5,-3,-0.064649307
0.730549,1,30,-2,-3,-2,-1,-1,-2,-0.064649307
0.730564,9,1,-2,1,0,-1,-1,2,-0.064649307
0.730568,-19,-2,2,2,-1,1,-2,0,-0.064649307
0.751342,2,39,-8,-2,-1,-2,-1,-4,-0.064649307
0.751366,-17,-40,3,-2,-1,-2,1,4,-0.064649307
0.752103,3,-23,-6,0,-3,0,0,0,-0.064649307
0.752110,11,18,-1,-1,0,-1,1,-1,-0.064649307
0.774013,-13,-16,2,2,0,0,-1,-2,-0.064649307
0.774042,0,-14,-3,-2,0,1,3,2,-0.064649307
0.775434,-2,13,1,-2,1,-1,-3,-5,-0.064649307
0.775446,9,1,1,-2,-3,-1,1,5,-0.064649307
0.789488,0,-18,-2,-1,-4,-1,1,2,-0.064649307
0.789536,-24,26,0,-2,-2,-4,-3,1,-0.064649307
0.791264,3,-61,-1,-2,-2,-3,1,-2,-0.064649307
0.791274,0,-10,-5,-2,-2,-4,3,1,-0.064649307
0.811262,11,12,4,1,0,-1,-1,0,-0.064649307
0.811292,6,-10,0,-2,0,2,-4,-4,-0.064649307
0.813736,10,24,-1,1,0,0,-2,-4,-0.064649307
0.813747,-33,37,-6,-4,-2,-1,1,0,-0.064649307
0.834017,-9,-33,-4,-3,-2,-2,0,-5,-0.064649307
0.834035,3,-41,-4,0,-2,-1,2,5,-0.064649307
0.835748,-14,21,1,-1,0,-2,3,3,-0.064649307
0.835759,-4,-25,0,0,1,-1,-2,-4,-0.064649307
0.848966,-44,-45,-8,-5,-4,-2,2,-1,-0.064798568
0.848989,13,13,5,-1,-2,1,3,4,-0.064798568
0.849679,4,7,-4,-2,0,-3,-1,-6,-0.064798568
0.849697,-5,57,4,1,1,-1,-1,-6,-0.064798568
0.871622,27,-53,-3,-1,-2,2,0,3,-0.064798568
0.871641,-49,1,-5,-2,-5,-1,-1,-1,-0.064798568
0.874144,4,5,0,-3,1,1,-1,-1,-0.064798568
0.874151,-1,-32,-6,-4,-2,0,1,27,-0.064798568
0.894297,-1,16,1,-1,0,-4,-1,-1,-0.064798568
0.894338,15,32,-1,0,-2,-2,-3,-7,-0.064798568
0.895803,-4,-11,3,1,-2,1,1,3,-0.064798568
0.895808,19,-17,0,-1,-2,-1,-3,-9,-0.064798568
0.909003,-5,1,2,-3,0,-1,0,0,-0.064798568
0.909011,15,-11,-10,-3,1,1,-5,-7,-0.064798568
0.909486,-11,-19,-2,0,-1,-2,-2,-1,-0.064798568
0.909493,17,-26,-1,-1,-3,0,2,-8,-0.064798568
0.931543,-7,31,4,2,1,-4,-2,-3,-0.064798568
0.931577,4,37,1,0,-1,1,-1,-9,-0.064798568
0.933769,7,-4,1,2,0,-2,1,10,-0.064798568
0.933777,-12,-25,-1,-2,-6,-4,-7,-28,-0.064798568
0.955267,-1,7,-1,1,-2,0,5,7,-0.064798568
0.955275,30,21,-1,-3,-3,-2,2,0,-0.064798568
0.955277,-4,-11,-7,2,1,-1,-7,-7,-0.064798568
0.955280,21,18,-3,-5,1,-4,-6,-12,-0.064798568
0.970090,7,23,-1,-2,-2,4,0,1,-0.064798568
0.970098,6,-29,1,-1,-2,-3,-2,2,-0.064798568
0.970101,10,30,2,-1,-2,0,-4,-10,-0.064798568
0.970103,-6,-20,-2,1,2,-1,0,4,-0.064798568
0.991575,11,64,4,1,-1,0,-2,-2,-0.064798568
0.991593,-30,-31,-2,2,-1,0,0,7,-0.064798568
0.993440,10,-29,-9,-5,-1,1,-2,-5,-0.064798568
0.993445,8,12,0,0,-1,0,3,8,-0.064798568
1.014420,-12,-48,-4,-1,-2,-3,-3,0,-0.064798568
1.014442,9,-49,1,-1,-1,-1,0,-2,-0.064798568
1.016770,-6,64,4,0,0,0,1,-1,-0.064798568
1.016781,-32,-84,-7,1,-4,-2,2,5,-0.064798568
1.028811,-5,29,0,-2,-1,-3,-5,-6,-0.064798568
1.028828,-1,24,0,1,-1,1,-1,-2,-0.064798568
1.032350,-15,-15,-1,-1,-3,0,-1,-2,-0.064798568
1.032361,-1,12,-1,-1,1,2,2,2,-0.064798568
1.052018,4,-64,-3,-1,-1,-2,-2,9,-0.064798568
1.052039,-20,19,2,0,0,-3,-2,-2,-0.064798568
1.054315,25,45,-2,-1,0,-2,2,4,-0.064798568
1.054325,-15,-57,-7,-4,-3,-1,-3,0,-0.064798568
1.073603,13,13,2,-1,1,0,-2,-4,-0.064798568
1.073621,6,2,-5,-1,1,-3,1,3,-0.064798568
1.081654,2,33,2,1,1,-1,-1,-1,-0.064798568
1.081686,4,-4,-3,-3,-1,2,-2,-9,-0.064798568
1.088443,6,9,-5,-1,-1,-2,1,1,-0.064798568
1.088461,22,39,-3,-4,-3,1,-5,-6,-0.064798568
1.095655,10,25,2,1,-3,-3,-2,0,-0.063893937
1.095691,-11,-74,-1,-1,2,-1,1,7,-0.063893937
1.111686,8,25,2,0,-2,-2,-2,2,-0.063893937
1.111711,3,25,-1,0,0,0,-1,-1,-0.063893937
1.114781,0,-26,0,-2,-5,0,-1,2,-0.063893937
1.114793,10,45,4,1,0,-2,-2,3,-0.063893937
1.133947,-4,-16,-1,-2,-2,-3,1,0,-0.063893937
1.134075,-14,5,-3,-2,-2,-4,-3,-4,-0.063893937
1.136361,-20,-15,-1,-2,0,-2,-1,0,-0.063893937
1.136369,6,21,0,-1,0,-1,3,3,-0.063893937
1.148365,-5,7,0,-1,-1,2,0,-3,-0.063893937
1.148398,-1,-6,1,2,-1,1,0,2,-0.063893937
1.155676,3,3,-1,-1,0,-1,-3,-2,-0.063893937
1.155713,6,-36,-5,-2,-4,0,0,4,-0.063893937
1.171425,20,15,1,0,2,-2,-1,-1,-0.063893937
1.171444,-2,20,0,-3,-2,-2,0,1,-0.063893937
1.172134,1,64,-2,-3,-3,-3,-4,-6,-0.063893937
1.172141,2,-12,-2,-2,-3,-2,-3,0,-0.063893937
1.193817,-12,-1,-2,2,-1,2,0,-5,-0.063893937
1.193842,14,-15,-2,-2,-2,-1,0,-2,-0.063893937
1.195511,-16,-28,1,-2,1,2,-1,-6,-0.063893937
1.195518,-11,37,5,3,-2,-2,1,5,-0.063893937
1.208490,4,-21,-1,-2,0,0,-1,2,-0.063893937
1.208508,9,1,-5,-2,-1,-4,-3,-4,-0.063893937
1.215714,-5,-31,0,0,-4,-1,6,9,-0.063893937
1.215741,-3,14,-1,0,-2,-1,-2,-1,-0.063893937
1.231639,-2,-4,-1,0,0,-2,-1,-3,-0.063893937
1.231656,-12,-67,-1,-1,-2,1,1,5,-0.063893937
1.233868,2,-7,-6,-3,0,-1,2,3,-0.063893937
1.233880,15,-12,8,5,1,0,-3,-3,-0.063893937
1.254124,-13,-4,-3,-3,-3,-3,-3,-4,-0.063893937
1.254146,-4,22,0,-2,0,0,-2,0,-0.063893937
1.255400,-5,-36,-4,-3,-3,0,-3,-1,-0.063893937
1.255405,-8,26,-1,-1,0,-2,-3,-4,-0.063893937
1.276332,-11,-22,-3,-2,-3,0,2,0,-0.063893937
1.276352,-2,-3,0,1,1,-2,-3,-3,-0.063893937
1.277562,1,-9,0,2,0,-1,-2,-7,-0.063893937
1.277567,-14,12,-3,-3,0,-1,-1,-3,-0.063893937
1.299160,3,22,2,0,-2,-1,1,1,-0.063893937
1.299182,0,-12,-1,0,-1,-1,-3,-5,-0.063893937
1.299543,6,-18,-2,-1,1,1,0,0,-0.063893937
1.299565,-5,65,1,-2,-1,-1,-1,-2,-0.063893937
1.313844,-26,-98,-4,2,-1,1,-1,-3,-0.063893937
1.313864,0,57,2,-1,0,0,-3,-3,-0.063893937
1.314830,-5,47,0,2,-3,-2,-1,1,-0.063893937
1.314836,-3,-29,-5,-1,-1,1,-2,-4,-0.063893937
1.336874,11,64,2,-2,1,1,-4,-4,-0.063893937
1.336908,-2,-1,-3,-1,-1,-2,-1,-1,-0.063893937
1.337693,1,3,4,-1,-3,-2,-1,3,-0.063893937
1.337699,2,1,-1,-4,0,-1,-2,-5,-0.063893937
1.360806,-20,-35,-1,-2,-3,-4,3,12,-0.064879986
1.360820,-7,29,-4,0,-2,-1,2,-5,-0.064879986
1.360824,-6,-22,-4,-2,-1,-1,-4,-3,-0.064879986
1.360827,-9,-14,-1,-1,0,-2,0,0,-0.064879986
1.373789,-19,-27,-3,-1,-3,-1,2,6,-0.064879986
1.373807,5,-9,0,2,0,7,2,-5,-0.064879986
1.374988,-2,-31,-3,0,-2,-7,-3,0,-0.064879986
1.374994,17,24,4,-1,-2,-1,-2,-3,-0.064879986
1.396699,10,0,-7,-2,-1,-2,2,-1,-0.064879986
1.398083,-10,-1,0,-4,-1,-2,-2,-1,-0.064879986
1.398091,5,-61,-3,4,-1,1,2,1,-0.064879986
1.398094,7,15,2,-2,-2,-2,0,0,-0.064879986
1.418943,9,-6,-1,-2,-1,-1,-3,-2,-0.064879986
1.418972,-8,-29,0,-3,0,1,4,3,-0.064879986
1.420913,-1,47,-1,-3,-1,-2,2,0,-0.064879986
1.420920,-3,-8,-6,0,-2,-3,-2,1,-0.064879986
1.433997,3,21,-1,0,-2,-1,-1,-1,-0.064879986
1.434024,-7,-65,-3,1,-3,-6,3,7,-0.064879986
1.435402,11,18,3,-4,-2,1,1,-1,-0.064879986
1.435413,-15,-20,-7,-1,2,-2,-4,-4,-0.064879986
1.456470,22,48,3,-2,-2,-1,1,-2,-0.064879986
1.456496,0,12,0,2,0,-2,0,5,-0.064879986
1.457220,6,12,-3,0,1,1,-2,-1,-0.064879986
1.457254,-4,-24,-1,-1,0,0,0,-3,-0.064879986
1.479725,0,36,0,0,0,-1,-4,-3,-0.064879986
1.483273,7,-57,-3,-3,-4,-3,-1,3,-0.064879986
1.483288,-5,16,-3,-3,0,-1,-5,-4,-0.064879986
1.483292,33,43,3,0,0,-2,2,1,-0.064879986
1.494288,-26,-6,-4,-2,0,-2,0,4,-0.064879986
1.494316,-2,55,4,1,0,-1,-2,-7,-0.064879986
1.495347,-52,-61,-3,-2,-5,3,3,6,-0.064879986
1.495363,7,-18,-1,1,-1,-1,0,1,-0.064879986
1.516780,6,75,7,1,0,-2,-5,-5,-0.064879986
1.516788,-9,-5,-2,-3,0,-2,-3,-6,-0.064879986
1.517110,6,-61,-3,-1,-2,-1,2,-2,-0.064879986
1.517122,2,27,0,-3,1,2,3,-4,-0.064879986
1.538850,-29,-48,-2,1,-1,-2,-6,-5,-0.064879986
1.538868,1,62,-2,-2,-2,4,-1,2,-0.064879986
1.539927,8,20,1,1,-1,-4,-2,-6,-0.064879986
1.539939,0,-14,-2,-3,0,3,-2,-1,-0.064879986
1.553836,9,-46,-6,-3,-4,0,4,6,-0.064879986
1.553855,-8,-16,-1,0,0,-2,-1,-1,-0.064879986
1.555265,9,44,1,-1,-2,0,-3,-2,-0.064879986
1.555274,-23,-68,-5,-1,-4,-2,0,4,-0.064879986
1.576340,9,21,0,-1,1,0,0,-1,-0.064879986
1.576357,3,-5,1,-1,-1,0,-5,-5,-0.064879986
1.578438,-4,-2,-2,-2,-2,1,0,2,-0.064879986
1.578443,-1,28,2,1,-1,-4,-2,-5,-0.064879986
1.599049,8,-9,0,0,-1,2,2,4,-0.064879986
1.599089,-2,20,1,0,1,-1,0,-6,-0.064879986
1.599578,-42,10,-3,-3,0,-2,-1,-2,-0.064879986
1.599591,2,14,-2,-2,-2,-4,-1,3,-0.064879986
1.613881,10,32,-1,-3,0,1,0,-1,-0.064816664
1.613902,-1,-25,-4,-2,-1,-2,-4,-2,-0.064816664
1.615983,14,17,7,1,0,-1,2,2,-0.064816664
1.615991,8,-18,-2,0,-1,-2,-2,-5,-0.064816664
1.636700,-49,71,-1,-4,-2,-3,3,-2,-0.064816664
1.636771,10,-21,-5,2,0,0,-4,-1,-0.064816664
1.637984,3,17,1,0,1,0,0,-2,-0.064816664
1.637989,11,-17,0,0,-2,0,-2,0,-0.064816664
1.661863,-14,-55,-5,-2,0,0,-3,-1,-0.064816664
1.661873,-5,0,2,-2,-3,0,0,5,-0.064816664
1.661876,5,-34,-1,-2,1,3,2,-4,-0.064816664
1.661905,-6,42,4,0,0,-6,-7,-4,-0.064816664
1.674354,24,-20,-4,-2,2,3,1,-4,-0.064816664
1.674388,-7,-20,-2,-3,-2,-2,-2,3,-0.064816664
1.676541,9,-1,-3,-2,-1,-5,-1,-4,-0.064816664
1.676546,32,54,4,1,2,3,1,1,-0.064816664
1.696549,-28,-100,-5,-1,0,3,0,-7,-0.064816664
1.696577,8,-1,-2,-2,-1,2,2,0,-0.064816664
1.697468,4,63,1,1,2,0,-2,-6,-0.064816664
1.697486,1,-67,-7,-2,-3,0,-1,2,-0.064816664
1.718868,9,11,0,1,-2,-5,-6,-4,-0.064816664
1.718887,-1,21,0,0,1,1,-1,1,-0.064816664
1.720547,-3,13,-3,-2,-1,2,0,1,-0.064816664
1.720555,-29,27,2,-2,1,-3,-3,1,-0.064816664
1.734063,15,-76,-11,-5,-4,0,-1,0,-0.064816664
1.734090,3,0,-1,2,-1,-11,14,1,-0.064816664
1.736264,-1,3,0,0,0,0,-2,0,-0.064816664
1.736271,-13,-4,-1,-2,1,4,1,-9,-0.064816664
1.756308,1,32,4,-3,0,-1,1,30,-0.064816664
1.756347,8,-3,1,0,-1,5,-2,1,-0.064816664
1.757049,-1,-42,-3,0,0,-5,-2,-4,-0.064816664
1.757063,1,11,-2,0,-3,-5,1,-5,-0.064816664
1.779030,0,26,-1,1,0,1,2,-9,-0.064816664
1.779059,-14,-15,-2,-1,-1,5,1,5,-0.064816664
1.781143,14,55,0,-3,-2,-15,-15,5,-0.064816664
1.781149,-6,-72,-8,-5,-2,-8,-6,2,-0.064816664
1.793950,18,32,2,3,4,4,-5,15,-0.064816664
1.793967,-1,-4,-1,-3,-1,-5,-3,-5,-0.064816664
1.797329,-6,2,0,-1,-1,2,2,-7,-0.064816664
1.797337,11,21,-1,-1,-5,0,2,-11,-0.064816664
1.816782,30,-14,1,0,1,-6,-3,2,-0.064816664
1.816795,-7,0,-3,-2,-2,0,1,-3,-0.064816664
1.817335,16,18,2,0,2,3,1,2,-0.064816664
1.817358,-35,-19,-2,-1,1,0,-2,-4,-0.064816664
1.838941,20,-5,-6,-3,-1,0,0,-14,-0.064816664
1.838979,-8,12,2,0,-1,-2,2,2,-0.064816664
1.839854,1,-20,2,-1,-2,1,0,1,-0.064816664
1.839859,-9,12,-3,1,2,2,0,2,-0.064816664
1.853961,-5,32,2,-1,-4,-1,-2,-10,-0.064816664
1.853980,2,-9,-1,-2,0,-2,-3,2,-0.064816664
1.855060,-12,-26,-4,-2,-2,0,-1,-5,-0.064816664
1.855066,0,5,2,1,3,0,-1,4,-0.064816664
1.876950,6,48,6,0,0,-2,0,-4,-0.064454810
1.876981,-12,-88,-10,-5,-7,-5,-1,-1,-0.064454810
1.879506,-6,-30,-3,0,0,6,5,-1,-0.064454810
1.879513,6,40,1,-1,-2,-10,-6,4,-0.064454810
1.898932,-12,-71,-2,2,-1,5,3,-2,-0.064454810
1.898950,5,25,-1,1,-2,-1,-2,2,-0.064454810
1.899849,-13,-5,-2,-1,-1,-2,-1,-1,-0.064454810
1.899868,4,-16,-2,-3,-3,2,3,4,-0.064454810
1.914854,-15,34,-1,-3,-2,-2,-3,-7,-0.064454810
1.914886,2,4,4,1,1,-1,-5,-6,-0.064454810
1.921475,-2,-24,-1,0,-3,1,1,3,-0.064454810
1.921497,9,24,-1,0,-1,0,1,-2,-0.064454810
1.936420,-8,-47,-3,-3,-3,-2,-1,-5,-0.064454810
1.936445,1,24,-2,-3,-2,1,-2,8,-0.064454810
1.937985,7,24,2,0,-2,-5,-1,-7,-0.064454810
1.937995,2,-35,-4,-4,-1,-5,-2,-6,-0.064454810
1.958873,-18,20,-2,-1,-2,5,-1,1,-0.064454810
1.958901,13,31,0,-1,4,2,2,-5,-0.064454810
1.959597,13,0,-2,-1,2,-1,-5,-9,-0.064454810
1.959619,0,2,0,1,-1,0,1,-1,-0.064454810
1.973320,-20,-19,-1,-3,-3,-4,1,-10,-0.064454810
1.973378,-1,-7,1,-1,0,4,0,-11,-0.064454810
1.981490,13,45,-1,-3,-3,-12,-14,0,-0.064454810
1.982739,-25,-21,-4,-1,0,2,1,4,-0.064454810
1.996534,12,22,1,1,1,-2,-5,-6,-0.064454810
1.996555,1,44,2,0,-1,-5,-3,-6,-0.064454810
1.997946,10,-100,-9,-1,-2,1,5,9,-0.064454810
1.997951,-3,20,-1,-1,-1,-1,-1,1,-0.064454810
2.020993,1,22,-2,-2,-2,-3,-4,-3,-0.064454810
2.021000,-5,11,1,-1,-2,-5,-4,-4,-0.064454810
2.021003,-11,1,-2,-1,0,2,4,-2,-0.064454810
2.021006,-1,7,-2,-1,-1,1,-2,-9,-0.064454810
2.033284,10,-19,-6,-1,-2,-5,1,4,-0.064454810
2.033302,4,-12,-1,0,-2,0,-1,-5,-0.064454810
2.041767,-11,-1,-1,-2,-2,1,-2,-4,-0.064454810
2.043544,-10,2,0,-4,-1,-1,0,3,-0.064454810
2.056402,30,53,3,0,0,-5,-3,1,-0.064454810
2.056420,-60,-52,-4,-3,-1,-1,1,-1,-0.064454810
2.057033,-3,-5,-1,2,-1,1,-3,0,-0.064454810
2.057106,16,-24,-1,-2,-1,-1,-1,-3,-0.064454810
2.079251,-7,-9,2,0,-3,0,0,-3,-0.064454810
2.079285,11,-7,-3,-3,2,4,1,1,-0.064454810
2.082317,8,-22,1,0,0,-12,-12,11,-0.064454810
2.082328,-8,14,-1,-2,-3,4,-3,-4,-0.064454810
2.101980,0,-1,-1,-3,2,2,0,3,-0.064454810
2.101998,4,11,0,0,-2,0,-2,2,-0.064454810
2.102672,-8,31,-1,-1,0,0,4,-6,-0.064454810
2.102710,5,-13,-2,-1,-2,-3,-2,3,-0.064454810
2.116341,-6,4,-2,-1,-2,-7,-1,0,-0.064454810
2.116359,7,42,3,-1,-3,0,-4,-9,-0.064454810
2.117088,8,-21,-4,-1,-2,0,1,-4,-0.064454810
2.117107,18,14,1,0,0,0,-2,3,-0.064454810
2.138951,-44,-26,-2,1,-1,1,1,-6,-0.064631210
2.139065,23,34,1,1,-3,-5,-3,4,-0.064631210
2.140798,-6,-20,0,0,-4,-2,3,2,-0.064631210
2.140802,-6,-8,-2,0,1,-2,-1,-4,-0.064631210
2.153421,0,14,0,-2,0,-1,3,-1,-0.064631210
2.153439,14,4,-2,-1,-1,-4,1,0,-0.064631210
2.162212,-11,31,-1,-2,-3,4,-2,-2,-0.064631210
2.162249,-6,-51,-5,-1,-3,2,-2,-1,-0.064631210
2.177321,2,28,2,-2,0,-1,-2,-5,-0.064631210
2.177331,-10,-42,-3,-1,0,-3,-1,-6,-0.064631210
2.177334,0,29,1,-2,-1,1,6,-5,-0.064631210
2.177336,-5,24,0,-2,1,-1,0,5,-0.064631210
2.199435,8,-7,0,0,-1,-3,-4,-2,-0.064631210
2.200746,-4,-14,-2,-2,-1,-1,-1,-1,-0.064631210
2.200751,-1,8,-2,-1,0,1,0,1,-0.064631210
2.200753,-5,-3,0,-1,-2,-2,1,1,-0.064631210
2.213109,-6,-13,-1,-2,-1,1,-2,-2,-0.064631210
2.213127,-2,-27,-3,-1,-2,-5,-1,1,-0.064631210
2.222067,2,-8,0,-2,0,-3,1,-1,-0.064631210
2.222073,-3,21,0,-1,-1,1,-2,1,-0.064631210
2.236438,7,-24,-4,0,-1,0,-3,-6,-0.064631210
2.236462,6,43,1,-1,0,-2,3,3,-0.064631210
2.239010,2,3,-1,-2,1,1,-5,-7,-0.064631210
2.239017,-1,-1,-1,1,-1,-2,-2,-3,-0.064631210
2.259250,2,41,-1,0,-2,2,0,6,-0.064631210
2.259277,-2,-4,0,-1,-1,4,3,0,-0.064631210
2.260890,-4,-23,-4,-2,-2,-8,-8,-2,-0.064631210
2.260896,-1,17,-1,-1,1,0,2,0,-0.064631210
2.282139,12,3,0,-1,-3,-3,3,1,-0.064631210
2.282159,-24,-37,-5,-1,-1,2,-1,1,-0.064631210
2.283081,9,35,0,-2,-2,3,2,4,-0.064631210
2.283086,-12,-54,-2,1,-2,-5,1,0,-0.064631210
2.296754,8,-4,-1,-1,3,-3,-5,-4,-0.064631210
2.296776,2,7,-2,0,0,-4,-3,1,-0.064631210
2.298830,-7,-9,0,-1,-1,0,2,-1,-0.064631210
2.298839,4,7,0,-3,-2,0,-1,-1,-0.064631210
2.319120,13,-7,-2,-2,-1,-1,-1,-4,-0.064631210
2.319147,-8,-6,-1,-1,-1,0,-6,-4,-0.064631210
2.319673,1,9,1,1,1,-2,2,-2,-0.064631210
2.319684,12,9,-4,-3,-3,-1,1,-2,-0.064631210
2.342268,4,-49,-6,-1,1,0,0,-1,-0.064631210
2.342292,8,-12,-3,-2,0,-1,0,0,-0.064631210
2.344072,-11,2,2,-1,-1,0,0,-4,-0.064631210
2.344085,-3,30,2,-1,2,-2,-4,-7,-0.064631210
2.356944,-16,4,-1,-2,-1,-1,3,2,-0.064631210
2.356969,13,7,-2,1,-2,-1,-1,-1,-0.064631210
2.359259,-12,-26,-3,0,-2,2,-2,-2,-0.064631210
2.359266,-7,10,-1,-1,-1,-2,-2,-4,-0.064631210
2.381810,1,-51,-2,-1,-2,-2,0,6,-0.064694537
2.381831,-6,2,0,-2,0,-1,-2,-5,-0.064694537
2.381837,-2,12,1,-2,0,-1,-1,-3,-0.064694537
2.381842,9,-2,-3,-1,-3,1,0,0,-0.064694537
2.402337,1,30,0,-1,-1,0,-4,-1,-0.064694537
2.402357,-4,-1,2,0,0,-1,-2,-4,-0.064694537
2.404139,-3,-9,-1,1,0,-2,1,0,-0.064694537
2.404145,-9,19,0,0,0,-2,-3,-2,-0.064694537
2.416344,7,-20,1,-2,-1,-1,3,7,-0.064694537
2.416364,-1,-22,0,0,0,-3,-3,-5,-0.064694537
2.417053,7,1,-5,-2,-1,1,-1,-1,-0.064694537
2.417070,1,-21,-1,-1,-1,-2,0,-3,-0.064694537
2.439634,-27,-8,1,1,2,3,0,-8,-0.064694537
2.439665,32,37,-3,-4,-3,-1,0,1,-0.064694537
2.442062,-8,-23,-1,-2,-1,-3,-1,4,-0.064694537
2.442068,1,6,-1,-1,0,0,-3,-5,-0.064694537
2.463075,4,14,-1,0,-1,-2,-2,-5,-0.064694537
2.463098,-8,-3,1,0,0,0,-5,-1,-0.064694537
2.464239,-7,20,0,-1,1,-3,0,-5,-0.064694537
2.464245,20,-21,0,1,-3,-1,1,2,-0.064694537
2.477054,-5,-30,-2,-3,-4,-1,1,5,-0.064694537
2.477085,-12,14,-2,-1,0,-2,-2,-4,-0.064694537
2.477968,-6,-11,-2,-2,-1,0,0,1,-0.064694537
2.477973,7,5,2,-1,-2,-1,2,5,-0.064694537
2.499095,-3,-3,0,-2,-2,-4,-2,-3,-0.064694537
2.499115,-5,3,0,-2,-2,2,-1,1,-0.064694537
2.501056,2,7,-2,0,-1,-1,0,2,-0.064694537
2.501062,-7,-31,-3,-2,-1,-4,-1,1,-0.064694537
2.522206,-3,6,-1,-1,0,0,-5,-5,-0.064694537
2.522229,-6,15,-1,-2,-2,-2,2,-1,-0.064694537
2.522852,-1,31,3,-1,-3,1,-2,-5,-0.064694537
2.522867,4,-71,-6,-3,-3,-1,-1,3,-0.064694537
2.536327,15,18,-2,0,-1,-2,-4,-2,-0.064694537
2.536350,4,17,1,0,1,-2,5,12,-0.064694537
2.537200,0,-37,-5,-3,-2,-4,-2,-5,-0.064694537
2.537221,0,33,3,0,4,5,2,-3,-0.064694537
2.558886,-6,6,1,0,-1,0,1,2,-0.064694537
2.558911,-5,-5,-1,0,-1,-1,-1,-3,-0.064694537
2.561161,10,6,-1,0,1,1,0,3,-0.064694537
2.561167,-9,7,-1,-1,-1,-1,-4,0,-0.064694537
2.582189,0,12,-1,-2,-3,-5,-2,-1,-0.064694537
2.582209,-5,-5,0,-1,0,1,-1,-3,-0.064694537
2.582968,-6,-9,0,0,-2,-1,0,-3,-0.064694537
2.582985,-3,28,2,-1,0,-1,-2,-4,-0.064694537
2.598453,-10,-4,-4,-3,0,1,-1,0,-0.064694537
2.598468,23,-5,0,1,-2,-1,-4,-4,-0.064694537
2.598471,-52,14,-4,-4,-4,-2,-2,1,-0.064694537
2.598473,-20,-33,2,1,-2,-4,3,4,-0.064694537
2.618917,11,13,-6,-1,-1,-1,-4,3,-0.064694537
2.618936,-2,-53,-6,-2,-2,-3,2,-3,-0.064694537
2.620496,10,17,0,0,1,-1,-3,2,-0.064694537
2.620504,1,31,3,1,1,-1,-1,-2,-0.064694537
2.642057,-12,-3,3,-2,-2,1,-1,-2,-0.064477423
2.642089,-6,-13,-1,-3,-2,-2,-1,4,-0.064477423
2.645558,12,-13,0,-2,-1,0,-2,3,-0.064477423
2.645565,-3,-10,-4,-2,-2,-1,-2,-4,-0.064477423
2.656361,5,1,3,0,-1,-1,1,3,-0.064477423
2.656378,-1,25,-1,0,1,-1,-2,-1,-0.064477423
2.659132,-1,-33,-5,-3,0,-1,-1,-2,-0.064477423
2.659170,10,28,-1,0,-1,0,-3,0,-0.064477423
2.678796,-4,2,-1,1,-3,5,3,-2,-0.064477423
2.678816,1,15,-3,-5,-1,-14,-13,-3,-0.064477423
2.679536,2,3,-1,-1,0,2,-2,-6,-0.064477423
2.679556,-6,19,1,0,-2,-3,0,-1,-0.064477423
2.702168,5,-68,-3,0,0,-2,1,-3,-0.064477423
2.702193,-3,12,1,0,-1,2,1,-2,-0.064477423
2.704280,7,4,1,0,-2,-3,-1,2,-0.064477423
2.704289,6,2,-3,-2,-2,-2,-3,-4,-0.064477423
2.716398,-5,34,1,-1,1,0,-3,-4,-0.064477423
2.716423,-3,-1,1,0,-1,1,2,2,-0.064477423
2.718275,2,-39,-2,0,-3,-3,-4,-2,-0.064477423
2.718282,3,24,3,-1,0,1,-2,-3,-0.064477423
2.740424,9,11,-6,-2,-1,-3,-3,-4,-0.064477423
2.740429,2,-5,-2,-3,-3,3,2,0,-0.064477423
2.740433,-24,28,-1,0,-1,0,-3,-9,-0.064477423
2.740436,-3,7,-2,-1,-2,-1,-4,-5,-0.064477423
2.762393,2,16,0,0,-1,-4,-3,-3,-0.064477423
2.762411,2,-9,-2,0,-1,3,-2,0,-0.064477423
2.763492,11,13,1,1,-2,1,-1,-4,-0.064477423
2.763514,-6,-12,-1,-1,-2,-1,-1,0,-0.064477423
2.776550,-4,4,2,-3,-4,-1,0,-2,-0.064477423
2.776568,-13,-1,-1,0,-2,1,-1,-6,-0.064477423
2.780039,1,-14,-1,0,-1,-1,-2,3,-0.064477423
2.780046,-4,-25,-4,-1,-3,-2,-1,3,-0.064477423
2.800577,0,2,-1,-3,0,-4,-2,-2,-0.064477423
2.800587,-4,-10,-2,-3,0,-3,-1,-5,-0.064477423
2.800590,6,34,2,-1,1,1,-1,-3,-0.064477423
2.800592,2,-60,-4,-2,0,-2,0,0,-0.064477423
2.822077,-3,14,-2,0,-1,-2,-1,-2,-0.064477423
2.822101,-4,20,2,2,0,0,1,-5,-0.064477423
2.825311,18,-48,-8,-4,-2,-1,0,1,-0.064477423
2.825317,-3,20,-2,-2,0,-1,-2,-2,-0.064477423
2.836371,-1,13,1,-1,0,0,-7,-4,-0.064477423
2.836390,-3,2,-2,0,1,1,-1,4,-0.064477423
2.837631,-6,7,0,1,1,-2,0,-4,-0.064477423
2.837642,-3,29,1,1,-1,0,2,-3,-0.064477423
2.859883,3,-45,-3,-1,-3,-1,3,4,-0.064477423
2.859918,-11,24,2,-1,-2,-2,-6,-1,-0.064477423
2.859921,3,-47,-4,-4,-3,0,2,0,-0.064477423
2.859923,-10,-35,1,-2,-3,-5,-2,0,-0.064477423
2.882071,4,33,1,0,0,5,2,0,-0.064477423
2.882089,-34,-20,-2,-1,-1,-2,2,2,-0.064477423
2.883032,0,6,1,-1,1,-3,-1,-2,-0.064477423
2.883052,1,4,-1,-1,1,0,0,4,-0.064477423
2.895652,3,14,0,1,-2,0,-4,-2,-0.064708107
2.895687,10,-21,2,-2,-1,1,-1,-5,-0.064708107
2.903995,5,28,1,1,-1,-1,-1,3,-0.064708107
2.904018,-12,-37,-4,-2,-3,-2,-2,3,-0.064708107
2.919186,-2,27,2,-2,2,-1,-2,-6,-0.064708107
2.921174,6,-21,-7,-4,-3,-2,-2,3,-0.064708107
2.921183,1,14,0,0,-1,-2,-2,-3,-0.064708107
2.921186,0,21,-3,-3,-3,2,-2,-3,-0.064708107
2.942610,-14,-28,-3,-2,-2,1,3,2,-0.064708107
2.942617,5,-2,2,1,-2,-1,1,1,-0.064708107
2.942667,7,3,2,0,-2,-2,-3,-4,-0.064708107
2.942689,0,-1,-2,-1,1,-1,3,-4,-0.064708107
2.957836,0,9,3,0,-1,-10,-4,0,-0.064708107
2.957843,10,-43,-7,-5,-2,2,2,-2,-0.064708107
2.964253,-8,27,2,0,2,3,-2,-2,-0.064708107
2.964278,0,10,0,1,1,1,-4,-3,-0.064708107
2.979056,0,-8,-2,0,-5,0,5,-3,-0.064708107
2.981343,-1,44,2,2,1,-5,-1,-4,-0.064708107
2.981353,-5,-76,-5,-3,-4,-5,-2,5,-0.064708107
2.981356,5,-4,-1,-1,-1,0,4,7,-0.064708107
3.004119,0,10,-1,1,1,-1,-1,-2,-0.064708107
3.004125,6,15,-1,1,1,1,-4,-2,-0.064708107
3.004128,-9,17,1,0,-2,0,1,3,-0.064708107
3.004130,1,3,0,-3,0,-3,-4,-8,-0.064708107
3.024934,-6,-79,-3,-3,0,0,0,4,-0.064708107
3.024951,12,2,-3,0,-1,-4,-1,-1,-0.064708107
3.026928,-1,16,-1,0,-1,0,0,2,-0.064708107
3.026934,-9,5,-2,-1,-1,0,-4,-2,-0.064708107
3.038884,3,28,1,1,-2,1,-2,-1,-0.064708107
3.038910,-9,-38,-1,-2,-1,-4,2,2,-0.064708107
3.039835,8,1,0,-1,0,-5,-2,-3,-0.064708107
3.039841,2,18,1,-1,0,6,4,-2,-0.064708107
3.065664,-9,2,-5,1,-4,-11,-10,2,-0.064708107
3.065678,10,48,4,0,0,4,-1,-2,-0.064708107
3.065680,2,-52,-6,-1,-3,-1,1,1,-0.064708107
3.065683,-10,8,0,-2,-1,-1,0,-4,-0.064708107
3.076148,3,5,-2,-3,-2,-2,4,0,-0.064708107
3.076172,-8,2,-1,-1,-1,1,-2,-5,-0.064708107
3.083958,-1,15,1,-1,0,-2,-3,-2,-0.064708107
3.083984,11,-3,1,0,-2,-3,0,-2,-0.064708107
3.098916,-5,-7,-1,-1,0,-2,-1,-5,-0.064708107
3.098942,-6,-9,-2,-1,-1,-5,-3,-4,-0.064708107
3.099658,-1,-30,-1,-2,0,1,1,3,-0.064708107
3.099676,3,-4,-5,-2,-5,-1,-1,-4,-0.064708107
3.122203,-43,-35,-4,-4,-2,-3,3,3,-0.064708107
3.122235,1,24,-1,-2,-2,2,-3,-1,-0.064708107
3.125097,-20,7,-1,0,-1,-1,0,-4,-0.064708107
3.125102,1,-7,-3,-2,-2,-4,-4,-4,-0.064708107
3.135926,9,13,1,2,2,0,-3,-4,-0.064708107
3.135949,-5,6,1,-2,-1,-2,2,2,-0.064708107
3.144326,-1,-1,-2,-1,-2,-1,-4,-5,-0.064680968
3.144343,7,7,-1,-1,-1,-2,-2,1,-0.064680968
3.160518,4,6,0,0,1,2,0,-2,-0.064680968
3.160523,2,-26,-2,-1,-1,0,0,0,-0.064680968
3.160525,-7,52,1,0,0,0,-3,-4,-0.064680968
3.160557,8,-44,-2,-2,-2,-4,-1,-3,-0.064680968
3.182343,7,-54,-5,-2,-2,2,-2,1,-0.064680968
3.182364,4,-11,-3,-2,-2,0,-4,-6,-0.064680968
3.184289,4,36,0,-1,-2,-3,0,-1,-0.064680968
3.184296,-7,13,2,2,-2,1,0,5,-0.064680968
3.196144,3,-9,-1,-2,0,-1,-5,-5,-0.064680968
3.196177,3,11,-2,-1,0,5,5,4,-0.064680968
3.206197,0,-18,-1,-1,-1,-16,-10,1,-0.064680968
3.206204,2,24,1,0,1,-1,-4,-1,-0.064680968
3.220678,-9,-1,-1,-1,0,1,0,1,-0.064680968
3.220688,22,20,2,0,-1,-2,-1,2,-0.064680968
3.220693,-37,-50,-7,-5,-3,2,4,-2,-0.064680968
3.220699,2,6,-1,-1,-4,-2,-2,-5,-0.064680968
3.242696,-5,5,0,-1,-2,0,-3,3,-0.064680968
3.242727,1,-31,0,-2,0,-3,-1,-2,-0.064680968
3.244832,23,10,0,0,2,4,1,-6,-0.064680968
3.244839,-4,4,-2,-1,1,-2,-3,0,-0.064680968
3.264582,7,26,3,-1,-1,2,2,-3,-0.064680968
3.264608,3,3,-3,0,-2,-4,-1,0,-0.064680968
3.267025,-17,-3,0,-1,-1,1,-1,-1,-0.064680968
3.267037,-5,-9,0,-1,2,-4,1,1,-0.064680968
3.278926,18,28,1,2,1,-2,0,1,-0.064680968
3.278944,-30,-81,-4,-5,-2,1,-2,-3,-0.064680968
3.281443,11,33,-1,-3,2,0,0,-3,-0.064680968
3.281459,-1,1,0,0,0,-3,0,3,-0.064680968
3.301997,-7,7,-3,-3,1,1,-1,-1,-0.064680968
3.302076,2,12,0,2,0,-4,-1,-3,-0.064680968
3.302978,3,-4,1,1,-3,1,1,3,-0.064680968
3.302998,-3,0,-2,-2,-1,-3,1,-3,-0.064680968
3.325143,7,8,0,-2,1,-6,-5,-4,-0.064680968
3.325176,-5,18,0,-1,0,2,0,3,-0.064680968
3.327244,-33,31,1,2,-1,-2,-3,-3,-0.064680968
3.327257,21,-71,-9,-3,-4,1,4,-2,-0.064680968
3.338858,-19,3,3,2,-2,0,1,3,-0.064680968
3.338876,17,21,-6,-1,-2,-5,-2,-3,-0.064680968
3.341244,1,5,-3,-3,-2,-1,1,4,-0.064680968
3.341258,-5,12,3,1,0,-3,-3,-1,-0.064680968
3.362283,6,43,1,-1,-2,1,2,-2,-0.064680968
3.362290,-23,-67,-4,-1,-1,0,-2,0,-0.064680968
3.362815,17,-9,3,0,-2,1,-1,-1,-0.064680968
3.362888,-10,7,-3,1,-2,0,0,1,-0.064680968
3.384592,4,-5,-3,-2,-3,-3,-1,3,-0.064680968
3.384616,-17,22,0,0,1,-1,0,-2,-0.064680968
3.386478,9,-17,-1,0,0,-4,1,1,-0.064680968
3.386486,-5,8,3,0,-1,0,-4,-3,-0.064680968
3.398871,-5,-34,-4,-2,-2,2,-1,-3,-0.064405053
3.398894,4,7,2,-1,-2,0,-2,-1,-0.064405053
3.400669,2,-15,-2,-1,0,-1,2,1,-0.064405053
3.400678,-2,13,3,1,1,-3,-2,0,-0.064405053
3.422919,25,31,-2,0,-2,0,-1,-4,-0.064405053
3.422926,-17,-29,-3,0,-3,-3,-1,1,-0.064405053
3.422928,9,0,2,-1,1,-1,-1,-2,-0.064405053
3.422931,10,5,0,-4,-2,1,-2,-4,-0.064405053
3.444658,-16,-6,-7,-2,-2,-1,1,3,-0.064405053
3.444672,4,10,5,2,0,-4,-1,0,-0.064405053
3.446748,3,10,-3,-1,-1,1,-2,-5,-0.064405053
3.446754,-3,16,-2,-1,1,-1,-2,-4,-0.064405053
3.458879,-5,-57,-1,1,-2,-2,2,4,-0.064405053
3.458910,-2,-2,1,-4,0,2,-4,-4,-0.064405053
3.459600,0,-23,-2,-1,-1,0,0,-2,-0.064405053
3.459626,4,16,0,-3,-1,0,-1,-5,-0.064405053
3.482233,-5,5,0,-1,-2,-9,0,1,-0.064405053
3.482256,-2,1,0,-1,0,3,-2,-3,-0.064405053
3.484401,9,14,1,-2,0,0,-2,1,-0.064405053
3.484410,-15,-9,0,0,-1,-3,0,2,-0.064405053
3.504587,-13,-17,-3,-2,-1,4,-3,-8,-0.064405053
3.504650,19,62,2,0,-2,-5,2,-3,-0.064405053
3.505382,-2,-36,-2,1,0,-2,-2,0,-0.064405053
3.505395,-4,6,-4,-2,0,0,1,-1,-0.064405053
3.518849,7,4,2,-3,0,-1,-2,1,-0.064405053
3.518869,-10,9,1,-1,-2,-1,1,2,-0.064405053
3.519550,8,9,1,0,-1,1,-2,-3,-0.064405053
3.519570,2,-2,-1,-1,-1,-2,-2,-2,-0.064405053
3.542613,-4,-7,1,-3,-1,0,-3,-4,-0.064405053
3.542645,24,-24,-1,-2,-1,-1,-1,1,-0.064405053
3.545250,-2,2,-6,0,0,0,-3,-4,-0.064405053
3.545257,-2,12,1,2,0,1,-4,-2,-0.064405053
3.564609,3,-6,-2,1,-2,-4,0,-2,-0.064405053
3.564636,0,0,0,1,-3,-1,1,-1,-0.064405053
3.565388,-6,13,-1,-1,-1,-3,-2,0,-0.064405053
3.565408,-5,14,1,1,1,-1,1,0,-0.064405053
3.578127,9,23,-2,0,0,0,-2,-1,-0.064405053
3.578163,-13,-43,-3,0,1,-3,-5,0,-0.064405053
3.588167,0,-5,0,1,-3,-1,-1,-2,-0.064405053
3.588174,-12,9,0,-1,-1,-2,-1,-2,-0.064405053
3.602087,9,25,0,-2,0,-2,-3,-6,-0.064405053
3.602113,-18,-12,-4,0,-2,2,2,0,-0.064405053
3.604202,-1,13,-1,0,-4,-2,1,4,-0.064405053
3.604208,-1,-26,-1,0,0,1,0,0,-0.064405053
3.624586,-1,-24,0,0,-1,-2,-1,0,-0.064405053
3.624602,-8,8,-3,-1,-3,-1,0,2,-0.064405053
3.626413,-2,19,2,-1,-2,2,-1,0,-0.064405053
3.626434,-1,-50,-2,-1,-2,-1,-1,-5,-0.064405053
3.638206,0,-9,0,-1,2,-2,0,3,-0.064405053
3.638221,-35,41,2,-1,-1,-3,-2,0,-0.064405053
3.649696,14,-14,-4,-1,-1,-3,1,-1,-0.064405053
3.649709,5,-12,-4,-2,-2,1,-2,3,-0.064405053
3.662247,15,5,1,0,-4,2,-2,3,-0.064649307
3.663123,12,2,0,-1,1,0,-2,-4,-0.064649307
3.663826,3,8,1,0,-1,1,1,0,-0.064649307
3.663904,-5,10,0,1,-2,-3,1,0,-0.064649307
3.684584,-5,-31,0,0,-1,3,2,0,-0.064649307
3.684590,23,16,-3,-2,-4,-11,-8,-6,-0.064649307
3.686209,-15,-24,-1,-2,-1,1,0,0,-0.064649307
3.686229,10,12,-1,-2,0,0,0,-2,-0.064649307
3.700392,-16,10,-3,-2,0,0,-3,-4,-0.064649307
3.700397,13,24,2,0,1,1,2,-3,-0.064649307
3.708756,-1,-22,-2,-2,-2,-5,1,0,-0.064649307
3.708770,-7,27,-1,-2,-1,-4,-2,-4,-0.064649307
3.722170,1,-21,-6,-1,-2,0,-2,-5,-0.064649307
3.722204,-5,0,1,-2,0,0,2,3,-0.064649307
3.725102,-14,2,1,-1,-1,1,0,-1,-0.064649307
3.725107,10,10,2,-1,-2,0,-1,-5,-0.064649307
3.747914,-9,16,0,-1,0,-3,-2,-2,-0.064649307
3.747930,3,-6,1,-1,-1,-2,2,3,-0.064649307
3.747933,-1,-50,-8,-3,-2,-1,-1,-5,-0.064649307
3.747936,-10,-23,-4,-2,-2,0,0,6,-0.064649307
3.758813,2,11,3,0,-2,-2,-2,-1,-0.064649307
3.758845,-3,8,0,0,1,0,-2,-3,-0.064649307
3.767445,14,-1,-1,-2,-1,0,-2,-3,-0.064649307
3.767465,-11,-11,-1,-2,-1,-1,1,5,-0.064649307
3.782493,-12,-6,-2,-1,-3,-6,-1,-1,-0.064649307
3.782513,-14,-5,-4,-4,-3,2,1,-6,-0.064649307
3.783724,9,-5,-2,-1,-1,-2,-5,5,-0.064649307
3.784931,-8,-13,-2,-2,-1,-2,-2,-4,-0.064649307
3.804668,-3,22,-2,-2,-1,0,-3,-5,-0.064649307
3.804702,7,11,1,-1,0,0,-1,-1,-0.064649307
3.806602,-8,-42,-1,-1,-2,-3,0,3,-0.064649307
3.806613,5,2,-1,-1,-1,-2,-2,0,-0.064649307
3.818608,-2,4,1,0,-3,-1,3,-4,-0.064649307
3.818627,1,-5,-2,-1,-1,0,-1,-2,-0.064649307
3.833172,0,15,-1,-1,0,1,-2,-6,-0.064649307
3.833192,-7,1,0,1,1,-2,-2,-3,-0.064649307
3.842744,14,-6,-1,0,-1,0,-2,1,-0.064649307
3.842773,3,-10,-2,-1,-3,0,-2,-1,-0.064649307
3.843585,-15,14,4,0,2,0,1,-4,-0.064649307
3.843606,8,-47,-6,-3,0,-1,-1,5,-0.064649307
3.864759,-1,14,-1,-2,1,-1,-2,-4,-0.064649307
3.864783,-4,11,-3,0,-3,-2,-2,-2,-0.064649307
3.867064,2,16,2,1,2,2,1,-5,-0.064649307
3.867071,3,19,2,0,-2,1,0,-2,-0.064649307
3.878167,3,-6,-3,-2,-1,-1,-2,-3,-0.064649307
3.878184,7,-16,-1,-1,0,0,1,-4,-0.064649307
3.887122,-14,23,-3,-2,-4,-6,-2,-1,-0.064649307
3.887130,8,0,-2,-1,-3,-1,-3,-1,-0.064649307
3.902911,-7,2,-1,-1,-2,-2,-5,-4,-0.064649307
3.902918,-1,-15,-2,-2,2,0,-1,0,-0.064649307
3.903691,3,7,-1,-2,-1,-1,-1,3,-0.064649307
3.903702,-1,22,1,2,-1,0,-3,-3,-0.064649307
3.924894,-17,-57,-2,-2,-1,-1,0,-2,-0.064690011
3.924911,-31,-37,0,2,-3,-1,1,8,-0.064690011
3.926904,3,-9,-7,-5,-3,-2,-2,-1,-0.064690011
3.926911,-4,48,2,0,1,-1,2,-3,-0.064690011
3.938533,7,-50,2,-1,1,-2,-1,4,-0.064690011
3.938564,13,-4,0,1,-3,-1,0,1,-0.064690011
3.948745,-7,25,-1,0,1,-1,-4,-5,-0.064690011
3.948758,-5,-7,-2,0,-1,-2,0,-3,-0.064690011
3.964047,9,30,-2,0,-2,-1,0,7,-0.064690011
3.964055,0,-1,-3,-3,0,-1,-2,-3,-0.064690011
3.964058,-4,-2,0,1,-1,-1,-2,-5,-0.064690011
3.964060,3,-3,-1,-2,-2,-1,3,0,-0.064690011
3.984740,-4,12,1,0,1,4,4,-4,-0.064690011
3.986069,8,3,-3,-1,-2,-15,-16,-3,-0.064690011
3.986180,0,48,1,0,-3,1,1,1,-0.064690011
3.986187,-13,-74,-3,0,-2,-4,1,1,-0.064690011
3.998313,5,13,-3,-1,-1,1,-2,-7,-0.064690011
3.998332,3,20,3,0,-2,5,4,1,-0.064690011
4.009412,14,6,0,-1,0,0,-1,0,-0.064690011
4.009419,-13,-29,-6,-3,0,-2,-2,-1,-0.064690011
4.022120,1,16,3,2,0,-1,-3,4,-0.064690011
4.022144,3,9,1,0,-1,0,5,0,-0.064690011
4.024947,8,-20,0,-1,-1,-2,-1,-4,-0.064690011
4.024960,-4,-3,-2,-1,-2,2,-1,0,-0.064690011
4.045238,-6,57,-1,-1,-1,-3,-1,-2,-0.064690011
4.045261,19,-89,-7,-2,-5,0,3,1,-0.064690011
4.046221,-24,-17,-1,0,1,1,-1,1,-0.064690011
4.046247,9,18,-1,-4,1,-3,-1,-2,-0.064690011
4.058134,-5,-6,1,0,0,-2,-1,1,-0.064690011
4.058170,-4,26,1,-2,0,-2,-2,-1,-0.064690011
4.067401,-11,-11,-3,0,-1,0,0,2,-0.064690011
4.067409,11,26,1,-1,-1,-1,-1,-2,-0.064690011
4.082169,-10,-40,-3,-2,-1,0,0,5,-0.064690011
4.082191,-20,11,-4,-3,1,-1,-2,-9,-0.064690011
4.083799,-2,-12,-3,-1,0,-1,1,2,-0.064690011
4.083807,-13,18,0,-2,-2,-2,-2,1,-0.064690011
4.104460,5,-1,-3,-2,-3,-2,-3,-6,-0.064690011
4.104492,6,18,-1,-1,0,3,-1,3,-0.064690011
4.110567,-5,-7,0,0,-4,-1,-2,3,-0.064690011
4.110583,6,1,-1,1,-1,-1,-3,-3,-0.064690011
4.118233,-3,6,0,-2,-1,0,0,-2,-0.064690011
4.118254,-9,-11,-1,-2,0,0,-2,1,-0.064690011
4.129165,7,16,0,0,-2,-1,0,-3,-0.064690011
4.129172,9,-5,0,-1,-1,1,1,-1,-0.064690011
4.142324,-2,-53,-5,-1,-3,-2,1,3,-0.064690011
4.142499,9,22,-2,0,-1,0,0,-3,-0.064690011
4.144057,-13,-10,-1,-1,0,-1,-2,1,-0.064690011
4.144061,16,6,-3,0,-2,0,0,0,-0.064690011
4.165245,-17,10,0,0,-1,2,0,2,-0.064690011
4.165252,-5,6,-3,-2,-2,0,-2,-2,-0.064690011
4.166270,-6,5,2,0,0,0,1,-1,-0.064690011
4.166319,-10,-36,-1,1,-3,-3,0,1,-0.064690011
4.187097,5,15,-2,-3,0,-2,-2,-7,-0.064549792
4.187116,3,4,0,-1,-1,-2,-3,1,-0.064549792
4.188663,4,3,-1,-1,-1,3,4,3,-0.064549792
4.188672,4,8,-1,-1,-2,-15,-12,-1,-0.064549792
4.202060,-5,21,1,-1,-2,1,-3,-1,-0.064549792
4.202080,1,-8,-3,0,-1,-1,5,-2,-0.064549792
4.203794,2,-8,-2,-1,-1,0,-2,-7,-0.064549792
4.203807,-10,-27,-5,-5,0,4,2,-1,-0.064549792
4.224540,12,34,2,0,-1,-1,-2,-8,-0.064549792
4.224564,-4,46,3,0,-1,-4,0,0,-0.064549792
4.227659,5,-55,-3,-2,-1,0,0,-2,-0.064549792
4.227665,8,4,-1,0,0,4,-2,-3,-0.064549792
4.247375,-8,4,-3,-1,-1,-3,-1,-3,-0.064549792
4.247398,-4,-11,-1,0,0,4,1,-3,-0.064549792
4.249036,0,17,1,-1,-1,-5,-4,-4,-0.064549792
4.249043,-4,0,0,-1,-2,3,0,1,-0.064549792
4.263028,10,25,1,-1,-1,-2,-3,-3,-0.064549792
4.263045,-2,-48,-2,-2,-2,-3,-3,-5,-0.064549792
4.263780,6,0,-1,-1,-1,0,0,1,-0.064549792
4.263797,-9,13,0,0,2,1,-2,-2,-0.064549792
4.284931,1,14,-3,0,0,-1,3,-5,-0.064549792
4.284952,0,-10,2,0,1,1,-3,1,-0.064549792
4.286943,-7,-11,-2,-2,-2,-5,-2,-1,-0.064549792
4.286949,7,8,0,-1,0,0,-2,-1,-0.064549792
4.307111,-6,-16,-1,1,-2,0,-3,-1,-0.064549792
4.307126,-2,-3,0,-1,0,-1,1,0,-0.064549792
4.308628,6,35,1,0,-2,0,-2,-3,-0.064549792
4.308707,-2,-47,-1,-1,-2,-2,0,-1,-0.064549792
4.322042,5,6,-3,-1,1,-1,0,2,-0.064549792
4.322049,7,-5,-1,0,-2,-1,1,2,-0.064549792
4.323535,-23,10,-2,-1,-1,0,-1,-2,-0.064549792
4.323549,2,7,-1,-1,-3,-1,1,-1,-0.064549792
4.344820,0,9,2,1,-1,0,0,-1,-0.064549792
4.347038,-9,-10,-5,-3,-2,-1,-2,1,-0.064549792
4.347045,14,-17,-3,-2,1,0,-1,-1,-0.064549792
4.347048,-1,1,-1,-1,2,-3,-1,-3,-0.064549792
4.368525,-6,-10,-3,-1,-4,-4,-2,-1,-0.064549792
4.368533,-8,19,0,1,-2,0,-2,-7,-0.064549792
4.368612,0,-10,0,-2,-2,-2,-2,-2,-0.064549792
4.368619,-7,6,1,0,-4,-2,2,4,-0.064549792
4.383391,-2,-11,-1,-1,-2,0,-1,-1,-0.064549792
4.383398,1,9,-1,-1,-2,2,-2,-2,-0.064549792
4.388280,3,31,1,0,0,-4,0,1,-0.064549792
4.388299,-14,-60,-3,-1,-4,1,-1,2,-0.064549792
4.404588,10,-2,-1,-1,3,-1,-3,-8,-0.064549792
4.404609,-28,-21,-4,-1,-1,-3,4,2,-0.064549792
4.406104,0,-14,0,0,0,-1,1,2,-0.064549792
4.406115,9,41,2,1,1,0,0,-3,-0.064549792
4.427158,-2,-20,-3,-2,-3,0,-1,2,-0.064730720
4.427183,-3,-7,-1,1,-1,6,4,3,-0.064730720
4.428826,2,13,0,1,0,-10,-5,-1,-0.064730720
4.428846,18,66,3,0,2,3,1,-5,-0.064730720
4.442019,-24,-81,-4,-4,-4,-2,3,9,-0.064730720
4.442065,14,19,-1,-2,-1,-4,-4,-5,-0.064730720
4.448264,16,13,0,1,1,2,1,-3,-0.064730720
4.448292,-4,-2,-3,0,-2,-1,1,0,-0.064730720
4.464694,-2,11,-2,-2,1,-3,-4,3,-0.064730720
4.464718,11,8,0,-1,0,0,-4,-1,-0.064730720
4.466226,-8,-30,-1,-1,-1,1,-1,-1,-0.064730720
4.466245,4,5,-2,-2,-2,-3,-3,1,-0.064730720
4.487125,6,25,-2,-1,0,0,0,-7,-0.064730720
4.488899,8,-23,0,-2,-2,-3,-2,5,-0.064730720
4.488909,-4,20,0,-1,-1,0,-3,-4,-0.064730720
4.488911,-4,-3,-2,0,0,0,-1,-3,-0.064730720
4.501602,-10,-20,-4,-3,-2,2,-1,2,-0.064730720
4.501621,2,30,3,0,0,-2,-2,1,-0.064730720
4.508203,0,-12,-3,0,-2,-1,2,0,-0.064730720
4.508220,-11,5,-1,-2,-2,-1,0,2,-0.064730720
4.524552,19,-2,-1,2,-1,-2,-4,-4,-0.064730720
4.524587,-16,-33,-3,0,-2,-4,1,0,-0.064730720
4.526199,-4,19,-2,-2,-2,1,-1,-3,-0.064730720
4.526220,-13,-65,-4,-3,-4,-2,-1,2,-0.064730720
4.547434,11,20,0,2,-1,0,-1,1,-0.064730720
4.547465,4,21,4,-1,0,0,0,-1,-0.064730720
4.549754,-32,-53,-10,-3,-6,-3,-1,3,-0.064730720
4.549762,0,-21,-3,-1,-2,0,1,2,-0.064730720
4.561349,8,17,3,-3,-1,-1,0,-2,-0.064730720
4.561366,-25,5,-2,0,0,-1,0,-2,-0.064730720
4.568259,17,-31,-2,0,-1,-4,-2,-1,-0.064730720
4.568283,-5,16,1,-1,0,-1,-4,-3,-0.064730720
4.584616,-16,-8,-1,1,0,-2,-1,-3,-0.064730720
4.584629,10,13,-2,-1,-2,-2,-1,-5,-0.064730720
4.586164,4,8,-1,-1,-3,0,-2,3,-0.064730720
4.586184,-5,0,-1,-1,-1,2,-2,-1,-0.064730720
4.607155,3,3,0,-2,-2,0,-1,-6,-0.064730720
4.607186,4,4,0,-1,-1,-1,-2,1,-0.064730720
4.609449,-1,14,3,0,-1,-2,0,-3,-0.064730720
4.609456,12,-14,-2,-3,-1,0,0,-3,-0.064730720
4.621463,-21,-37,-3,1,-1,-1,1,2,-0.064730720
4.621482,-5,9,-2,-1,-1,-2,-1,-5,-0.064730720
4.628277,-3,-7,-4,-1,0,1,-2,-5,-0.064730720
4.628294,-3,24,1,0,-2,-3,0,-2,-0.064730720
4.644495,3,27,0,-3,0,-4,-1,-1,-0.064730720
4.644560,-3,-49,-3,-2,-1,1,-3,-4,-0.064730720
4.646636,13,17,0,0,2,0,-4,-5,-0.064730720
4.646648,-1,-7,-1,0,-1,-3,-1,-4,-0.064730720
4.667064,1,42,1,1,0,2,0,-1,-0.064730720
4.667090,-14,-80,-4,-4,-1,-1,-1,0,-0.064730720
4.668701,9,33,2,-4,0,0,-2,-1,-0.064730720
4.668765,25,17,1,-1,-2,1,-1,-3,-0.064730720
4.681435,-21,-12,-2,-2,-1,-2,-1,-4,-0.064626689
4.681460,6,12,-3,-1,-1,1,-1,-6,-0.064626689
4.688238,-13,16,1,0,-4,-2,1,1,-0.064626689
4.688270,-5,-14,-3,-2,0,-2,-1,-1,-0.064626689
4.704717,1,-7,-3,1,-1,-1,-4,-5,-0.064626689
4.704751,6,50,2,0,1,-2,0,0,-0.064626689
4.707179,-2,-68,-2,1,-1,4,3,5,-0.064626689
4.707185,-8,-16,-3,-3,-1,-7,-3,-3,-0.064626689
4.727349,9,10,-1,0,-1,2,0,-3,-0.064626689
4.727356,-6,10,-2,0,-1,-2,-1,1,-0.064626689
4.728479,3,21,-1,0,3,-3,-3,-7,-0.064626689
4.728514,-6,14,1,1,-1,0,3,1,-0.064626689
4.742419,6,-20,-1,-3,-1,2,-2,2,-0.064626689
4.742426,6,4,1,0,-2,-3,-6,-8,-0.064626689
4.750773,3,4,-1,-3,-1,0,2,-1,-0.064626689
4.750783,-9,2,0,0,-2,1,0,1,-0.064626689
4.764773,9,18,0,-3,0,-3,-1,-4,-0.064626689
4.766318,-4,-50,-5,-1,-3,2,2,1,-0.064626689
4.766324,5,32,3,-1,-2,-3,-3,2,-0.064626689
4.766326,-1,-36,-4,1,-2,0,-1,2,-0.064626689
4.787299,19,6,-2,-2,1,-3,-2,-6,-0.064626689
4.787305,-25,21,1,-1,-3,-1,2,5,-0.064626689
4.788596,3,8,-4,0,-2,-1,-4,-4,-0.064626689
4.788604,3,21,2,-2,1,0,-5,0,-0.064626689
4.802573,-3,-2,3,-1,-2,1,0,4,-0.064626689
4.802580,2,25,-1,-2,0,-1,-2,-3,-0.064626689
4.810491,9,-12,-1,1,-3,-1,2,2,-0.064626689
4.810500,-12,-1,-4,-2,1,-1,-1,-3,-0.064626689
4.824518,-1,-1,-2,0,-3,1,1,3,-0.064626689
4.824535,9,0,1,-1,0,-1,-3,0,-0.064626689
4.826932,-17,-13,-4,-2,-2,1,1,2,-0.064626689
4.826938,5,9,0,0,-1,1,0,0,-0.064626689
4.849174,-6,18,1,-1,-4,-2,-1,2,-0.064626689
4.849182,8,-80,-7,-3,-3,4,6,7,-0.064626689
4.849185,1,32,1,0,-3,-11,-8,-3,-0.064626689
4.849187,-15,-46,-4,0,0,-1,3,3,-0.064626689
4.861102,0,27,2,0,-2,0,-3,-2,-0.064626689
4.863907,6,5,-1,-2,0,-3,-1,-4,-0.064626689
4.871814,-12,-9,1,-1,0,0,1,0,-0.064626689
4.871827,7,10,-1,-1,-3,-1,-2,-2,-0.064626689
4.884608,-14,3,-1,-1,-1,0,-2,5,-0.064626689
4.884637,13,32,0,-1,0,-2,-1,-3,-0.064626689
4.886138,2,2,1,-1,-1,2,0,2,-0.064626689
4.886163,-6,21,2,-2,0,-3,-4,-3,-0.064626689
4.908046,-15,-29,-3,-1,-1,-2,2,-1,-0.064626689
4.908071,11,18,0,1,-1,-1,-4,1,-0.064626689
4.909121,-7,-16,-4,-1,-2,-3,3,0,-0.064626689
4.909155,-3,8,0,-1,0,-1,-2,-2,-0.064626689
4.920767,2,-16,1,-1,-1,-2,-1,0,-0.064626689
4.920808,-7,6,-1,-3,1,-2,0,-1,-0.064626689
4.930559,-6,-1,-2,-2,-2,0,-4,-7,-0.064626689
4.930564,0,-5,-2,-1,0,1,-1,-2,-0.064626689
4.944564,5,19,-1,-1,-3,-3,1,10,-0.064509088
4.944585,1,25,1,2,0,-2,-6,-9,-0.064509088
4.946159,-26,-10,-1,-2,0,2,2,-2,-0.064509088
4.946180,1,4,0,-1,-1,-3,0,7,-0.064509088
4.967255,-1,-3,-1,-1,0,0,-3,-8,-0.064509088
4.967275,0,11,-5,-2,-1,-3,-1,-5,-0.064509088
4.969430,6,-14,-4,0,3,2,0,0,-0.064509088
4.969441,11,23,-1,-1,-1,1,-1,-3,-0.064509088
4.980981,-39,-37,-4,0,-1,0,0,-2,-0.064509088
4.981000,-1,7,4,0,0,0,-1,0,-0.064509088
4.991606,2,-7,-4,-3,-3,0,1,3,-0.064509088
4.991612,0,17,-1,-1,0,5,3,-11,-0.064509088
5.004538,16,17,-1,-2,-1,-14,-12,3,-0.064509088
5.004546,-10,-16,0,-2,-2,0,0,-3,-0.064509088
5.005975,3,41,0,-1,-1,-2,-1,-4,-0.064509088
5.005983,4,-43,-2,-1,-3,-1,0,-3,-0.064509088
5.027549,8,0,0,0,1,0,1,-2,-0.064509088
5.027583,-24,-2,0,0,1,0,-2,-1,-0.064509088
5.030427,26,17,0,-1,-2,-4,-1,-3,-0.064509088
5.030435,-5,8,1,-3,-2,-3,-2,-3,-0.064509088
5.040774,0,-18,-1,0,1,0,1,-3,-0.064509088
5.040800,17,14,-1,0,-2,-1,-3,-1,-0.064509088
5.050104,-16,-42,0,-3,-1,3,1,-1,-0.064509088
5.050118,-3,23,-3,0,-3,-1,-2,6,-0.064509088
5.064542,5,-50,-3,-3,-2,2,2,3,-0.064509088
5.064560,-1,5,0,1,-1,-1,-1,-3,-0.064509088
5.066142,-3,19,1,-1,0,0,-4,0,-0.064509088
5.066169,1,0,-1,0,-1,-5,2,-1,-0.064509088
5.087224,0,27,-5,-5,-1,2,-2,-7,-0.064509088
5.087259,3,1,0,-3,-2,-2,1,-1,-0.064509088
5.089862,5,-4,1,-2,-1,-2,-3,2,-0.064509088
5.089868,-3,25,-3,-2,0,-4,-1,-3,-0.064509088
5.100919,5,-63,-3,-1,0,0,1,2,-0.064509088
5.100944,12,15,-2,-2,-2,-1,1,-2,-0.064509088
5.111430,-18,-5,-2,-1,-2,-3,-1,2,-0.064509088
5.111435,8,4,1,-1,1,0,-3,-3,-0.064509088
5.127229,-24,13,-1,-2,-1,1,1,4,-0.064509088
5.127236,-9,-1,-1,-2,-1,-1,0,0,-0.064509088
5.127239,-1,-16,-1,-1,-2,-2,1,-5,-0.064509088
5.127241,3,-5,-1,-1,-2,0,0,2,-0.064509088
5.147676,7,32,3,0,-1,0,-1,0,-0.064509088
5.147915,-2,-46,-2,-3,-1,-2,-2,-1,-0.064509088
5.148799,8,-5,-3,-1,1,1,2,-1,-0.064509088
5.148829,-6,-5,0,-3,-1,-4,-1,5,-0.064509088
5.169527,0,3,0,-1,-3,0,2,-2,-0.064509088
5.169553,-2,-5,0,-1,0,-4,-2,-3,-0.064509088
5.171576,6,1,1,-2,-2,0,-4,5,-0.064509088
5.171620,-15,-22,-1,0,-1,1,-2,1,-0.064509088
5.184698,9,8,-2,-2,0,-2,0,-1,-0.064509088
5.184718,10,48,2,0,0,0,-1,-5,-0.064509088
5.186886,-1,-66,-7,-3,-2,-2,1,1,-0.064509088
5.186894,-4,8,-2,-2,0,-1,-7,-5,-0.064509088
5.206937,3,13,0,-2,0,0,1,1,-0.064807616
5.206981,0,9,1,0,0,-2,-2,1,-0.064807616
5.208457,9,35,2,1,1,-1,-1,-1,-0.064807616
5.208492,-4,-24,-3,0,-2,-1,0,1,-0.064807616
5.229924,-10,-15,-2,2,-1,-1,-1,-3,-0.064807616
5.229957,10,6,-3,-2,-4,4,4,3,-0.064807616
5.232444,-10,-5,-2,0,-3,-13,-15,-3,-0.064807616
5.232455,-4,-50,-6,-1,-1,0,1,0,-0.064807616
5.245048,2,14,1,-1,-1,-3,0,0,-0.064807616
5.245084,-19,-12,0,-2,-3,0,-1,0,-0.064807616
5.248206,4,13,-1,-1,-1,3,4,-2,-0.064807616
5.248214,9,28,3,-2,-4,-1,2,11,-0.064807616
5.266990,28,-14,-5,-3,0,-1,-5,-7,-0.064807616
5.267003,19,-24,-5,-1,0,-2,-1,-2,-0.064807616
5.268514,-44,9,-1,0,-2,-1,3,3,-0.064807616
5.268536,8,-22,1,-2,-1,-2,-3,-1,-0.064807616
5.289634,-5,10,-1,-2,0,1,1,-2,-0.064807616
5.289658,-17,-7,-1,0,1,-2,0,0,-0.064807616
5.292266,23,25,-1,-3,-4,-1,2,3,-0.064807616
5.292273,-2,3,-2,0,-1,-1,0,-2,-0.064807616
5.304133,-11,7,-1,0,0,-4,1,1,-0.064807616
5.304152,6,13,-2,-2,-2,-2,-5,1,-0.064807616
5.311147,-10,-16,0,-2,-1,-2,-1,-2,-0.064807616
5.311176,-13,5,-2,0,-1,1,0,-3,-0.064807616
5.327512,-2,39,2,-1,-3,-2,0,-3,-0.064807616
5.327537,-11,-62,-5,-2,-2,-3,-1,-1,-0.064807616
5.329853,3,13,-2,0,0,2,0,-2,-0.064807616
5.329860,6,32,1,-1,-1,-3,-4,-6,-0.064807616
5.349524,-1,9,0,-1,-3,-1,-3,-4,-0.064807616
5.349545,10,-7,-2,-1,-1,2,-3,-2,-0.064807616
5.351486,1,7,0,0,1,2,-2,-2,-0.064807616
5.351492,-1,7,-1,0,-1,-3,-1,-1,-0.064807616
5.364025,0,-12,3,-1,-1,-1,-1,-5,-0.064807616
5.364048,-13,-7,-2,-1,-4,-1,-2,-6,-0.064807616
5.370874,19,5,-3,2,0,0,-2,-3,-0.064807616
5.370902,-17,-9,-1,0,-1,3,4,0,-0.064807616
5.387185,-10,22,0,-3,-2,-12,-17,-6,-0.064807616
5.387213,-8,-8,-2,-3,-1,-1,2,4,-0.064807616
5.388831,-1,-31,-1,0,-3,0,3,0,-0.064807616
5.388857,6,10,1,-1,0,0,-4,-2,-0.064807616
5.409613,-6,-17,-4,-2,1,1,2,0,-0.064807616
5.409685,-1,17,2,-2,-1,1,-2,-1,-0.064807616
5.411079,7,-4,-1,-3,-1,-1,0,1,-0.064807616
5.412233,-26,-11,-2,-1,-2,-4,-5,-3,-0.064807616
5.424106,21,-16,-2,0,-3,1,3,6,-0.064807616
5.424137,-6,-11,-2,-1,-2,-3,-1,-2,-0.064807616
5.430861,7,14,3,0,1,2,0,0,-0.064807616
5.430888,7,-6,-3,-3,0,0,-1,-1,-0.064807616
5.447444,-7,3,-2,2,0,2,1,2,-0.064527180
5.447495,2,18,-1,-1,1,-2,-1,-4,-0.064527180
5.449173,5,21,1,-1,-1,0,-3,-6,-0.064527180
5.449183,5,-33,-1,-1,-2,-5,1,5,-0.064527180
5.469511,-5,-2,-2,-1,-1,2,0,-5,-0.064527180
5.469521,-5,4,0,1,3,-1,-1,3,-0.064527180
5.471152,8,1,0,-1,-1,0,-2,0,-0.064527180
5.471158,16,10,-5,-4,-1,-3,-2,2,-0.064527180
5.485031,-6,-14,-3,-1,0,1,0,-3,-0.064527180
5.485039,-2,7,2,-1,-2,-3,0,1,-0.064527180
5.491012,-4,27,-2,0,-1,-4,1,-1,-0.064527180
5.491045,-6,-51,-1,0,0,-1,-1,-4,-0.064527180
5.507009,-8,-5,-1,-1,0,2,0,3,-0.064527180
5.507033,-2,-2,0,-2,-1,-1,0,1,-0.064527180
5.509644,-6,10,1,-1,0,1,-3,-4,-0.064527180
5.509650,12,23,2,-1,1,0,-1,-3,-0.064527180
5.531657,-3,-21,-2,-2,-2,-3,0,0,-0.064527180
5.531665,8,6,-3,1,-2,-2,1,1,-0.064527180
5.531668,-6,-23,-2,-3,-1,-1,-2,-2,-0.064527180
5.531670,4,15,0,-2,-2,0,1,0,-0.064527180
5.544256,-6,-18,0,0,0,-1,-2,3,-0.064527180
5.545450,-11,30,-3,-2,-3,0,-2,-2,-0.064527180
5.550637,4,-35,-5,-2,0,-2,-1,-9,-0.064527180
5.550662,-4,4,-1,0,-3,-2,2,1,-0.064527180
5.567168,1,5,-1,-1,-2,1,-2,-1,-0.064527180
5.567187,8,23,4,0,0,-1,-3,-6,-0.064527180
5.568664,2,-35,-4,0,-2,2,2,5,-0.064527180
5.568683,-29,28,2,-2,-2,-3,0,-2,-0.064527180
5.590228,2,-59,-7,-3,-1,2,-2,-2,-0.064527180
5.590278,13,29,4,-1,1,2,-1,1,-0.064527180
5.592949,-28,-49,-6,-2,-2,-2,1,1,-0.064527180
5.592969,2,8,0,0,1,3,0,0,-0.064527180
5.604006,11,24,1,-1,-2,0,1,1,-0.064527180
5.604044,-1,-37,-4,0,-1,-2,-4,-1,-0.064527180
5.611081,2,0,-1,-1,-2,-1,1,-4,-0.064527180
5.611102,-4,6,0,-1,1,0,0,3,-0.064527180
5.627587,-1,4,0,0,-2,-2,-2,-7,-0.064527180
5.627610,-2,-18,-1,-3,-3,-1,0,-1,-0.064527180
5.628490,-5,19,-1,-2,0,-2,-3,-4,-0.064527180
5.628509,9,15,-2,1,-1,-1,1,-1,-0.064527180
5.649568,7,1,0,-1,0,-2,-1,-4,-0.064527180
5.649595,7,3,0,0,-2,-2,-1,-5,-0.064527180
5.651493,-4,13,0,0,0,-2,-1,-1,-0.064527180
5.651500,6,-9,-1,0,-3,0,-1,4,-0.064527180
5.663907,-22,-5,-3,-1,-2,0,1,0,-0.064527180
5.666047,-3,0,-1,-1,0,0,0,-2,-0.064527180
5.673722,0,3,3,-1,-1,0,-1,3,-0.064527180
5.673762,1,19,1,0,-2,-1,-4,-3,-0.064527180
5.687092,-1,-28,-2,1,1,-3,0,-2,-0.064527180
5.687118,-2,-20,-3,-1,-4,-3,-1,0,-0.064527180
5.688590,-27,1,0,-2,-3,-2,-2,2,-0.064527180
5.688613,12,-2,-3,-3,0,-4,-3,-12,-0.064527180
5.709565,9,22,3,0,-2,0,0,6,-0.064504562
5.709596,-11,-1,-5,-4,-3,-2,-1,-4,-0.064504562
5.710921,8,17,-1,-2,-1,0,-1,-5,-0.064504562
5.711002,4,15,1,0,0,-1,-3,-3,-0.064504562
5.723312,-2,-71,-4,-2,-3,-3,-1,2,-0.064504562
5.723337,-15,-2,0,1,1,-2,0,-6,-0.064504562
5.733532,13,13,1,-1,-1,-3,-4,-4,-0.064504562
5.733539,-5,-1,1,-1,-1,0,-1,0,-0.064504562
5.747022,10,14,-2,-1,1,-3,-2,-2,-0.064504562
5.747040,-15,-6,2,-2,-1,0,-2,-2,-0.064504562
5.748760,-9,-22,-3,1,-1,-1,1,0,-0.064504562
5.748818,1,7,-1,0,-2,1,-1,3,-0.064504562
5.769944,-5,31,1,-2,-2,-4,-3,-2,-0.064504562
5.772147,13,-18,-2,0,0,7,2,-3,-0.064504562
5.772155,-1,23,2,-1,0,-9,-6,1,-0.064504562
5.772157,-4,-43,-6,-1,-3,-1,-1,-1,-0.064504562
5.783185,-4,16,-1,-2,-2,1,2,-4,-0.064504562
5.783205,-2,11,-1,0,-2,-4,-4,-3,-0.064504562
5.792503,11,-1,1,1,-2,1,2,2,-0.064504562
5.792508,-5,14,3,0,-1,-1,-3,-1,-0.064504562
5.807762,-7,-7,0,0,1,0,-1,1,-0.064504562
5.807770,13,20,-3,-1,0,-2,-2,2,-0.064504562
5.808687,-36,-36,-1,-3,-3,-3,2,0,-0.064504562
5.808764,7,15,0,-2,0,-3,-2,-1,-0.064504562
5.829655,2,-7,-1,-1,-4,-1,-2,1,-0.064504562
5.829668,2,0,0,-1,-1,-3,-1,2,-0.064504562
5.832022,9,21,-2,0,1,1,-1,-3,-0.064504562
5.832032,-2,-12,-1,0,0,-3,2,-3,-0.064504562
5.843349,-7,5,-3,-3,-2,2,2,-1,-0.064504562
5.843381,4,12,0,0,0,-4,-3,-3,-0.064504562
5.853573,0,-57,-3,-2,0,1,-1,2,-0.064504562
5.853580,-5,10,-1,-1,-3,1,2,2,-0.064504562
5.869585,-22,16,-3,-1,-1,-2,-2,5,-0.064504562
5.869592,-2,-8,1,0,-1,-3,-3,-3,-0.064504562
5.869595,5,11,-2,-2,-3,2,0,3,-0.064504562
5.869598,13,-13,0,-3,-2,-2,-3,-2,-0.064504562
5.889497,6,7,0,0,1,-1,-2,-3,-0.064504562
5.889524,-9,-7,-2,-1,-1,-2,-1,2,-0.064504562
5.892085,10,10,-3,-1,-3,-1,2,2,-0.064504562
5.892090,-3,13,-2,-1,1,0,-2,-2,-0.064504562
5.903299,0,-40,-1,-3,-2,-3,-3,0,-0.064504562
5.903322,-5,14,-1,-3,-1,1,-2,2,-0.064504562
5.913708,24,-5,2,1,2,3,2,-5,-0.064504562
5.913715,-26,-60,-7,-2,-2,-7,-7,0,-0.064504562
5.927133,5,24,3,1,1,3,2,8,-0.064504562
5.930363,18,13,-1,-1,-2,-4,-1,-3,-0.064504562
5.930380,4,22,0,-1,0,3,1,-5,-0.064504562
5.930386,7,-30,-3,-2,-3,2,3,4,-0.064504562
5.949614,-14,1,1,2,-3,-3,-2,-4,-0.064504562
5.949634,7,-12,-5,-2,0,0,-4,-2,-0.064504562
5.951135,-3,25,0,-1,-3,-2,-2,1,-0.064504562
5.951159,-18,5,0,-2,1,1,4,1,-0.064504562
5.963251,22,8,1,0,-1,-3,-2,-3,-0.064794046
5.963260,-5,71,3,2,0,-3,1,-4,-0.064794046
5.972716,-26,-97,-10,-2,0,0,-1,3,-0.064794046
5.972724,18,39,3,-2,-2,0,2,-2,-0.064794046
5.987037,-4,10,-2,-2,0,0,-1,1,-0.064794046
5.987056,5,20,4,0,0,1,1,1,-0.064794046
5.988573,-7,-15,-3,-1,-1,-3,-2,3,-0.064794046
5.988649,-15,-17,-3,0,2,2,-4,-4,-0.064794046
6.009513,10,11,-1,-2,-1,0,-2,-4,-0.064794046
6.009525,-8,-40,-5,-2,-3,-1,1,3,-0.064794046
6.011091,16,28,3,0,-3,-3,-2,-3,-0.064794046
6.011106,-5,20,1,0,-1,0,-2,0,-0.064794046
6.024165,11,-10,-3,-2,-1,-3,-1,-2,-0.064794046
6.024178,-22,-46,-3,-3,-3,-1,-3,1,-0.064794046
6.033349,2,16,1,-2,2,2,0,-3,-0.064794046
6.033361,2,30,2,1,0,-3,-1,-2,-0.064794046
6.047121,-18,11,0,-2,-3,-1,1,6,-0.064794046
6.047142,5,-17,-4,-3,-2,-1,-1,-5,-0.064794046
6.049086,16,20,-1,1,-1,-1,-2,1,-0.064794046
6.049099,-21,-18,-2,-3,-3,-2,-1,3,-0.064794046
6.070340,2,4,1,-1,0,0,-2,-7,-0.064794046
6.070346,6,-10,-2,-2,0,-1,0,-3,-0.064794046
6.071119,-4,18,3,0,-2,-2,-1,2,-0.064794046
6.071129,19,-4,-1,0,-2,-1,-3,-7,-0.064794046
6.092143,8,-5,-3,-1,-2,1,-2,-4,-0.064794046
6.092297,-28,17,-1,0,-3,3,0,3,-0.064794046
6.094968,5,10,2,-1,0,-3,0,-2,-0.064794046
6.094974,9,-7,-3,0,-2,-2,-1,-5,-0.064794046
6.107031,-9,11,1,0,0,-2,-4,-2,-0.064794046
6.107049,-12,-51,0,-1,-2,-1,-1,-3,-0.064794046
6.109437,-2,17,-2,-3,-2,-2,-3,-3,-0.064794046
6.109446,-4,-10,-2,-1,-2,-1,0,-1,-0.064794046
6.129779,-1,12,1,-2,-3,2,1,-5,-0.064794046
6.129811,4,6,-1,1,1,-5,1,-5,-0.064794046
6.132425,-13,-6,-2,0,0,0,-3,-2,-0.064794046
6.132430,9,-4,0,-1,-1,1,2,2,-0.064794046
6.152360,-12,-32,-6,-1,0,-1,-1,1,-0.064794046
6.152439,6,7,0,-1,0,1,1,-2,-0.064794046
6.153623,0,-7,-4,-2,-4,0,0,-1,-0.064794046
6.153641,-4,4,2,1,-1,-3,-2,-1,-0.064794046
6.167166,-4,-1,-1,-2,-2,0,-1,-1,-0.064794046
6.167190,-2,-9,-1,0,-2,1,-3,0,-0.064794046
6.168624,0,21,1,0,0,-1,-4,0,-0.064794046
6.168678,-4,-26,-2,-3,0,-2,1,0,-0.064794046
6.189622,0,-18,-4,-3,-1,1,-2,-5,-0.064794046
6.189646,0,-4,0,0,-1,-2,-1,0,-0.064794046
6.193370,2,10,-2,0,-1,-1,-1,-4,-0.064794046
6.193386,1,3,-3,-1,-2,1,1,1,-0.064794046
6.212486,-4,-6,-2,1,-1,-3,0,0,-0.064794046
6.212512,9,6,-2,-2,-1,0,-3,1,-0.064794046
6.213910,4,3,0,0,1,3,-3,-5,-0.064794046
6.213940,-15,-13,-3,-2,-1,-1,1,-1,-0.064794046
6.227006,-1,14,-1,-1,-1,-2,-1,3,-0.064558841
6.227041,5,12,-2,0,1,1,-3,-7,-0.064558841
6.228667,-1,-1,0,-1,-1,-1,0,-6,-0.064558841
6.228688,-9,-17,-2,-1,-4,-4,0,9,-0.064558841
6.249556,8,-7,1,-2,-2,-1,-2,-3,-0.064558841
6.249576,-6,39,2,-1,-1,-1,-1,-5,-0.064558841
6.251021,-9,-32,-5,-2,-3,-3,-1,1,-0.064558841
6.251029,38,47,2,1,0,3,-4,-4,-0.064558841
6.274747,-18,-1,1,-1,-1,-2,2,-2,-0.064558841
6.274761,-2,11,1,-2,-1,-1,-2,-2,-0.064558841
6.274767,-4,-9,0,-1,0,-3,0,1,-0.064558841
6.274772,-1,-8,-2,-3,-3,-2,-4,-3,-0.064558841
6.286401,10,19,2,2,1,1,-4,1,-0.064558841
6.286419,6,-5,-2,0,-3,-1,0,2,-0.064558841
6.293416,-7,15,0,-2,-1,0,0,-1,-0.064558841
6.293439,-9,-22,-2,-1,0,-1,-2,-1,-0.064558841
6.309724,-9,-15,-1,0,-2,-1,-1,-4,-0.064558841
6.309738,-2,-11,-2,-3,0,0,-1,3,-0.064558841
6.311326,-8,-3,0,0,-2,-1,-2,0,-0.064558841
6.311331,6,54,2,0,1,2,0,-3,-0.064558841
6.332255,-4,-49,-6,-1,-5,-1,2,0,-0.064558841
6.332278,16,-11,0,-1,-2,0,-1,-1,-0.064558841
6.334313,-17,1,-3,-2,-4,-2,-2,0,-0.064558841
6.334325,-21,2,-1,0,1,0,-2,3,-0.064558841
6.346973,7,3,-2,0,0,1,-2,0,-0.064558841
6.347006,-2,-18,-2,-1,-1,0,-1,1,-0.064558841
6.353233,1,0,0,-3,0,-3,-1,-1,-0.064558841
6.353252,7,-13,0,-2,-2,-3,1,0,-0.064558841
6.369529,-16,54,0,-2,-1,-2,-1,-3,-0.064558841
6.369556,-17,-91,-6,-3,-4,-1,2,4,-0.064558841
6.371246,25,24,0,1,-1,0,1,1,-0.064558841
6.371264,-21,20,0,-1,0,-3,-3,-2,-0.064558841
6.392126,16,-21,-3,-2,-2,-2,-2,0,-0.064558841
6.392152,-4,23,0,3,0,1,1,2,-0.064558841
6.398448,-1,-14,-1,-1,-2,-2,0,-1,-0.064558841
6.398473,-10,-4,-3,-1,0,0,-2,-5,-0.064558841
6.406443,10,11,1,0,0,0,3,7,-0.064558841
6.406467,-1,23,-3,-2,-1,0,-5,-2,-0.064558841
6.415726,6,-50,-4,-2,0,2,-3,-2,-0.064558841
6.415733,-1,7,3,-1,-2,-1,2,1,-0.064558841
6.432330,2,-27,0,1,-2,-2,0,2,-0.064558841
6.432342,1,-1,0,-3,1,-2,0,-3,-0.064558841
6.432346,-13,8,-2,0,-2,-3,0,0,-0.064558841
6.432348,8,2,-2,-5,-4,5,4,-3,-0.064558841
6.452176,-8,20,-2,-1,-2,-11,-14,-3,-0.064558841
6.452197,-8,15,-1,0,-1,2,0,-5,-0.064558841
6.454449,0,-41,-2,-2,-1,-2,3,3,-0.064558841
6.454454,-1,-6,0,0,-1,-3,-1,0,-0.064558841
6.466369,-7,-3,-1,-2,-1,6,-1,-4,-0.064558841
6.466386,-6,9,0,2,-1,-2,-2,-2,-0.064558841
6.473219,3,19,-1,-2,-1,-7,0,-2,-0.064631210
6.473245,-9,-3,0,-2,-1,-1,1,-1,-0.064631210
6.489535,-13,-38,-4,-1,0,1,2,0,-0.064631210
6.489566,-2,-13,-2,-2,-2,-3,-3,-1,-0.064631210
6.491769,2,34,1,-1,0,2,-2,-1,-0.064631210
6.491774,8,-51,-4,0,-1,-4,-1,-4,-0.064631210
6.512345,-3,23,2,0,1,0,-1,-5,-0.064631210
6.512402,12,1,-1,0,-2,0,-2,2,-0.064631210
6.513666,-6,17,0,-1,1,2,-4,-5,-0.064631210
6.513683,-22,-23,-4,-2,-3,0,0,2,-0.064631210
6.527000,10,9,0,-2,-1,-1,1,3,-0.064631210
6.527026,2,19,-3,-1,1,0,-1,-8,-0.064631210
6.535949,15,-5,-4,-3,0,-3,-3,-3,-0.064631210
6.535960,15,24,0,0,1,-1,-4,1,-0.064631210
6.549529,-15,-48,-3,-4,-2,-2,2,-6,-0.064631210
6.549553,9,42,2,-3,0,-3,-3,-2,-0.064631210
6.551158,-46,-38,-2,-1,-5,6,5,3,-0.064631210
6.551164,-14,-11,-2,-1,-2,-15,-15,-2,-0.064631210
6.572061,7,25,-1,0,1,0,-1,-4,-0.064631210
6.572080,-2,-1,0,0,-1,-1,-1,-2,-0.064631210
6.573659,10,24,2,-2,-1,2,0,-3,-0.064631210
6.573682,-2,0,-2,-2,-1,0,4,-2,-0.064631210
6.586514,-5,-13,-1,-1,-1,0,1,-2,-0.064631210
6.586539,2,-26,0,-2,-1,0,1,0,-0.064631210
6.600922,-11,4,-2,-1,-3,-4,0,-3,-0.064631210
6.600930,6,14,2,0,-1,3,1,-4,-0.064631210
6.609844,9,24,0,0,0,-1,-3,-1,-0.064631210
6.609868,-21,-17,-2,-1,-1,-1,0,0,-0.064631210
6.611749,13,-4,-2,0,0,-3,1,1,-0.064631210
6.611755,-25,-19,-5,-4,-1,1,1,-2,-0.064631210
6.632571,-1,3,0,0,-1,-1,1,1,-0.064631210
6.632583,5,12,-2,1,0,-2,-5,-2,-0.064631210
6.633669,11,-29,-1,-2,-3,-1,-3,0,-0.064631210
6.633677,6,17,1,0,0,0,-1,0,-0.064631210
6.646250,11,13,-3,-2,-1,-1,2,-1,-0.064631210
6.646365,-19,-6,0,0,0,-1,0,-7,-0.064631210
6.654672,5,23,1,0,-1,-1,0,0,-0.064631210
6.654694,10,-9,1,0,0,2,4,0,-0.064631210
6.669608,7,8,1,-2,-2,-2,-3,-6,-0.064631210
6.669634,-9,-61,-11,-3,-4,-2,1,5,-0.064631210
6.672099,12,18,-1,1,1,0,-3,1,-0.064631210
6.672152,-19,-14,1,1,-3,-2,-3,-4,-0.064631210
6.692593,-1,7,-1,0,0,-1,-1,2,-0.064631210
6.692636,-5,8,3,-1,-2,0,2,3,-0.064631210
6.696070,1,-11,-3,-2,-1,-3,2,1,-0.064631210
6.696077,9,5,-1,-2,0,2,-6,-2,-0.064631210
6.705771,3,4,0,0,-1,-1,0,5,-0.064631210
6.705807,1,-1,-1,-2,-3,-2,-1,-4,-0.064631210
6.715427,-16,19,3,-2,1,4,2,-4,-0.064631210
6.715439,30,-18,1,0,-2,-1,1,2,-0.064631210
6.729540,-26,-16,-3,-1,-3,-1,1,8,-0.064848325
6.729559,-2,10,1,-1,-2,1,1,-4,-0.064848325
6.731158,-3,-29,-5,-3,-3,1,-3,-1,-0.064848325
6.731203,4,18,0,0,0,-1,1,3,-0.064848325
6.752025,-7,-11,-2,-2,-1,1,-4,-2,-0.064848325
6.752045,4,9,2,0,0,-4,2,3,-0.064848325
6.754227,-13,-1,-1,-1,-3,-4,-1,-2,-0.064848325
6.754234,1,20,-4,-2,-1,0,0,6,-0.064848325
6.765764,3,-26,-2,-2,-2,-1,1,-9,-0.064848325
6.765783,-3,37,2,1,0,-2,-2,4,-0.064848325
6.776596,9,-27,-1,0,0,-2,0,0,-0.064848325
6.776603,24,22,2,-1,0,1,1,-5,-0.064848325
6.789498,-7,-2,-2,2,0,-3,-1,1,-0.064848325
6.789507,12,-7,-1,-3,-3,-3,-3,2,-0.064848325
6.791182,-25,42,0,-2,2,0,-3,-2,-0.064848325
6.791218,-6,-52,-7,-1,-2,3,0,1,-0.064848325
6.812584,22,34,4,2,-4,0,0,2,-0.064848325
6.812680,11,-14,-3,-1,-1,-1,-5,1,-0.064848325
6.815127,5,20,0,0,-2,7,2,-4,-0.064848325
6.815139,3,49,1,-1,-1,-12,-12,-6,-0.064848325
6.825708,-8,2,-3,-2,-1,-3,2,-4,-0.064848325
6.825739,0,-4,0,1,-1,1,0,-2,-0.064848325
6.835895,9,-4,0,-4,-2,-2,-4,-5,-0.064848325
6.835902,-32,-3,-2,0,1,2,4,4,-0.064848325
6.849505,2,-4,-1,-1,0,0,-2,1,-0.064848325
6.849529,-21,1,-3,-1,1,-2,0,-2,-0.064848325
6.851018,14,-4,-1,1,-1,0,-1,-1,-0.064848325
6.851043,-12,-14,3,-1,0,-1,2,-2,-0.064848325
6.872031,1,-42,-6,1,-3,-3,-2,-2,-0.064848325
6.872051,2,37,0,1,3,1,-2,2,-0.064848325
6.874614,-13,-9,0,0,-1,-5,-2,3,-0.064848325
6.874621,-6,3,-2,-2,-2,2,1,-3,-0.064848325
6.886053,3,24,1,-4,0,-1,-2,-3,-0.064848325
6.886075,5,-8,-2,-2,0,-1,-1,-3,-0.064848325
6.897336,-3,-34,-2,0,-1,-4,-2,-3,-0.064848325
6.897344,19,17,-2,3,-1,-2,-5,-3,-0.064848325
6.910151,10,28,0,-3,0,1,0,3,-0.064848325
6.910183,-5,-63,-3,-1,-2,1,0,-5,-0.064848325
6.912738,-17,-18,-8,-6,-1,-1,-1,-2,-0.064848325
6.912743,-12,-3,3,0,-4,0,0,1,-0.064848325
6.932082,9,44,4,2,0,0,0,-4,-0.064848325
6.932100,-2,-61,0,-2,-3,-2,-1,-1,-0.064848325
6.933463,-1,9,4,0,1,-1,-3,-2,-0.064848325
6.933480,-3,23,0,0,2,-1,0,1,-0.064848325
6.945629,-20,-88,-7,-2,-4,0,-1,-4,-0.064848325
6.945636,17,61,0,-5,-1,-1,-4,-3,-0.064848325
6.955252,12,12,3,6,-2,-3,0,-2,-0.064848325
6.955257,17,-5,-2,1,-3,0,-2,-2,-0.064848325
6.969536,-4,-4,-1,0,0,-4,-1,1,-0.064848325
6.969555,-7,11,-1,-2,-3,-2,2,4,-0.064848325
6.971147,17,2,-1,-4,-3,-1,-3,1,-0.064848325
6.971153,-23,-7,-5,-3,0,0,-2,-2,-0.064848325
6.991965,18,44,3,2,2,1,-2,-2,-0.064558841
6.992000,-25,-57,-6,-2,-3,-2,0,2,-0.064558841
6.993561,0,20,-3,-5,1,-2,0,0,-0.064558841
6.993582,-4,-9,0,4,-2,-1,0,-1,-0.064558841
7.005704,-9,0,2,0,-2,-1,-1,-1,-0.064558841
7.005710,-6,28,-1,0,0,0,-3,-3,-0.064558841
7.017442,-2,-1,-2,2,1,-2,-1,-1,-0.064558841
7.017458,8,2,2,-3,3,-2,-2,1,-0.064558841
7.029716,-3,-10,-3,-4,-2,-2,-3,6,-0.064558841
7.029734,21,76,4,2,1,1,-5,-8,-0.064558841
7.031521,-21,-79,-2,-3,0,-2,1,4,-0.064558841
7.031534,5,-33,-3,2,-2,2,1,-1,-0.064558841
7.052038,6,7,-2,-1,0,-1,-3,-4,-0.064558841
7.052050,-1,9,-2,-2,-1,-1,0,-4,-0.064558841
7.053678,11,4,0,0,-2,0,0,5,-0.064558841
7.053690,10,-11,-5,-8,-2,-2,-3,-4,-0.064558841
7.074947,-19,36,1,-2,0,0,0,-4,-0.064558841
7.074979,2,-45,-4,2,-1,-2,1,-2,-0.064558841
7.077522,-3,19,-3,-2,-3,0,-3,-1,-0.064558841
7.077530,-3,-7,0,-2,0,1,4,4,-0.064558841
7.089455,7,17,-3,-6,-2,-2,-5,0,-0.064558841
7.089472,-4,13,3,4,0,-2,2,-1,-0.064558841
7.090943,-32,-25,-2,-1,0,-2,-2,2,-0.064558841
7.090981,4,-2,-3,-1,-1,-1,-1,4,-0.064558841
7.114972,7,-23,0,-2,-2,2,2,4,-0.064558841
7.114979,-5,20,-1,-4,-3,4,-1,-3,-0.064558841
7.114982,17,7,0,0,3,-4,-4,-1,-0.064558841
7.114985,5,-28,-6,-2,-1,0,-2,1,-0.064558841
7.134664,-9,-6,1,1,-2,-3,0,0,-0.064558841
7.134689,5,-14,1,-1,-1,1,-1,3,-0.064558841
7.136359,19,79,-1,-1,-4,0,-2,-4,-0.064558841
7.136368,1,4,3,-2,-4,-2,1,3,-0.064558841
7.149577,20,19,2,1,0,-3,-2,-5,-0.064558841
7.149596,-17,-52,-6,0,-1,-3,0,-2,-0.064558841
7.151232,16,20,0,1,-2,-1,-1,-2,-0.064558841
7.151251,-3,3,-3,-3,-4,-2,0,1,-0.064558841
7.172097,-13,-7,-3,-5,-5,0,-1,-7,-0.064558841
7.172121,8,29,3,3,0,0,0,3,-0.064558841
7.175550,-3,-12,1,-3,0,-1,-1,0,-0.064558841
