timestamp,emg1,emg2,emg3,emg4,emg5,emg6,emg7,emg8,label
10.004060,57,79,3,9,-50,119,7,11,2.198139202
10.004160,-11,-11,9,1,70,-106,-4,13,2.198139202
10.017407,13,45,-21,2,3,104,-45,-24,2.198139202
10.017432,-50,-16,-10,-20,-35,66,-46,-58,2.198139202
10.018838,11,-12,0,13,-4,-63,6,15,2.198139202
10.018874,37,32,18,5,43,30,28,32,2.198139202
10.039666,7,-6,3,0,-35,-46,-22,21,2.198139202
10.039689,21,95,0,3,-21,-8,51,15,2.198139202
10.041227,-14,-3,-3,-3,-12,-14,-82,-14,2.198139202
10.041246,64,-50,-3,-14,-49,-6,-4,-19,2.198139202
10.053540,-54,-7,6,16,-10,-43,13,11,2.198139202
10.053558,-6,-38,-6,-12,-13,3,23,21,2.198139202
10.062869,59,88,4,11,-15,-19,-6,-19,2.198139202
10.062892,-29,-45,-9,-34,-65,11,13,1,2.198139202
10.077228,17,12,-2,7,73,-56,-34,-26,2.198139202
10.077320,33,40,20,39,76,9,48,6,2.198139202
10.078658,-55,-8,-9,15,19,-1,-36,3,2.198139202
10.078684,-105,-89,-28,-15,-24,79,20,-22,2.198139202
10.099979,24,17,0,-23,-74,4,-8,-13,2.198139202
10.100010,-1,41,3,-4,-75,-16,45,31,2.198139202
10.101738,-29,-65,19,-5,24,-58,-10,83,2.198139202
10.101746,24,36,-23,-17,3,19,-22,19,2.198139202
10.113918,-1,-18,-3,-1,-21,-23,-1,-49,2.198139202
10.113942,1,-34,-5,3,11,-31,-13,26,2.198139202
10.123621,-5,-9,-2,-13,-88,63,31,2,2.198139202
10.123629,3,43,16,27,92,-77,-19,-37,2.198139202
10.137438,-6,-4,7,-8,-24,42,52,19,2.198139202
10.137444,11,27,-5,18,44,-45,-74,-4,2.198139202
10.138665,-23,-40,-2,-2,7,-7,34,-23,2.198139202
10.138672,101,78,9,-17,-38,106,2,27,2.198139202
10.159803,52,-3,5,19,-20,-104,-12,16,2.198139202
10.159832,-18,-45,-15,8,-12,-36,20,-33,2.198139202
10.162482,-67,-36,-18,-14,35,-23,-30,-53,2.198139202
10.162494,51,51,22,26,83,65,52,91,2.198139202
10.173713,-72,-56,4,-18,-27,44,-5,7,2.198139202
10.173738,-93,-102,-17,-29,-16,-80,-17,-15,2.198139202
10.182324,51,-93,-10,-12,17,22,13,7,2.198139202
10.182347,2,-10,0,31,54,-13,-36,-33,2.198139202
10.200220,11,52,-2,-1,1,10,2,-15,2.198139202
10.200231,1,63,17,-4,11,17,26,-3,2.198139202
10.200235,-21,16,4,-2,-61,-8,15,-12,2.198139202
10.200237,-17,-97,-20,-5,-58,-41,-16,-15,2.198139202
10.220294,-4,5,-5,-8,37,13,-14,0,2.198139202
10.220313,37,-14,-3,-9,-90,-22,-18,-21,2.198139202
10.222368,29,44,2,19,4,113,1,6,2.198139202
10.222375,-36,28,3,8,-50,-117,0,-28,2.198139202
10.233914,-19,34,5,5,-5,30,27,-19,2.189450300
10.233938,86,43,22,22,68,115,-17,50,2.189450300
10.244861,-108,-43,-27,-7,26,-29,-33,-33,2.189450300
10.244873,-15,57,-11,-14,28,-14,-25,-14,2.189450300
10.257376,26,-5,-13,-11,-78,-33,18,1,2.189450300
10.257403,24,69,4,-25,-25,-20,13,-39,2.189450300
10.260508,69,28,12,32,90,-13,19,85,2.189450300
10.260522,-89,1,6,1,28,16,12,-14,2.189450300
10.280318,12,5,-7,5,-55,15,-6,77,2.189450300
10.280344,-38,-62,-2,-21,-9,51,9,-36,2.189450300
10.281802,44,21,1,-22,-110,-90,-1,12,2.189450300
10.281811,21,-12,3,-9,-67,3,11,1,2.189450300
10.293397,19,33,4,40,122,6,-13,3,2.189450300
10.293417,0,70,15,9,-27,9,-15,32,2.189450300
10.305434,-34,-95,-16,-12,15,28,73,-32,2.189450300
10.305444,-2,15,-6,-13,-13,-21,-26,-1,2.189450300
10.317477,-7,6,1,-39,-103,-60,-9,-2,2.189450300
10.317500,-24,89,11,50,82,68,15,-8,2.189450300
10.320137,-93,7,-8,-19,-18,-32,7,-9,2.189450300
10.320145,-71,35,7,0,78,-22,-2,-23,2.189450300
10.339639,27,6,-5,-8,-40,19,0,-36,2.189450300
10.339655,-14,-19,-4,-7,-28,-26,17,10,2.189450300
10.341072,35,61,13,4,-40,-11,-19,-78,2.189450300
10.341079,18,-43,-1,1,-65,1,-23,63,2.189450300
10.355149,-40,-60,-4,-2,41,-26,-30,-38,2.189450300
10.355159,-58,-26,-1,-4,-41,17,8,-7,2.189450300
10.363861,-14,-43,-19,-14,40,-23,-6,-40,2.189450300
10.363873,42,19,-7,11,-25,-32,-3,-31,2.189450300
10.377776,-17,22,2,10,51,86,33,-6,2.189450300
10.377794,25,-32,-15,-19,-56,-50,0,38,2.189450300
10.379745,45,53,11,7,-64,9,-19,32,2.189450300
10.379758,27,24,13,13,34,-30,20,-5,2.189450300
10.402073,-29,-37,8,27,25,-36,-31,33,2.189450300
10.402085,34,28,-26,-10,-77,-54,37,-22,2.189450300
10.402088,47,103,6,-8,92,126,-39,-2,2.189450300
10.402091,15,-86,-22,-44,-118,12,-7,-11,2.189450300
10.413319,-20,-15,12,43,75,24,-55,-63,2.189450300
10.413338,-19,-43,-6,6,40,-55,-18,-9,2.189450300
10.423385,31,16,2,18,12,-17,-7,22,2.189450300
10.423391,5,41,11,-4,-27,23,24,-9,2.189450300
10.437634,46,30,6,-10,-3,34,33,21,2.189450300
10.437665,-9,10,-2,1,24,19,-50,8,2.189450300
10.439322,-22,-60,-2,-9,3,-27,43,45,2.189450300
10.439327,-71,54,3,5,22,18,-62,-33,2.189450300
10.459676,75,-43,-3,-37,-84,-21,-6,74,2.189450300
10.459698,-5,-3,-8,27,-18,-36,-5,4,2.189450300
10.462243,35,68,-3,-25,-46,-44,-1,-34,2.189450300
10.462253,-76,-76,-10,53,75,11,31,-5,2.189450300
10.482395,15,17,-8,-14,20,43,4,-24,2.163334019
10.482420,7,25,6,-6,1,7,0,-17,2.163334019
10.483607,-4,19,9,10,2,-2,-32,25,2.163334019
10.483621,46,74,11,3,-47,-18,5,34,2.163334019
10.497208,2,60,-10,-19,-33,-7,-2,21,2.163334019
10.497220,-39,-69,-7,-9,52,-1,-36,-17,2.163334019
10.498790,-25,-1,6,-10,-61,9,43,-6,2.163334019
10.498864,-4,22,-11,-5,-49,-9,9,-29,2.163334019
10.519849,-47,76,3,23,23,-3,-19,-8,2.163334019
10.519880,77,24,1,-16,-10,2,69,-16,2.163334019
10.522290,-57,-51,-6,5,36,29,-11,-20,2.163334019
10.522298,4,-60,12,-11,-32,-6,29,14,2.163334019
10.543081,-49,-35,-2,-11,-57,-16,12,-64,2.163334019
10.543097,3,-50,0,9,30,-46,-18,14,2.163334019
10.543816,27,11,1,6,-12,36,5,-8,2.163334019
10.543833,59,79,-1,-5,19,-2,-2,-1,2.163334019
10.557538,64,59,4,-12,-8,21,32,-7,2.163334019
10.557546,-23,-35,-14,-2,20,0,-8,36,2.163334019
10.558728,3,34,-6,-20,-90,-23,-36,3,2.163334019
10.558739,28,14,-4,11,90,67,23,-67,2.163334019
10.579811,19,-19,4,-5,32,-89,13,49,2.163334019
10.579835,-41,7,2,24,72,98,109,-14,2.163334019
10.581579,-30,-26,0,-9,-54,32,-18,17,2.163334019
10.581585,53,24,2,-7,-13,15,-16,29,2.163334019
10.602594,-26,-106,-10,-23,-115,-44,34,-6,2.163334019
10.602626,-50,5,-1,-17,-25,24,-40,25,2.163334019
10.604572,35,-10,-12,-4,17,-97,26,6,2.163334019
10.604581,11,-12,-5,-4,33,-18,3,6,2.163334019
10.617142,35,127,17,14,-18,83,-40,8,2.163334019
10.617185,26,-87,-18,-19,-93,-78,-5,-30,2.163334019
10.623689,8,-77,-2,13,82,106,-11,-26,2.163334019
10.623714,28,71,-7,-15,-17,-13,8,17,2.163334019
10.640443,-45,-121,-23,17,63,-21,-14,97,2.163334019
10.640490,26,114,10,-9,-43,-26,-6,14,2.163334019
10.641848,33,92,0,-10,-51,-26,-66,68,2.163334019
10.641881,31,-86,-3,8,-9,92,68,10,2.163334019
10.662234,0,42,13,28,21,36,-94,-40,2.163334019
10.662251,4,-7,4,-2,40,62,32,-9,2.163334019
10.664689,-16,8,3,7,-64,-36,11,-14,2.163334019
10.664698,-21,4,5,-8,19,40,-26,18,2.163334019
10.676744,-49,-56,-11,11,63,55,-12,-4,2.163334019
10.676765,23,8,0,-13,20,-40,-15,-21,2.163334019
10.683341,7,42,0,22,20,-31,14,-16,2.163334019
10.683370,-46,-82,0,-6,-51,-3,14,39,2.163334019
10.700245,42,74,5,-15,-29,-100,33,-29,2.163334019
10.700252,7,-81,0,10,24,-10,-61,54,2.163334019
10.701320,-73,-49,-4,-10,32,48,29,-13,2.163334019
10.701391,21,65,3,-3,-50,-53,-41,7,2.163334019
10.722477,-26,23,4,-9,85,29,32,-7,2.163334019
10.722501,15,57,10,10,-5,36,-18,-23,2.163334019
10.724596,18,-21,-7,19,118,-31,14,-58,2.163334019
10.724603,-18,47,2,-23,-89,47,37,-68,2.163334019
10.736986,44,-70,8,19,-33,-98,-43,1,2.163334019
10.737018,2,24,0,15,10,111,21,-10,2.163334019
10.743343,-83,-70,-9,-27,-62,17,-19,-49,2.170323901
10.743372,-26,-2,1,22,28,-84,-35,-17,2.170323901
10.759909,50,-46,-4,-19,16,101,32,21,2.170323901
10.759951,97,90,4,-12,-34,-36,3,-2,2.170323901
10.762538,-96,-101,10,16,70,-28,10,29,2.170323901
10.762555,-37,-106,-15,-21,-50,8,-43,12,2.170323901
10.789751,2,10,2,4,-28,5,36,50,2.170323901
10.789775,-92,7,0,4,14,-33,-6,8,2.170323901
10.791186,93,107,7,-4,48,28,-4,16,2.170323901
10.791203,21,30,4,2,24,-17,14,-7,2.170323901
10.796721,11,18,-5,-37,-71,27,1,-48,2.170323901
10.796752,-6,-26,9,50,93,-78,-15,-24,2.170323901
10.803775,61,21,-3,-9,-41,84,50,79,2.170323901
10.803801,-29,-20,-17,12,83,23,-9,-38,2.170323901
10.820205,20,67,25,4,-49,-40,11,31,2.170323901
10.820231,-53,-74,-24,-41,-12,50,-15,-27,2.170323901
10.823080,-68,-51,-12,-17,-101,-29,-14,-54,2.170323901
10.823088,44,-43,3,-3,22,30,13,110,2.170323901
10.842147,-10,64,1,5,25,12,-26,40,2.170323901
10.842163,24,-24,-2,-3,-41,-38,10,-2,2.170323901
10.843787,-1,-45,14,19,32,-12,-26,-8,2.170323901
10.843856,0,44,3,-16,-14,-20,10,65,2.170323901
10.857899,-44,-18,-24,-9,-13,-51,7,-61,2.170323901
10.857912,-29,15,-9,-15,-37,-8,10,14,2.170323901
10.863345,41,22,-14,-29,-27,21,28,-7,2.170323901
10.863365,92,125,22,19,30,-51,-36,-7,2.170323901
10.879718,-5,-51,-13,22,-15,40,11,-18,2.170323901
10.879742,13,58,8,3,2,-88,-25,-24,2.170323901
10.881945,25,40,-12,4,62,123,-11,-2,2.170323901
10.881951,-38,29,9,8,-104,-125,23,-30,2.170323901
10.904089,9,6,-2,-27,16,104,-1,-21,2.170323901
10.904100,-44,-29,-5,6,24,8,-10,4,2.170323901
10.917822,52,42,18,-5,-47,-56,-51,10,2.170323901
10.917834,-51,-79,-12,4,74,20,25,-32,2.170323901
10.917989,-91,-105,-31,-10,-59,-38,-45,-91,2.170323901
10.918013,24,25,2,-21,-44,14,23,1,2.170323901
10.923402,-9,34,7,10,2,-32,11,-34,2.170323901
10.925617,-44,71,7,12,1,19,-3,-22,2.170323901
10.940187,119,6,7,4,23,-24,-22,1,2.170323901
10.940393,-10,91,16,10,-21,47,25,7,2.170323901
10.943749,-40,-90,-25,-22,-14,-29,0,-26,2.170323901
10.943765,-12,-8,-7,-4,-35,109,-6,-11,2.170323901
10.962483,27,86,6,27,-2,-93,30,33,2.170323901
10.962509,18,-9,9,15,87,108,29,-22,2.170323901
10.964770,14,44,21,26,-10,0,26,82,2.170323901
10.964788,-61,-53,-1,-43,47,71,-8,-13,2.170323901
10.976087,51,-28,3,26,-37,-97,-66,10,2.170323901
10.976112,9,7,-6,29,66,55,-21,-67,2.170323901
10.985326,-2,60,13,4,-32,-31,35,-1,2.170323901
10.985331,44,27,-13,-17,-4,-43,-36,11,2.170323901
10.999743,-39,30,-5,-12,-37,30,16,25,2.224323081
10.999759,-28,61,-2,-29,-35,-42,4,8,2.224323081
11.001195,48,52,2,6,9,-23,-32,-14,2.224323081
11.001227,-20,-56,-6,2,1,-10,9,4,2.224323081
11.022637,22,12,3,-6,48,25,11,-9,2.224323081
11.022662,33,-62,-4,-7,-22,-10,-20,61,2.224323081
11.025047,-54,-40,-6,-13,8,-9,4,-43,2.224323081
11.025059,-1,-9,0,-2,-38,-110,0,-15,2.224323081
11.036390,9,38,11,27,127,122,95,-4,2.224323081
11.036431,6,-84,-16,-15,17,-92,-38,-5,2.224323081
11.046386,-51,-90,-7,35,2,-38,-5,-73,2.224323081
11.046397,64,63,-14,-28,-31,8,36,2,2.224323081
11.059926,19,65,6,28,26,-48,-66,17,2.224323081
11.059943,1,50,9,19,19,125,92,8,2.224323081
11.061219,-9,63,19,-5,-12,-28,-21,29,2.224323081
11.061236,4,-51,-9,-13,-53,-30,-51,-80,2.224323081
11.082356,-89,-34,-3,-33,-44,14,14,6,2.224323081
11.082380,-2,22,17,4,-34,-9,-3,54,2.224323081
11.083996,-57,-7,-30,-16,6,-6,-31,1,2.224323081
11.084009,14,-6,7,17,9,9,17,25,2.224323081
11.095834,23,-2,-8,-21,-18,23,5,31,2.224323081
11.095856,-48,-26,3,15,9,-35,-22,-28,2.224323081
11.106597,75,16,8,-4,-53,15,-1,31,2.224323081
11.106604,-15,1,-4,-3,66,-33,-21,40,2.224323081
11.119923,-28,-40,-2,23,29,39,28,-24,2.224323081
11.119954,3,-59,-20,-57,-25,-60,-30,3,2.224323081
11.122535,53,102,23,33,23,49,42,15,2.224323081
11.122543,-68,-116,-25,10,-5,-66,-26,-20,2.224323081
11.142531,18,-7,-6,-47,-102,-104,-35,-1,2.224323081
11.142559,-65,8,-15,33,45,49,-11,-80,2.224323081
11.143856,-35,45,-2,-17,19,-7,-1,-65,2.224323081
11.143915,39,127,64,24,80,33,11,16,2.224323081
11.156075,-23,22,-45,-8,-28,-11,47,-37,2.224323081
11.156130,34,47,-4,-9,-25,-47,-46,-6,2.224323081
11.167011,6,26,-4,-10,-42,40,-17,11,2.224323081
11.167019,9,61,14,39,26,-37,-8,6,2.224323081
11.179866,-11,-34,16,-6,-7,-18,-16,14,2.224323081
11.179896,25,-5,5,-6,-103,35,-1,-16,2.224323081
11.182707,-1,-45,-18,-24,56,80,-21,39,2.224323081
11.182722,13,-86,-13,-2,-38,54,87,20,2.224323081
11.202233,-1,15,14,-8,-74,35,-22,14,2.224323081
11.202241,-8,-47,-4,34,2,-10,-73,4,2.224323081
11.203632,49,73,24,19,-4,-58,36,25,2.224323081
11.203639,-96,-127,-20,-25,-31,-10,-58,-17,2.224323081
11.216297,-56,8,-7,-4,46,73,68,-62,2.224323081
11.216309,-26,79,12,7,39,9,24,35,2.224323081
11.226835,-23,-13,-6,-16,-106,-84,-2,8,2.224323081
11.226847,-23,-56,-15,10,74,43,-20,-57,2.224323081
11.239787,97,108,16,6,112,33,-2,7,2.224323081
11.239810,42,49,6,-12,-62,-39,10,15,2.224323081
11.242182,0,-8,6,-7,30,45,1,59,2.224323081
11.242194,-27,-32,-20,55,27,74,-37,-42,2.224323081
11.263903,-19,3,18,8,12,-53,38,20,2.220532954
11.263913,7,-49,-8,-8,-71,17,24,4,2.220532954
11.263916,24,3,-7,-8,32,-110,-27,-3,2.220532954
11.263919,46,52,9,-5,45,65,-18,20,2.220532954
11.276107,13,-42,-21,-18,-48,5,-32,11,2.220532954
11.276132,-34,-12,4,0,-17,37,40,10,2.220532954
11.285252,-6,-18,3,8,17,-16,18,-26,2.220532954
11.285268,77,30,17,3,32,10,-3,38,2.220532954
11.299604,-98,-76,-29,-17,-10,-14,-7,-15,2.220532954
11.299621,10,-12,-14,-22,-15,-49,-10,-79,2.220532954
11.301731,13,-13,-8,-4,-89,-5,15,-33,2.220532954
11.301736,54,82,3,-7,56,87,21,29,2.220532954
11.322408,31,37,15,4,-33,15,-4,-11,2.220532954
11.322436,-49,-41,-6,-25,-7,-24,8,-64,2.220532954
11.324896,3,-73,-19,-9,-25,15,-17,0,2.220532954
11.324908,19,33,3,-24,-128,-10,-14,8,2.220532954
11.336351,-40,-23,-7,4,55,-33,-42,-34,2.220532954
11.336382,27,34,2,-15,71,12,-27,-4,2.220532954
11.346027,31,-13,9,14,-15,25,-25,-6,2.220532954
11.346038,-27,-5,-4,-8,-45,-82,24,-1,2.220532954
11.359909,-27,20,8,7,14,54,-12,3,2.220532954
11.359933,127,-5,1,21,34,38,3,50,2.220532954
11.361275,-89,-67,-8,5,33,-14,13,0,2.220532954
11.361308,-27,-2,-9,-31,-120,-60,-11,-17,2.220532954
11.382823,54,11,-7,7,68,42,-20,9,2.220532954
11.382855,24,15,-1,-10,-56,-18,29,34,2.220532954
11.384976,-27,122,14,21,29,-75,-33,-17,2.220532954
11.384984,-44,-72,0,23,76,74,-29,63,2.220532954
11.405363,53,89,9,-18,-68,-57,65,13,2.220532954
11.405397,-73,-82,-18,-48,-50,88,1,25,2.220532954
11.406814,22,-26,6,81,125,67,18,-15,2.220532954
11.406821,-9,-27,4,-12,-28,-73,-40,-77,2.220532954
11.419574,46,33,-3,-3,-37,15,16,18,2.220532954
11.419589,98,103,8,6,20,8,-13,-20,2.220532954
11.421097,-91,-128,-23,-30,-22,-17,-1,-26,2.220532954
11.421131,16,61,-1,-1,1,-15,18,-16,2.220532954
11.442284,-42,-9,9,-4,-47,-25,-5,8,2.220532954
11.442308,28,6,1,3,4,-52,5,-15,2.220532954
11.444470,65,48,7,-9,31,92,-16,66,2.220532954
11.444485,38,37,-2,9,-30,-100,37,26,2.220532954
11.464006,6,29,18,24,28,-21,-77,-2,2.220532954
11.464029,-22,27,5,-24,-46,-6,24,42,2.220532954
11.472361,-57,-54,-24,40,116,19,-31,46,2.220532954
11.472380,0,67,-12,-41,-85,38,-3,15,2.220532954
11.479971,74,1,-2,-24,-34,-29,65,87,2.220532954
11.480002,-31,34,6,21,15,23,-22,-10,2.220532954
11.482613,11,5,4,-12,-4,-47,14,-9,2.220532954
11.482622,-25,-51,-5,-20,-12,7,21,-26,2.220532954
11.503178,-86,-22,-4,17,25,-13,-5,-55,2.220532954
11.503203,-25,-97,-15,-20,-23,-12,-16,15,2.220532954
11.504961,-42,-22,-11,-35,-55,28,34,-21,2.220532954
11.505008,61,87,14,32,45,-16,-20,-1,2.198233844
11.524946,5,28,-1,-1,-1,2,15,1,2.198233844
11.524967,15,1,-2,22,25,60,-15,-23,2.198233844
11.527357,62,127,24,-31,-106,-29,-4,-8,2.198233844
11.527370,-18,-79,-29,-16,10,-2,19,-5,2.198233844
11.540212,39,28,29,86,93,9,9,20,2.198233844
11.540240,0,-8,-30,-22,25,-60,-77,-38,2.198233844
11.543099,52,52,14,24,-24,-14,41,10,2.198233844
11.543113,35,55,20,-23,28,127,48,-22,2.198233844
11.562212,-22,-45,-9,3,35,-56,27,1,2.198233844
11.562245,58,46,8,-11,-27,-99,2,14,2.198233844
11.563677,-96,-14,-4,16,-9,64,-16,3,2.198233844
11.563693,24,23,2,-13,46,-9,-33,37,2.198233844
11.585038,76,-38,-36,-10,-27,80,58,9,2.198233844
11.587234,-35,-18,9,-6,-13,12,8,30,2.198233844
11.587240,56,-40,-11,-18,-16,-35,-15,-47,2.198233844
11.587243,-20,29,5,4,-20,-8,5,7,2.198233844
11.599441,-47,29,12,-8,-5,11,-29,-11,2.198233844
11.599473,5,42,0,25,46,-46,-20,15,2.198233844
11.606017,3,-38,-11,-32,-80,33,12,-13,2.198233844
11.606045,16,11,-10,-12,-54,-63,33,-71,2.198233844
11.622118,-83,-62,2,-23,61,-101,-91,16,2.198233844
11.622133,-29,-64,-13,69,82,117,10,-32,2.198233844
11.623631,17,-40,-4,-25,80,-72,48,-14,2.198233844
11.623665,-76,-3,-1,2,42,14,-16,0,2.198233844
11.644781,15,40,-4,-14,-13,16,4,-18,2.198233844
11.644798,6,61,17,-17,-63,-33,-9,-16,2.198233844
11.646509,-14,-5,-8,-4,27,2,-9,27,2.198233844
11.646522,-21,68,-5,2,-32,14,-5,10,2.198233844
11.659218,68,85,14,-12,-45,20,-17,-12,2.198233844
11.659238,-59,-89,-21,-5,12,-20,-7,-15,2.198233844
11.666268,19,21,4,6,-14,14,5,-53,2.198233844
11.666298,17,3,9,9,-16,-16,9,77,2.198233844
11.683851,-26,-28,9,-11,-53,4,-9,-5,2.198233844
11.683861,10,-11,-1,-22,74,-47,38,6,2.198233844
11.683864,17,4,-2,26,-16,108,-47,-9,2.198233844
11.683866,-1,1,0,24,-44,-44,-22,-78,2.198233844
11.704992,-45,3,-5,2,-4,99,-18,-50,2.198233844
11.705013,90,127,13,-12,-38,37,53,38,2.198233844
11.706675,-62,-34,-2,1,52,-30,20,-5,2.198233844
11.706688,-14,-70,-9,9,1,-39,-73,-13,2.198233844
11.719170,60,8,-2,-28,-19,-41,-37,7,2.198233844
11.719192,-112,-31,4,26,-9,7,73,25,2.198233844
11.726075,118,40,5,-10,-44,-36,-47,-3,2.198233844
11.726099,-35,18,-2,10,25,6,-4,-1,2.198233844
11.750117,-33,15,-6,-1,8,11,46,52,2.198233844
11.750141,17,13,1,-56,-34,-57,-35,4,2.198233844
11.753017,-22,-38,7,71,3,28,4,33,2.198233844
11.753030,8,2,3,19,51,53,58,22,2.198233844
11.764731,-18,-64,-4,-8,62,13,-7,-26,2.223052193
11.764757,-15,13,-4,22,-78,-66,-62,-31,2.223052193
11.766221,23,50,-11,-50,-75,-54,31,5,2.223052193
11.766235,-29,4,-14,-10,1,15,-12,-14,2.223052193
11.779160,36,-8,20,29,18,-3,-5,10,2.223052193
11.779202,-18,-88,-32,-13,36,31,-88,-33,2.223052193
11.785930,3,14,-6,-26,3,-22,31,-27,2.223052193
11.785948,63,99,15,22,-23,-9,-10,23,2.223052193
11.802361,-3,-79,-5,-7,4,-29,30,61,2.223052193
11.802391,42,27,15,6,-1,26,21,62,2.223052193
11.804330,26,99,5,-60,-104,27,-23,-57,2.223052193
11.804336,19,-96,-8,39,100,-11,-36,2,2.223052193
11.825746,-55,-60,-18,10,-57,-26,-1,-31,2.223052193
11.825760,-17,-5,6,25,78,3,54,-28,2.223052193
11.826317,43,30,19,19,84,66,-7,20,2.223052193
11.826331,-28,-67,2,-45,-128,28,14,15,2.223052193
11.840063,68,42,-21,-5,-39,-50,6,-26,2.223052193
11.840072,11,13,12,3,3,27,3,-16,2.223052193
11.845733,-66,17,9,9,72,-13,-50,25,2.223052193
11.845754,34,22,4,3,30,-4,12,10,2.223052193
11.862218,-20,-76,-10,3,-38,46,37,0,2.223052193
11.862240,-46,6,-1,-9,36,-78,-43,-18,2.223052193
11.863797,42,-57,-7,10,11,-3,11,112,2.223052193
11.863822,-9,-20,3,9,66,7,4,-6,2.223052193
11.885105,-55,49,5,9,-71,12,-15,-45,2.223052193
11.885117,65,-26,7,-2,-29,-17,28,37,2.223052193
11.886188,-64,70,-3,-27,-25,-41,-15,-85,2.223052193
11.886194,-24,-48,-25,-9,-119,40,56,-37,2.223052193
11.898322,-20,-52,-15,21,104,86,-61,-15,2.223052193
11.898352,27,85,13,0,-35,46,50,14,2.223052193
11.909011,-34,-30,-9,9,-66,-27,-81,-22,2.223052193
11.909024,117,53,12,-35,37,63,-11,13,2.223052193
11.922350,16,16,6,14,-6,-77,73,7,2.223052193
11.922371,-1,-20,-1,11,12,-27,-62,-13,2.223052193
11.924102,-51,-71,-15,1,-4,30,37,-1,2.223052193
11.924115,7,77,14,-6,-69,-54,41,3,2.223052193
11.944704,-23,-101,-12,-6,25,17,-46,-7,2.223052193
11.944814,-22,-1,-5,-13,-7,-15,-24,-35,2.223052193
11.946967,49,5,-1,-19,-99,-1,29,-47,2.223052193
11.946983,-32,-32,1,22,8,-15,-28,51,2.223052193
11.959129,22,69,5,-12,85,43,1,54,2.223052193
11.959152,-19,-18,-5,10,-58,36,16,0,2.223052193
11.969468,-16,11,-3,-9,103,-4,-6,-10,2.223052193
11.969477,-23,-30,-2,6,41,35,5,22,2.223052193
11.990195,18,60,8,-1,-52,33,-6,6,2.223052193
11.990221,-37,-53,-7,6,18,25,35,12,2.223052193
11.992758,110,93,24,16,-10,-10,-18,21,2.223052193
11.992773,34,-118,-35,-32,-48,25,7,-18,2.223052193
12.005710,-68,84,-7,-17,-56,-42,-10,-12,2.223052193
12.005739,13,39,0,-3,-21,30,9,-14,2.223052193
12.009118,13,67,4,-2,46,-55,32,17,2.223052193
12.009162,13,92,20,6,-61,66,7,3,2.223052193
12.018575,-2,-65,-17,-33,-44,-82,3,-48,2.251502936
12.020925,-1,-73,-10,21,50,21,-40,103,2.251502936
12.028389,-28,-67,-8,-13,16,-31,85,-13,2.251502936
12.028406,3,82,11,3,18,-39,-2,16,2.251502936
12.042089,17,-4,5,22,-18,83,-1,-21,2.251502936
12.042107,-20,33,9,9,48,-17,12,-78,2.251502936
12.043756,-45,-86,-12,3,9,14,35,11,2.251502936
12.043775,4,-22,0,-1,41,-23,-14,-1,2.251502936
12.065434,61,23,5,-23,-124,-103,5,-7,2.251502936
12.065465,-3,-40,3,-6,49,-19,3,-12,2.251502936
12.068230,98,25,7,51,51,108,-1,24,2.251502936
12.068239,-107,-79,-16,-21,-32,-51,-51,-62,2.251502936
12.078408,85,85,16,16,40,-9,-1,75,2.251502936
12.078437,-72,-41,-10,-12,-2,-26,-13,-35,2.251502936
12.089104,49,-19,-19,-4,20,39,-31,21,2.251502936
12.089120,40,97,17,-8,-52,-35,20,80,2.251502936
12.102711,-2,-9,2,17,-20,96,26,-7,2.251502936
12.102737,-28,-52,-12,-47,39,-39,-30,7,2.251502936
12.105135,-37,14,0,7,-3,38,23,88,2.251502936
12.105149,7,1,7,53,14,34,-10,-30,2.251502936
12.125193,-42,4,5,2,29,18,-24,22,2.251502936
12.125229,35,94,6,-19,-128,-83,-35,-39,2.251502936
12.128993,5,24,-3,0,67,31,-50,-49,2.251502936
12.129007,-63,-111,-23,-20,25,33,-49,-71,2.251502936
12.138424,-12,-37,-7,-7,10,-45,27,-3,2.251502936
12.138446,15,10,-4,-10,-69,26,-33,-18,2.251502936
12.148995,-6,10,4,3,-19,-15,-3,-5,2.251502936
12.149003,-21,91,23,21,24,-39,20,-52,2.251502936
12.162125,-85,-93,-27,-23,1,-31,-39,-26,2.251502936
12.162148,54,110,-4,-11,-17,38,41,3,2.251502936
12.164977,4,61,3,-13,-116,63,13,13,2.251502936
12.164988,20,-5,0,23,103,-89,-8,-9,2.251502936
12.184853,-28,-42,0,35,-2,-56,-38,54,2.251502936
12.184861,-13,-17,-6,11,-73,85,76,7,2.251502936
12.186181,18,-6,11,-5,82,-128,7,-43,2.251502936
12.186203,4,8,-2,-43,-105,2,-19,14,2.251502936
12.198388,-51,-62,-11,8,84,33,-19,-53,2.251502936
12.198408,25,18,2,13,-45,7,-37,15,2.251502936
12.208780,-34,27,0,-8,-48,7,1,2,2.251502936
12.208790,-3,-18,-10,-2,-24,-34,1,17,2.251502936
12.222539,13,46,7,-19,3,23,10,-46,2.251502936
12.222571,35,-30,-2,6,-1,26,7,-20,2.251502936
12.225653,-116,-66,8,4,-22,-17,-3,14,2.251502936
12.225675,-49,-103,-25,-3,6,46,-15,27,2.251502936
12.245031,60,17,0,-5,-9,7,-6,-28,2.251502936
12.245056,18,63,-3,-52,-66,2,5,-52,2.251502936
12.246095,92,78,14,26,-6,36,-68,45,2.251502936
12.246101,-5,38,8,60,95,107,118,17,2.251502936
12.261603,70,116,41,3,-5,-46,37,44,2.251502936
12.261618,-30,-96,-26,13,127,-54,-23,-55,2.251502936
12.267311,15,17,-10,-3,-20,-12,3,-17,2.251502936
12.267397,29,37,3,-33,-57,11,-16,4,2.251502936
12.282348,6,70,-5,-3,33,42,10,-27,2.261350058
12.282366,2,24,16,10,12,-14,18,46,2.261350058
12.283781,6,-43,-9,-6,-53,-27,-10,-53,2.261350058
12.283826,-75,-58,-14,-9,97,-9,-13,-41,2.261350058
12.312100,13,29,9,-3,-40,-9,7,5,2.261350058
12.312125,-9,-35,2,2,-10,32,6,-6,2.261350058
12.315076,-22,-42,-6,-1,-22,-53,8,92,2.261350058
12.315086,-6,20,-1,-21,17,0,-4,-83,2.261350058
12.319025,56,16,6,2,-55,-85,-63,2,2.261350058
12.319046,-86,21,10,0,-79,127,66,8,2.261350058
12.327545,19,3,-34,-13,82,-24,-26,-58,2.261350058
12.327698,12,-21,3,51,64,-33,-5,23,2.261350058
12.342286,-22,24,1,12,2,-18,-3,16,2.261350058
12.342303,-34,-26,1,-4,39,-16,-5,42,2.261350058
12.343918,27,50,11,-6,-13,-45,8,-26,2.261350058
12.343939,-59,-98,-23,-32,-114,-1,-21,9,2.261350058
12.365025,15,30,-19,1,32,49,19,-37,2.261350058
12.365056,39,16,0,5,-46,-48,-33,1,2.261350058
12.367883,-26,-7,8,-1,-10,14,-12,-13,2.261350058
12.367893,103,79,5,3,12,-15,7,6,2.261350058
12.387273,-57,-108,2,-7,-7,10,19,8,2.261350058
12.387284,39,92,10,4,20,-12,-17,-65,2.261350058
12.388543,-32,-25,-15,0,16,9,31,-7,2.261350058
12.388549,77,54,13,8,-102,39,66,23,2.261350058
12.402284,-46,-26,-15,-27,2,72,17,-1,2.261350058
12.402322,45,43,7,29,22,-22,16,35,2.261350058
12.403678,3,75,0,-3,-14,39,5,-28,2.261350058
12.403698,-38,-7,10,7,27,-28,-39,1,2.261350058
12.424777,23,13,-30,-36,-8,-55,-31,-16,2.261350058
12.424803,-34,-54,7,23,49,1,-13,7,2.261350058
12.427429,15,17,3,-5,-128,-20,14,16,2.261350058
12.427441,24,42,8,-9,43,13,-19,29,2.261350058
12.447205,-81,2,20,19,33,38,-31,-54,2.261350058
12.447302,-26,-52,-27,-14,-43,-53,-17,49,2.261350058
12.448700,-42,1,-7,-36,-102,12,-3,-13,2.261350058
12.448707,78,51,4,12,80,49,-19,-10,2.261350058
12.462764,8,19,6,22,33,76,77,0,2.261350058
12.462776,38,39,4,-1,27,-10,-46,-1,2.261350058
12.463915,-31,-86,0,9,-17,20,-34,-14,2.261350058
12.463936,-16,-12,-8,-30,-16,-48,-3,13,2.261350058
12.484658,18,0,-6,2,-12,-19,6,5,2.261350058
12.484675,-65,-29,-9,-1,12,37,29,-3,2.261350058
12.486169,14,-21,2,-2,32,-15,6,10,2.261350058
12.486185,-5,19,-8,-10,-90,-41,-13,-22,2.261350058
12.514776,27,42,3,-9,58,59,-28,15,2.261350058
12.514793,-58,-82,0,26,34,-46,25,22,2.261350058
12.516269,7,-5,8,6,112,-49,16,16,2.261350058
12.516362,5,55,-4,-47,-127,-88,-24,-8,2.261350058
12.521855,-62,-105,2,40,80,15,37,25,2.261350058
12.521880,56,33,-13,25,37,-40,-41,8,2.261350058
12.528391,0,-22,5,-5,18,10,27,1,2.261350058
12.528409,-11,8,5,-3,-39,3,-10,21,2.261350058
12.552472,9,76,5,-13,-86,-66,-18,-4,2.244062391
12.552504,5,-72,-9,-18,-9,31,20,-18,2.244062391
12.555109,13,-3,-5,12,-1,2,-15,66,2.244062391
12.555119,24,-4,4,4,19,20,7,8,2.244062391
12.567657,17,15,9,-6,-31,-43,-26,54,2.244062391
12.567687,11,23,-5,-9,-15,48,-2,54,2.244062391
12.570501,4,-5,-13,-21,-57,-78,-56,-25,2.244062391
12.570510,73,34,19,10,115,57,33,44,2.244062391
12.581726,10,-6,-33,-14,-47,18,8,-33,2.244062391
12.581750,4,101,10,-2,15,17,-25,-18,2.244062391
12.588633,-19,1,1,2,-11,57,-23,-16,2.244062391
12.588660,60,18,12,12,-30,-11,32,22,2.244062391
12.605595,-84,-95,3,-7,58,-18,21,-30,2.244062391
12.605603,65,69,-2,-27,-9,2,-52,-4,2.244062391
12.606261,4,-42,-7,10,-10,45,33,-34,2.244062391
12.606281,-5,-8,-5,-5,32,-29,-25,-2,2.244062391
12.627265,-3,13,2,4,-3,24,11,-31,2.244062391
12.627283,-13,-30,21,10,-19,-32,15,-25,2.244062391
12.629497,39,18,7,0,9,69,8,0,2.244062391
12.629513,-71,-54,-7,-7,-29,-21,-11,-13,2.244062391
12.641918,76,-25,-14,-44,8,-63,9,-26,2.244062391
12.642029,127,120,13,29,19,30,-24,29,2.244062391
12.648263,-77,-47,6,28,67,34,52,-18,2.244062391
12.648294,-101,-34,-35,-38,-11,-30,-26,-25,2.244062391
12.666356,17,-42,-19,-36,-13,-1,30,-45,2.244062391
12.666363,101,23,75,66,64,34,34,33,2.244062391
12.666367,45,-78,-25,-15,-1,-19,-12,-18,2.244062391
12.666370,-2,66,3,-19,7,-23,17,42,2.244062391
12.687340,36,117,10,37,-2,36,-31,30,2.244062391
12.687356,-128,-57,-19,-42,-64,-5,22,-18,2.244062391
12.688837,-44,15,-15,3,8,5,-5,-1,2.244062391
12.688843,-26,45,-4,12,12,-24,2,-114,2.244062391
12.701600,56,83,8,-7,-95,-14,-21,41,2.244062391
12.701617,-50,60,7,0,33,16,21,54,2.244062391
12.708666,-22,7,5,0,-5,-16,11,-45,2.244062391
12.711484,-19,-71,-19,-14,-2,69,-12,-9,2.244062391
12.725300,-4,6,16,15,-32,-85,-17,74,2.244062391
12.725336,-8,-69,-20,-13,-55,48,-39,-11,2.244062391
12.728435,11,-4,-1,1,26,-58,24,-42,2.244062391
12.728449,-19,31,13,42,43,99,-1,18,2.244062391
12.747247,-6,-66,4,-1,-39,1,-27,-9,2.244062391
12.747265,39,43,-22,-6,59,-34,91,15,2.244062391
12.748796,-74,-7,-6,-23,-128,-58,-73,8,2.244062391
12.748819,5,4,18,4,44,30,18,11,2.244062391
12.761509,-18,49,-10,-3,-65,-63,-17,-63,2.244062391
12.761526,1,-76,-39,-10,20,-6,-19,-54,2.244062391
12.768342,113,115,25,19,72,35,11,87,2.244062391
12.768360,63,81,27,16,-47,-44,18,30,2.244062391
12.784911,-46,-93,-33,-19,11,36,-7,38,2.244062391
12.784943,-1,82,18,6,19,-21,26,6,2.244062391
12.787303,50,-78,6,-2,111,36,-32,-34,2.215417855
12.787308,16,-116,-12,24,-72,38,37,-9,2.215417855
12.807135,56,34,8,-24,10,-10,-21,21,2.215417855
12.807170,-16,39,8,-2,-80,-57,10,-27,2.215417855
12.808760,-3,106,-4,-15,83,106,27,18,2.215417855
12.808778,-5,25,-26,1,92,-66,-30,31,2.215417855
12.821911,-5,-8,7,28,43,79,31,-8,2.215417855
12.821919,38,38,-2,-13,-50,-6,18,24,2.215417855
12.828361,42,94,22,-6,-97,-44,-3,8,2.215417855
12.828378,-108,-128,-50,-32,-105,-11,-14,-84,2.215417855
12.844834,50,79,-6,20,108,-24,29,-29,2.215417855
12.844852,-50,33,7,-23,-44,70,-11,-70,2.215417855
12.846286,-13,4,-4,12,-11,-78,4,4,2.215417855
12.846364,-19,-18,-3,0,8,15,-53,-22,2.215417855
12.868958,23,22,23,28,49,26,26,72,2.215417855
12.868967,-66,-128,-17,-10,-81,20,10,-16,2.215417855
12.868970,27,92,14,1,0,17,3,-23,2.215417855
12.868972,-72,-85,-33,-5,24,-32,-34,-5,2.215417855
12.881145,-34,85,-13,-21,30,8,-20,-49,2.215417855
12.881176,82,96,24,31,106,-10,-37,32,2.215417855
12.892806,-4,-9,-2,-37,-128,-57,33,14,2.215417855
12.892826,68,0,28,21,104,35,45,40,2.215417855
12.912258,-50,-107,-14,10,-96,-16,-26,-29,2.215417855
12.912279,-48,-82,-21,-17,40,83,39,-10,2.215417855
12.914433,10,2,1,45,71,57,41,20,2.215417855
12.914451,1,109,15,-43,-128,-53,-59,-63,2.215417855
12.927358,-66,-93,-1,15,60,20,-4,70,2.215417855
12.927387,-7,31,3,-6,13,-43,4,-13,2.215417855
12.929882,10,-74,-18,-5,-61,-3,2,-41,2.215417855
12.929894,29,-30,4,-4,26,-2,-20,36,2.215417855
12.941205,44,121,14,-10,-32,-1,5,-22,2.215417855
12.941231,41,54,2,-8,-35,-34,-32,-3,2.215417855
12.958805,-40,-70,-19,-3,49,67,-18,-28,2.215417855
12.958818,-34,-36,10,0,-37,-68,28,56,2.215417855
12.964718,42,-63,-20,-41,-127,11,12,-12,2.215417855
12.964739,48,14,-5,24,54,-37,-10,-6,2.215417855
12.966241,-43,-6,2,5,69,-102,-21,22,2.215417855
12.966286,37,123,24,34,123,127,25,7,2.215417855
12.987390,-15,23,0,6,-117,-20,-4,-24,2.215417855
12.987417,-15,5,-12,-24,15,45,-16,78,2.215417855
12.990849,9,127,2,-10,-24,4,-7,-12,2.215417855
12.990857,34,-75,-11,-19,-74,-94,-3,56,2.215417855
13.001218,-71,56,11,17,81,25,-60,-32,2.215417855
13.001235,-41,-33,-11,-28,-118,29,52,-85,2.215417855
13.010446,-34,45,4,6,-4,-27,-80,-11,2.215417855
13.010504,13,73,0,-6,-21,66,48,37,2.215417855
13.024602,58,23,14,17,31,32,15,17,2.215417855
13.024615,30,23,13,19,35,0,6,11,2.215417855
13.026383,15,-37,-27,-9,-23,7,-5,-7,2.215417855
13.026414,0,32,3,-6,-66,-19,-24,-26,2.215417855
13.046388,41,-3,-5,-13,47,-19,9,-3,2.215395324
13.046412,5,127,55,29,45,13,48,17,2.215395324
13.056045,-69,-128,-56,40,-34,-2,-68,-26,2.215395324
13.056060,72,126,3,12,59,-70,-23,-14,2.215395324
13.060874,40,92,14,-29,33,76,59,50,2.215395324
13.060894,64,41,8,-5,-78,27,17,71,2.215395324
13.071738,-42,3,21,30,79,30,33,-5,2.215395324
13.071752,-85,-59,-9,-20,-19,62,-16,-73,2.215395324
13.087310,45,-50,-10,1,-13,-10,-34,55,2.215395324
13.087327,-56,-76,-13,-3,3,-47,-19,-40,2.215395324
13.087334,28,-13,6,-20,-35,36,34,29,2.215395324
13.087339,89,47,7,9,4,-12,5,0,2.215395324
13.107684,-96,-47,-1,8,-25,-22,14,-24,2.215395324
13.107709,14,-91,-21,-19,-13,-18,-29,-10,2.215395324
13.110624,17,-1,18,1,13,-18,-6,17,2.215395324
13.110637,56,63,7,24,-12,-17,20,-19,2.215395324
13.121239,-11,24,9,-19,-7,22,-26,85,2.215395324
13.121247,9,-95,-41,14,31,-62,6,-38,2.215395324
13.135987,-16,78,20,-29,48,26,3,36,2.215395324
13.136010,28,55,6,41,70,-57,-28,16,2.215395324
13.144905,-26,-84,-2,-13,-69,74,0,-35,2.215395324
13.146809,43,93,12,6,-2,-11,-22,-38,2.215395324
13.146819,11,31,3,-12,-47,17,15,-10,2.215395324
13.146821,-43,-80,-21,-16,16,-14,-5,-20,2.215395324
13.167402,-3,93,0,-21,-59,-88,-1,-34,2.215395324
13.167411,-61,-65,-21,32,-44,-13,-22,-59,2.215395324
13.168700,-7,-55,-3,3,18,-8,-22,1,2.215395324
13.168720,12,-19,3,3,38,48,35,9,2.215395324
13.181284,-25,34,-11,3,-27,-30,2,-40,2.215395324
13.181298,54,107,24,2,16,3,16,99,2.215395324
13.191782,-59,-40,1,-12,-110,-18,24,-9,2.215395324
13.191799,-51,-121,-29,0,91,98,-14,-27,2.215395324
13.205531,38,24,9,-17,-55,17,66,9,2.215395324
13.205561,-8,-28,-8,-2,52,-1,-29,-9,2.215395324
13.207316,71,94,13,16,59,15,22,11,2.215395324
13.207331,-6,55,12,-10,-5,96,60,-2,2.215395324
13.228616,-8,-75,-23,-8,-43,-30,-26,-24,2.215395324
13.228627,-24,-80,-12,4,70,-31,-35,-14,2.215395324
13.228630,25,66,-1,-18,-26,14,-2,11,2.215395324
13.228632,-45,-9,-3,-4,-55,-20,4,56,2.215395324
13.241397,-27,40,16,30,92,-33,-26,7,2.215395324
13.241434,48,9,-8,-35,-91,0,-3,-6,2.215395324
13.249821,7,-48,-13,17,-14,-44,20,46,2.215395324
13.249868,-37,-28,1,-23,0,-10,-2,-7,2.215395324
13.264852,-1,51,-2,0,-7,32,-81,-48,2.215395324
13.264874,-67,-74,-5,7,42,-29,17,19,2.215395324
13.266634,-11,-4,-6,-32,-8,-73,8,-18,2.215395324
13.266646,47,12,-1,-15,-34,66,-38,76,2.215395324
13.287969,-12,13,-3,-21,58,-38,16,10,2.215395324
13.288004,43,22,12,29,96,-5,14,-24,2.215395324
13.289701,42,50,7,11,-11,75,-1,5,2.215395324
13.289709,-61,-37,-2,5,-80,-90,-16,-50,2.215395324
13.309922,72,-47,-14,-4,23,4,-8,4,2.234508204
13.309940,4,11,-9,-29,-38,-12,3,-4,2.234508204
13.313133,-19,-43,-3,-8,-58,-10,-18,-44,2.234508204
13.313147,12,61,8,-5,-9,-50,-12,-18,2.234508204
13.332451,61,65,16,12,63,36,80,1,2.234508204
13.332481,-41,-49,-15,-15,-68,8,-43,-4,2.234508204
13.335832,-74,-50,-10,9,22,19,-32,-34,2.234508204
13.335840,-21,30,-10,-25,-41,98,36,-68,2.234508204
13.347247,32,84,5,1,-105,-100,-13,-35,2.234508204
13.347269,-19,-20,2,35,-20,-1,-11,-37,2.234508204
13.350477,54,120,12,18,126,98,-1,36,2.234508204
13.350487,45,25,0,-14,-69,-5,13,11,2.234508204
13.377131,-120,-126,-13,14,-14,-4,-22,-9,2.234508204
13.377150,14,8,15,33,45,70,68,2,2.234508204
13.379580,12,6,-19,-41,0,-29,-85,-42,2.234508204
13.379593,25,34,4,-25,-66,-52,28,-69,2.234508204
13.384751,49,5,7,26,111,33,-22,32,2.234508204
13.384775,-51,30,4,4,44,-20,-21,12,2.234508204
13.386382,16,-22,1,19,57,12,22,22,2.234508204
13.386397,0,-19,-2,1,-8,-29,10,24,2.234508204
13.406837,-8,0,4,-4,-21,-30,-12,-21,2.234508204
13.406876,17,60,5,-11,-26,75,-10,4,2.234508204
13.414863,6,-29,-13,-3,-2,-90,45,-14,2.234508204
13.414892,44,30,3,-14,-14,-18,-62,-10,2.234508204
13.429663,-10,-27,0,36,75,37,27,16,2.234508204
13.429670,-13,34,-2,-17,-8,-2,8,-14,2.234508204
13.431168,12,43,5,-20,-124,-59,-11,13,2.234508204
13.431175,-54,-30,-12,21,112,92,28,-11,2.234508204
13.445612,2,0,-1,-2,27,-85,-49,12,2.234508204
13.445623,-65,11,3,38,45,81,81,36,2.234508204
13.451118,32,14,-14,-5,-6,-23,-18,-13,2.234508204
13.451873,4,7,10,25,72,0,-7,2,2.234508204
13.467527,-27,-24,-4,-15,-31,49,-30,-4,2.234508204
13.467553,-59,-63,-17,-32,-22,-18,30,8,2.234508204
13.470918,-43,15,5,2,-51,59,-19,11,2.234508204
13.470925,21,-9,2,10,5,-12,12,51,2.234508204
13.490095,43,111,11,1,29,15,-2,24,2.234508204
13.490127,-22,-61,-17,-27,-99,-38,-11,-23,2.234508204
13.492816,34,-71,8,-2,46,31,9,-30,2.234508204
13.492829,65,69,9,-24,-72,-18,-31,-1,2.234508204
13.504368,-60,-37,2,36,79,-21,83,-14,2.234508204
13.504405,68,64,-1,9,-13,-87,-103,14,2.234508204
13.511084,-71,7,-1,-17,28,97,30,-34,2.234508204
13.511143,31,-51,-8,-17,-28,-88,-17,7,2.234508204
13.527317,14,-27,1,-11,-3,14,18,-4,2.234508204
13.527341,-20,-40,-1,-5,-11,56,20,-19,2.234508204
13.528723,-16,-7,-9,4,21,-40,23,43,2.234508204
13.528739,15,61,4,6,-75,-57,-22,12,2.234508204
13.549802,-34,-120,-19,-21,-1,60,-10,10,2.234508204
13.549819,28,-6,0,-12,13,-23,-49,-8,2.234508204
13.551306,64,72,28,22,-28,31,6,10,2.234508204
13.551324,-33,-73,-21,-1,4,22,24,57,2.234508204
13.563678,45,66,-7,-9,-55,-10,-4,-2,2.275050403
13.563698,88,103,8,-37,-94,2,11,-11,2.275050403
13.574538,-6,-37,20,31,69,89,49,-11,2.275050403
13.574547,-32,-47,-18,-29,31,3,-30,46,2.275050403
13.587248,81,102,9,59,9,-7,80,-31,2.275050403
13.587255,-73,-106,-22,-30,28,31,-23,29,2.275050403
13.588610,23,51,9,-12,-64,0,50,32,2.275050403
13.588617,4,4,5,18,77,-27,11,-21,2.275050403
13.609811,-28,-10,-10,-22,-61,-11,-6,-25,2.275050403
13.609834,25,-55,-2,5,66,-13,22,32,2.275050403
13.611588,-57,-50,-15,-15,-114,-83,-65,-65,2.275050403
13.611594,-18,-3,3,22,42,78,18,-46,2.275050403
13.624677,26,4,1,-16,-3,-16,-30,41,2.275050403
13.624715,2,4,6,13,16,-8,3,-26,2.275050403
13.631249,12,2,-11,-11,1,-20,-32,3,2.275050403
13.631278,-28,31,6,-23,-48,-22,-2,-26,2.275050403
13.648968,13,-42,9,11,-12,49,15,-45,2.275050403
13.648976,55,108,11,8,80,-59,1,-68,2.275050403
13.648979,55,4,-25,13,16,26,75,23,2.275050403
13.648982,79,102,15,27,11,-89,18,13,2.275050403
13.669993,7,41,-2,-20,-10,88,-8,17,2.275050403
13.670024,10,25,-5,-22,13,-17,19,-2,2.275050403
13.671811,-27,-39,0,-7,67,-30,-59,-21,2.275050403
13.671824,-43,-48,14,-1,-4,83,17,12,2.275050403
13.683684,0,-39,-8,7,14,-26,-36,-18,2.275050403
13.683700,59,-29,8,-2,-19,2,-15,40,2.275050403
13.694916,5,-65,-21,-14,-60,-34,-9,-15,2.275050403
13.694933,-5,-43,-10,-2,-11,23,0,73,2.275050403
13.707925,-14,-10,10,-5,-32,-29,-31,82,2.275050403
13.707963,-57,-32,-1,-7,-4,42,-3,-5,2.275050403
13.710766,-26,-53,0,9,-36,28,46,12,2.275050403
13.710789,44,13,3,33,77,-56,-17,14,2.275050403
13.729795,-67,-19,-10,-7,-6,93,-53,-57,2.275050403
13.729821,0,33,-2,21,-50,24,41,19,2.275050403
13.731185,30,65,-2,-10,15,13,-7,10,2.275050403
13.731206,88,94,18,15,67,57,14,-6,2.275050403
13.744437,-72,-68,-27,-28,2,-11,11,-27,2.275050403
13.744458,30,116,-6,12,54,35,-28,-31,2.275050403
13.753806,-10,20,9,-11,-48,-76,-54,14,2.275050403
13.753812,-31,8,-8,-7,8,-6,-2,-84,2.275050403
13.767345,31,73,17,26,31,-35,40,5,2.275050403
13.767362,-22,-84,-8,-8,-90,21,13,53,2.275050403
13.770016,-16,-24,6,14,78,-11,4,-5,2.275050403
13.770024,17,-9,-11,-13,-41,-38,-6,5,2.275050403
13.789697,-72,-27,-1,2,-8,-10,1,-21,2.275050403
13.789705,1,15,-7,-12,-34,0,-2,-2,2.275050403
13.791073,112,74,8,-4,7,3,32,11,2.275050403
13.791109,-71,-111,0,21,35,22,-16,4,2.275050403
13.804210,11,-22,-1,-8,-11,-1,-8,-56,2.275050403
13.804222,-29,25,2,-7,-110,-92,-61,5,2.275050403
13.813524,-24,-39,-9,32,49,74,66,1,2.235323913
13.813539,-13,33,3,-9,-66,-4,-23,-20,2.235323913
13.827397,96,44,-14,-29,-49,-24,26,-10,2.235323913
13.827428,-114,-106,-4,-19,17,-55,-33,-7,2.235323913
13.829282,82,81,5,-25,-42,32,-52,-1,2.235323913
13.829291,-49,-15,-8,25,6,48,16,-37,2.235323913
13.850086,-7,27,4,-8,-5,-81,-14,20,2.235323913
13.850130,-14,2,6,12,54,98,-6,-31,2.235323913
13.852426,-46,48,13,1,10,-43,-24,55,2.235323913
13.852437,20,30,9,-1,-6,9,5,4,2.235323913
13.863379,15,115,14,-1,-27,-10,8,18,2.235323913
13.863398,-32,-50,-30,-11,57,16,16,-26,2.235323913
13.872411,-43,35,-3,-4,-28,-18,-22,-39,2.235323913
13.872442,20,21,-8,-29,-8,74,0,-4,2.235323913
13.887281,-70,-126,8,31,-60,-72,34,16,2.235323913
13.887301,72,31,3,19,56,83,1,20,2.235323913
13.888848,33,-6,-9,6,94,45,-18,-11,2.235323913
13.888861,16,16,9,-27,-83,-94,-13,-50,2.235323913
13.909833,-29,-45,-12,9,93,114,-9,-4,2.235323913
13.909856,82,125,24,14,-23,38,36,-27,2.235323913
13.911864,-76,-81,2,-24,-50,-67,-40,19,2.235323913
13.911874,64,-2,-23,6,54,-57,-14,-33,2.235323913
13.923659,11,6,-6,-8,-12,-11,-1,-5,2.235323913
13.923683,12,25,3,-6,-15,-58,-2,73,2.235323913
13.933511,42,106,11,4,-24,22,25,14,2.235323913
13.933522,-31,-68,-1,-1,-34,-3,16,16,2.235323913
13.947401,-58,37,16,13,9,4,-14,14,2.235323913
13.947515,91,-77,-16,-1,10,68,-22,40,2.235323913
13.948680,-6,2,-11,-7,-53,-113,32,-24,2.235323913
13.948700,-59,27,-2,-4,-36,89,22,31,2.235323913
13.970064,58,-57,-6,-3,127,-10,-55,13,2.235323913
13.970086,-39,33,-3,-13,-79,-128,5,-44,2.235323913
13.973053,5,-27,5,17,86,114,38,4,2.235323913
13.973069,73,35,4,70,102,9,-44,22,2.235323913
13.983547,-102,-81,-16,-34,-78,24,32,-11,2.235323913
13.983577,1,16,-8,-27,-46,-63,-33,-88,2.235323913
13.992496,-5,1,-6,-25,-56,-91,-10,-5,2.235323913
13.992520,-10,75,17,-10,-45,63,29,25,2.235323913
14.007297,-51,-40,-29,12,33,35,-9,35,2.235323913
14.007304,82,75,29,4,17,11,43,-38,2.235323913
14.008736,20,-93,-40,-1,7,7,-32,10,2.235323913
14.008788,-21,-72,0,-17,45,-5,5,-45,2.235323913
14.029689,22,44,7,-3,-32,-25,7,-20,2.235323913
14.029714,-6,57,13,9,-1,5,15,6,2.235323913
14.031299,-6,56,17,-3,-7,25,22,4,2.235323913
14.031315,10,6,-11,12,32,-24,9,28,2.235323913
14.043530,13,-27,-13,-33,-88,-47,3,10,2.235323913
14.043551,-18,43,12,45,110,-60,-13,36,2.235323913
14.052240,-17,-16,3,-16,25,127,-58,-44,2.235323913
14.052253,-3,-72,-9,22,59,-118,58,53,2.235323913
14.069783,16,39,1,-2,20,-22,-33,-7,2.169539737
14.069798,-18,5,0,-4,-34,121,-6,-58,2.169539737
14.069805,12,46,12,-5,-34,-19,3,57,2.169539737
14.069810,-71,-81,-12,-2,8,-34,-37,-40,2.169539737
14.090358,110,82,14,-8,22,92,33,2,2.169539737
14.090392,-10,-9,-9,5,6,6,19,8,2.169539737
14.093092,-11,-111,-15,5,5,-33,-6,-6,2.169539737
14.093104,16,73,9,-16,-77,-3,-15,13,2.169539737
14.103781,39,103,19,19,-7,-23,3,-6,2.169539737
14.103816,-113,-128,-47,-14,-38,-36,-29,-62,2.169539737
14.113105,-9,22,-3,-2,24,3,17,-20,2.169539737
14.113112,52,114,10,-6,-12,7,20,44,2.169539737
14.127282,17,-17,-2,-2,-6,-40,-62,44,2.169539737
14.127306,43,60,28,50,-2,62,-39,29,2.169539737
14.129453,24,109,28,2,-48,-122,84,9,2.169539737
14.129461,-92,-128,-64,-33,-8,116,-50,-54,2.169539737
14.149826,23,37,-4,1,1,-66,61,-55,2.169539737
14.149838,-12,31,2,-6,86,-7,5,43,2.169539737
14.151171,15,-62,-6,-21,-98,-18,27,-6,2.169539737
14.151191,-47,49,18,31,82,90,48,-40,2.169539737
14.163348,-70,-7,2,-15,-30,-8,-34,14,2.169539737
14.163361,54,-41,-11,-14,-35,-14,-12,4,2.169539737
14.174378,68,-5,-12,-14,-42,-44,21,-14,2.169539737
14.174385,-36,-6,1,-26,9,12,0,29,2.169539737
14.187687,40,-22,-1,18,11,37,-47,-29,2.169539737
14.187711,21,58,15,-4,-9,-24,9,30,2.169539737
14.189251,-105,-78,-19,15,55,51,-33,-6,2.169539737
14.189271,-67,-91,-13,-12,-46,-51,-7,-6,2.169539737
14.209814,18,22,-7,1,-11,15,36,44,2.169539737
14.209848,-72,20,-8,-26,-89,-72,-32,-13,2.169539737
14.211333,56,-52,16,56,127,67,-14,-18,2.169539737
14.211355,61,90,13,-24,-63,-97,41,9,2.169539737
14.232366,3,-84,-5,6,19,-19,7,15,2.169539737
14.233588,59,40,2,-19,-66,-12,38,-17,2.169539737
14.233600,-120,-41,-2,46,127,51,-54,0,2.169539737
14.233602,26,43,10,-4,-54,10,-42,-19,2.169539737
14.247089,39,-17,-1,-18,-101,41,17,-15,2.169539737
14.247105,1,19,5,-3,27,16,68,81,2.169539737
14.248896,27,108,7,-8,-51,25,-64,14,2.169539737
14.248918,-27,-31,-3,1,-7,-69,58,87,2.169539737
14.270002,73,63,23,6,19,-20,-19,-2,2.169539737
14.270033,23,-8,-52,-15,2,8,-32,-37,2.169539737
14.272359,61,73,5,-14,-22,10,37,68,2.169539737
14.272376,-15,32,0,16,17,-4,-19,-30,2.169539737
14.292484,21,92,15,-8,24,-19,-6,12,2.169539737
14.292517,-49,-37,17,31,92,43,14,23,2.169539737
14.293874,-41,-42,-11,-36,-53,-27,-11,-50,2.169539737
14.293894,39,31,-2,-7,-100,-5,12,-6,2.169539737
14.307255,-99,-101,-5,28,84,38,-83,-81,2.169539737
14.307266,-27,-86,-6,-16,-18,-4,-38,11,2.169539737
14.309256,-28,33,-4,5,-33,74,49,-40,2.169539737
14.309272,26,10,-2,-32,-53,-52,-41,1,2.169539737
14.329844,-20,-24,-6,-3,-36,-33,42,8,2.182636181
14.329867,65,119,12,10,38,78,-25,54,2.182636181
14.331886,-13,-45,-6,-4,38,-64,52,-17,2.182636181
14.331893,34,-57,-8,0,-6,41,-13,65,2.182636181
14.360620,58,24,-6,-2,9,-36,-12,-3,2.182636181
14.360637,96,57,9,-6,-33,-31,3,-18,2.182636181
14.362725,-96,-102,0,6,-8,-15,-11,-59,2.182636181
14.362737,60,76,-2,6,24,2,-10,-30,2.182636181
14.366442,-67,32,10,-4,-7,-10,41,14,2.182636181
14.366461,55,-115,-24,-19,16,6,-34,-7,2.182636181
14.367262,-36,-18,-17,-20,-102,-37,-29,-41,2.182636181
14.367280,-24,-24,4,13,109,31,-9,-23,2.182636181
14.389801,12,-19,2,50,-15,115,14,-12,2.182636181
14.389832,-57,21,15,-12,91,-90,27,-21,2.182636181
14.391877,-4,40,-12,17,5,60,-19,-37,2.182636181
14.391890,51,6,5,5,-99,-83,-10,-11,2.182636181
14.411899,-12,65,0,1,84,10,29,18,2.182636181
14.411919,-67,-53,-9,-29,-102,-2,44,26,2.182636181
14.412572,123,41,19,-6,16,-49,-53,83,2.182636181
14.412579,-103,-33,27,34,79,26,30,-6,2.182636181
14.426951,68,-73,-52,-25,-70,-13,-61,-51,2.182636181
14.426974,-28,19,8,10,-7,20,-18,10,2.182636181
14.429624,51,41,4,-2,-9,-3,8,17,2.182636181
14.429636,83,48,6,-4,-28,39,19,26,2.182636181
14.449612,-37,66,10,-6,-19,-36,16,-16,2.182636181
14.449655,19,72,3,-4,-54,-19,-18,-30,2.182636181
14.451842,-38,-69,2,13,31,66,-2,11,2.182636181
14.451849,47,-24,-3,6,-15,-35,-29,-6,2.182636181
14.471981,42,19,-32,-47,-82,-81,8,46,2.182636181
14.472010,-34,-40,18,72,45,-16,10,-38,2.182636181
14.474711,79,65,-4,-21,-25,19,-38,26,2.182636181
14.474723,-1,-33,-8,-25,-19,0,26,-1,2.182636181
14.486111,3,-62,21,28,3,56,13,18,2.182636181
14.486152,13,-34,-6,-11,46,-50,4,-3,2.182636181
14.494211,28,34,18,12,-37,-40,8,-10,2.182636181
14.494229,-50,28,-10,3,62,15,-11,-15,2.182636181
14.509278,-29,-48,-6,-16,-2,12,11,3,2.182636181
14.509302,-97,-15,-20,-14,-36,-14,-25,-37,2.182636181
14.509970,4,-9,-7,0,-3,18,10,-16,2.182636181
14.512631,17,14,-6,-9,-16,5,-13,-2,2.182636181
14.531643,4,12,7,-20,12,7,22,-13,2.182636181
14.531672,-31,40,14,18,28,20,13,6,2.182636181
14.534386,14,36,-9,12,71,41,-54,12,2.182636181
14.534394,-20,-48,-2,-16,-122,-91,-17,-7,2.182636181
14.546414,68,32,21,51,127,81,23,70,2.182636181
14.546432,33,75,-6,-20,-59,80,38,-26,2.182636181
14.549229,-61,-82,-29,-10,24,-25,-1,-83,2.182636181
14.549237,-31,-12,-10,-12,-80,-99,-30,10,2.182636181
14.569411,-13,34,5,-7,61,55,13,-40,2.182636181
14.569423,33,35,-2,2,16,2,12,11,2.182636181
14.569755,-50,9,15,11,-21,-47,58,-22,2.182636181
14.569790,2,44,-1,-2,34,34,-10,-14,2.182636181
14.592178,-61,-128,-27,-32,-110,-41,-20,-41,2.195259427
14.592202,-26,-2,0,13,19,2,-8,5,2.195259427
14.592208,45,79,8,-9,-63,-36,2,34,2.195259427
14.594532,3,-9,-6,-20,-22,54,11,-33,2.195259427
14.607028,-5,3,0,1,37,-60,-17,11,2.195259427
14.607059,30,52,6,30,-16,78,-20,18,2.195259427
14.610112,8,-62,4,-14,-86,-51,23,20,2.195259427
14.610125,72,-17,-11,32,114,82,19,-11,2.195259427
14.628920,4,-20,-2,-28,-128,-55,-80,-22,2.195259427
14.628937,45,0,13,26,101,-67,-4,77,2.195259427
14.631109,54,111,1,-3,-42,46,24,49,2.195259427
14.631120,-75,-54,-23,-18,-39,16,-9,-20,2.195259427
14.651676,-9,48,1,17,18,-25,31,-7,2.195259427
14.653965,61,-67,-4,-15,-43,-3,-13,19,2.195259427
14.653980,29,3,-1,-5,19,-19,0,-22,2.195259427
14.653985,-32,18,10,13,39,-1,1,-3,2.195259427
14.667110,-7,45,1,1,2,22,6,21,2.195259427
14.667131,-29,-1,-4,-27,19,9,9,-44,2.195259427
14.667674,-17,-12,2,7,39,-44,-24,5,2.195259427
14.667694,4,42,-2,-28,-113,26,16,-6,2.195259427
14.689312,-38,35,4,28,88,31,22,-22,2.195259427
14.689337,-10,54,12,-5,-70,-49,-70,3,2.195259427
14.692009,60,22,-9,26,67,41,21,-1,2.195259427
14.692028,-96,-97,-6,15,66,-31,47,-53,2.195259427
14.711701,52,21,-5,-29,-119,-56,-43,37,2.195259427
14.711713,63,40,8,0,70,38,34,68,2.195259427
14.712323,-50,-82,-4,-9,-59,-68,-47,-19,2.195259427
14.712332,67,54,5,-3,69,102,-9,-58,2.195259427
14.726221,28,25,4,10,15,13,31,4,2.195259427
14.726273,-24,21,-4,-19,-47,-7,-1,-80,2.195259427
14.734490,4,-34,-4,-9,-20,-64,-21,-1,2.195259427
14.734516,-35,-61,-14,5,38,42,-3,18,2.195259427
14.749499,-69,-40,5,3,4,-17,1,-51,2.195259427
14.749530,23,66,-2,-9,-42,18,13,2,2.195259427
14.751709,35,7,3,-29,-9,10,-30,-13,2.195259427
14.751717,23,58,9,39,81,24,-11,18,2.195259427
14.772225,-96,-91,-28,-11,-99,45,-17,-19,2.195259427
14.772232,56,1,-27,25,106,-90,51,-36,2.195259427
14.772235,5,42,15,54,23,127,40,31,2.195259427
14.772237,46,46,9,-30,-103,-36,-47,14,2.195259427
14.785978,-5,33,4,-12,85,1,-38,1,2.195259427
14.785995,-23,-82,-2,-12,-37,24,13,72,2.195259427
14.801767,-24,-55,-6,-16,-38,-36,6,10,2.195259427
14.801784,-2,4,7,0,22,-15,26,11,2.195259427
14.809081,75,37,13,16,10,-5,-17,78,2.195259427
14.809110,-119,-16,-13,-15,-45,-41,-9,-42,2.195259427
14.811064,-16,-26,-13,-5,48,25,14,-49,2.195259427
14.811082,-9,41,1,0,-36,-23,-45,27,2.195259427
14.832501,36,-42,-3,-18,-15,-4,24,-3,2.195259427
14.832514,93,63,4,-23,-50,59,-4,-33,2.195259427
14.832517,-32,22,12,31,92,27,-6,7,2.195259427
14.832519,32,53,10,24,-59,15,39,2,2.195259427
14.855329,66,52,-4,-21,-55,-63,80,3,2.160810274
14.855354,-105,-128,-22,0,46,34,-51,-19,2.160810274
14.857184,28,92,7,33,81,118,23,-10,2.160810274
14.857192,3,-2,-6,-22,37,-17,-4,24,2.160810274
14.870141,-36,68,18,24,13,3,-7,28,2.160810274
14.870153,-2,21,11,-14,-128,-9,12,2,2.160810274
14.872251,78,-68,-10,-33,-28,-77,40,72,2.160810274
14.872265,-30,-42,-1,13,49,-27,-46,-4,2.160810274
14.891632,-27,-39,-14,-10,3,14,-11,-15,2.160810274
14.893938,-20,-109,-4,0,8,-9,7,-65,2.160810274
14.893950,-21,1,0,0,-10,-1,-6,5,2.160810274
14.893953,87,-30,6,6,0,3,18,4,2.160810274
14.906830,-1,75,4,-2,-54,35,6,-19,2.160810274
14.906861,-74,57,-10,-9,-85,-24,12,-73,2.160810274
14.914223,-81,-94,-15,24,2,58,-82,-8,2.160810274
14.914255,6,29,-9,-11,-95,-103,20,5,2.160810274
14.928928,37,69,10,2,54,66,-5,-12,2.160810274
14.928940,-30,-15,-4,-2,62,53,5,22,2.160810274
14.929612,-20,-12,-6,-25,-47,-30,-4,-9,2.160810274
14.929620,-40,-8,2,-42,-67,-40,-45,-63,2.160810274
14.951723,30,-96,10,56,116,2,-22,-42,2.160810274
14.951813,59,16,13,-3,-4,-2,17,21,2.160810274
14.954274,56,-74,-37,-30,82,42,47,-43,2.160810274
14.954282,-13,18,3,21,32,-71,-61,-3,2.160810274
14.966234,43,19,-9,-8,-40,17,-1,-33,2.160810274
14.966257,11,-6,11,-6,3,15,34,13,2.160810274
14.974039,-34,74,6,-4,-63,-5,8,4,2.160810274
14.974068,0,-74,-7,9,18,37,23,-16,2.160810274
14.989681,59,90,6,-23,-35,2,-4,73,2.160810274
14.989697,-67,-16,4,29,103,22,-37,-6,2.160810274
14.989702,-5,33,-10,-26,-72,-69,21,-19,2.160810274
14.989707,-45,14,-9,21,81,80,-19,32,2.160810274
15.011513,-51,-29,-6,-14,59,-14,25,13,2.160810274
15.011535,4,-1,4,-5,-61,-28,-24,-12,2.160810274
15.013663,78,94,20,8,14,59,-12,38,2.160810274
15.013723,29,27,11,-8,-52,-62,22,53,2.160810274
15.026556,-118,-22,-25,5,-20,-29,22,-53,2.160810274
15.026597,1,-93,-18,5,-1,-10,20,24,2.160810274
15.034229,7,23,7,-16,-35,-12,-14,-3,2.160810274
15.034260,-15,-33,-1,-14,17,9,46,-5,2.160810274
15.049088,-29,-9,2,-20,-85,104,-40,-8,2.160810274
15.049119,40,61,10,29,-13,-124,24,-2,2.160810274
15.051696,41,-41,8,50,114,68,-21,-8,2.160810274
15.051716,-18,-115,0,-3,-7,24,-5,-17,2.160810274
15.071616,7,17,-7,-19,-45,-55,-27,17,2.160810274
15.071638,-23,-32,-14,-22,-24,42,-39,-16,2.160810274
15.079087,1,74,22,-3,-8,-41,1,69,2.160810274
15.079110,40,-40,-25,-9,-32,-53,-37,-10,2.160810274
15.086054,-97,-113,-9,-5,-5,-31,12,-24,2.160810274
15.086078,54,84,11,9,115,113,33,23,2.160810274
15.094251,-35,2,-2,-13,61,-47,-18,-3,2.163532317
15.094276,30,80,5,-23,-28,-46,9,-30,2.163532317
15.109215,-30,-73,3,26,-29,13,38,-4,2.163532317
15.109246,-35,-122,-11,-1,15,-3,-2,-35,2.163532317
15.111086,-102,20,-11,4,-60,-9,8,-39,2.163532317
15.111100,-35,52,3,17,96,40,-31,-6,2.163532317
15.131909,30,37,-1,-33,14,14,-11,1,2.163532317
15.131945,56,-15,6,1,-33,-61,-22,5,2.163532317
15.132216,-29,-15,3,-9,-45,-8,-19,44,2.163532317
15.132236,-44,-18,5,16,1,27,24,-7,2.163532317
15.145789,35,18,6,9,35,-38,1,14,2.163532317
15.145813,-24,3,-10,-10,-34,17,-17,10,2.163532317
15.154433,5,58,-2,-11,-4,-47,-5,-25,2.163532317
15.154460,-3,-4,-6,4,6,35,8,51,2.163532317
15.169546,3,30,11,10,23,8,9,-2,2.163532317
15.169580,98,80,15,-22,5,-11,-1,38,2.163532317
15.171688,-77,-122,-50,-38,-91,0,-15,-49,2.163532317
15.171693,10,127,7,53,93,1,-10,-16,2.163532317
15.192957,49,-94,-13,-2,-9,-79,-3,40,2.163532317
15.192970,31,58,-5,16,-25,38,3,16,2.163532317
15.192973,17,26,10,-2,35,47,54,-3,2.163532317
15.192975,-14,25,1,-43,-123,-27,-34,-57,2.163532317
15.214114,-63,-7,-10,4,21,59,-30,-2,2.163532317
15.214146,-16,-44,-1,-29,-78,-108,-10,-1,2.163532317
15.222039,47,47,24,53,-10,-10,2,-2,2.163532317
15.222064,-72,-3,1,-8,113,55,60,-29,2.163532317
15.229009,127,-33,-10,14,58,20,-40,-29,2.163532317
15.229032,14,28,-4,-18,-78,-9,4,22,2.163532317
15.230991,-28,52,6,-9,-56,-29,-6,-44,2.163532317
15.230997,41,-70,-5,-9,-112,52,29,26,2.163532317
15.251673,-42,73,11,14,5,-17,19,5,2.163532317
15.251696,-24,-70,-12,13,79,4,0,-18,2.163532317
15.254189,-17,-4,3,-19,19,13,-84,-2,2.163532317
15.254206,43,23,-4,18,68,78,12,-9,2.163532317
15.274992,11,1,6,12,64,14,69,56,2.163532317
15.275096,-97,-7,1,4,-65,41,-17,-37,2.163532317
15.275609,17,-46,11,31,19,-86,16,18,2.163532317
15.275623,-14,24,-8,-31,78,67,-56,37,2.163532317
15.289224,-11,15,-2,4,-43,4,87,-27,2.163532317
15.289274,69,-44,-2,2,25,-12,19,-1,2.163532317
15.289894,-17,-24,-7,-14,-14,-11,4,-51,2.163532317
15.289914,10,107,17,5,-14,-26,0,96,2.163532317
15.311587,61,-17,-4,-5,-23,-49,-6,-27,2.163532317
15.311606,-2,15,-3,3,12,56,-16,-33,2.163532317
15.313472,15,11,-1,-15,-24,-56,22,23,2.163532317
15.313481,13,3,-10,-3,-71,-37,15,6,2.163532317
15.334898,-36,42,5,-22,-10,28,-86,-66,2.163532317
15.334905,-16,-43,13,47,79,52,-10,38,2.163532317
15.335412,-70,-90,-15,12,8,112,59,-2,2.163532317
15.335489,25,29,-13,-39,-65,-89,10,-32,2.163532317
15.357319,-16,10,-3,16,-36,-29,-50,-13,2.133535777
15.357342,-18,71,2,-21,-70,-3,2,-8,2.133535777
15.360094,112,92,10,10,14,-27,-26,20,2.133535777
15.360109,48,5,10,8,25,28,-17,-19,2.133535777
15.371803,-28,-105,-9,-8,-9,22,18,15,2.133535777
15.371827,-12,65,-8,-6,52,-59,-12,-47,2.133535777
15.373889,-1,-40,-4,-6,-6,25,-16,19,2.133535777
15.373895,-69,-71,-4,-10,-80,-35,14,14,2.133535777
15.402282,12,42,1,-12,37,31,15,94,2.133535777
15.402300,-17,46,9,29,39,24,-26,6,2.133535777
15.404501,29,82,-6,-18,-16,-36,30,10,2.133535777
15.404516,-69,18,10,37,122,17,-1,-38,2.133535777
15.409323,32,-43,-16,-20,-76,-55,6,24,2.133535777
15.409352,17,25,-5,-16,34,3,20,5,2.133535777
15.409914,-34,-11,10,5,48,31,37,-14,2.133535777
15.412357,61,-38,3,15,20,-69,52,20,2.133535777
15.431745,2,82,9,13,-42,43,13,-15,2.133535777
15.431771,10,23,4,4,-69,1,-25,-46,2.133535777
15.432584,94,65,6,-14,-40,-35,-60,-28,2.133535777
15.432604,-83,-94,-25,-3,-14,11,-12,-63,2.133535777
15.455103,15,-14,-5,-10,-5,-11,-6,-2,2.133535777
15.455137,-5,24,-5,-17,-20,2,2,47,2.133535777
15.457256,-9,17,-7,3,-7,15,14,-5,2.133535777
15.457264,2,3,12,-8,-56,-22,-21,-47,2.133535777
15.469656,7,-10,2,18,71,20,11,-19,2.133535777
15.469697,-31,-48,2,0,52,-6,20,-12,2.133535777
15.472881,4,18,0,-3,-54,-7,-18,26,2.133535777
15.472889,-16,76,12,-13,-93,17,17,26,2.133535777
15.491836,-21,-80,-26,-6,50,-55,-45,-37,2.133535777
15.491851,56,22,-2,-30,-9,-11,-25,13,2.133535777
15.492215,-100,-48,1,29,-23,15,43,1,2.133535777
15.492319,79,4,-14,-2,-50,-1,-20,-3,2.133535777
15.515380,-26,19,7,8,-83,-79,-14,18,2.133535777
15.517236,24,9,2,16,87,88,37,6,2.133535777
15.517245,19,-37,-1,6,-19,-17,-6,-10,2.133535777
15.517278,72,110,23,3,47,35,-10,35,2.133535777
15.528968,3,68,-6,-24,-14,58,-9,-24,2.133535777
15.529000,-94,-70,-8,9,-49,-86,17,-34,2.133535777
15.531573,23,-53,-15,-12,37,63,-19,44,2.133535777
15.531581,-1,42,12,27,30,-60,-6,-20,2.133535777
15.551386,-62,-47,6,-7,1,1,3,-31,2.133535777
15.551394,35,-24,1,-3,-31,4,9,5,2.133535777
15.552039,-40,-15,0,-6,15,33,26,-79,2.133535777
15.552046,70,26,-2,-31,12,-19,-55,6,2.133535777
15.575213,74,67,19,36,77,56,79,24,2.133535777
15.575238,18,5,-25,-20,7,-11,-18,-30,2.133535777
15.577845,30,51,-1,-4,4,27,4,-11,2.133535777
15.577858,-2,-29,-12,4,-25,53,10,-9,2.133535777
15.589215,50,32,8,-7,-10,40,-23,54,2.133535777
15.589238,-2,-10,11,21,-16,30,15,26,2.133535777
15.591276,-26,30,0,-34,-19,-83,1,22,2.133535777
15.591284,-54,-80,-3,-3,-79,16,30,42,2.133535777
15.613025,-16,109,-10,-1,58,-51,-57,-35,2.126856860
15.613034,-10,51,3,-6,-20,17,83,-17,2.126856860
15.613037,5,-33,-2,7,39,-29,-68,36,2.126856860
15.613039,40,-32,4,9,18,28,10,37,2.126856860
15.635354,-15,13,8,0,-3,-22,-23,-29,2.126856860
15.635380,-33,-63,-10,-8,-40,-5,-6,10,2.126856860
15.637654,17,54,2,-4,39,10,13,-37,2.126856860
15.637662,4,10,-3,6,-17,-51,6,-8,2.126856860
15.649548,-10,48,4,9,-84,-28,-6,-6,2.126856860
15.649580,19,-74,-13,-42,36,47,-30,-16,2.126856860
15.652429,13,-2,6,57,76,-20,43,5,2.126856860
15.652436,77,88,16,12,-14,-85,-48,18,2.126856860
15.672250,-26,-53,-49,-35,-11,8,7,-39,2.126856860
15.672283,-6,0,4,8,-31,33,-25,15,2.126856860
15.679065,4,-18,-14,-21,-35,2,-41,-2,2.126856860
15.679089,6,-13,0,-6,-25,-26,26,-48,2.126856860
15.694683,67,68,23,16,64,23,-6,8,2.126856860
15.694700,19,30,6,6,-24,-28,-11,-5,2.126856860
15.695380,-43,21,4,3,25,1,6,22,2.126856860
15.695396,-80,-92,-22,-13,-10,46,-21,1,2.126856860
15.709277,-109,-109,4,-4,-25,20,46,-56,2.126856860
15.709299,61,112,5,11,20,-71,-14,33,2.126856860
15.709832,-1,-21,-5,-20,-128,-65,-7,29,2.126856860
15.709854,-33,-86,-9,-2,65,127,29,23,2.126856860
15.731660,34,37,15,15,21,-61,-66,44,2.126856860
15.731693,-8,-75,-14,0,44,13,67,-14,2.126856860
15.734653,23,30,10,-9,-16,-45,-31,55,2.126856860
15.734661,-11,1,-13,-20,-40,-2,27,-47,2.126856860
15.755142,2,5,1,-21,32,35,-7,-5,2.126856860
15.755171,27,103,35,32,0,-32,12,57,2.126856860
15.757250,56,-106,-28,-15,-66,-1,-61,-86,2.126856860
15.757258,3,-5,-10,40,127,13,-60,73,2.126856860
15.769038,-51,-19,14,-17,-80,77,120,37,2.126856860
15.769079,-18,22,5,19,-16,-54,-107,-9,2.126856860
15.769584,-42,-109,-7,-4,88,127,57,-22,2.126856860
15.769620,96,101,16,0,-21,-42,-9,5,2.126856860
15.792158,1,-7,-12,-6,11,-20,-11,-63,2.126856860
15.792192,-62,15,6,9,6,28,5,-6,2.126856860
15.794390,-73,5,10,-14,-3,-34,26,3,2.126856860
15.794403,13,-97,-30,-11,-114,-109,-60,-84,2.126856860
15.814811,21,-61,-15,-33,66,80,22,7,2.126856860
15.814819,49,27,0,45,49,-27,12,-6,2.126856860
15.815414,-24,20,-3,0,-26,-70,-11,3,2.126856860
15.815421,-22,59,9,-13,18,-28,19,-66,2.126856860
15.828304,14,-1,4,4,-47,25,53,1,2.126856860
15.828324,-18,-44,-13,-22,-25,8,-36,-28,2.126856860
15.836614,72,91,3,8,21,14,10,-10,2.126856860
15.837971,-30,39,24,9,23,52,19,32,2.126856860
15.851649,-78,-113,-18,14,-13,-50,-26,-8,2.126856860
15.851671,-79,-39,-18,-38,-44,-29,31,10,2.126856860
15.854172,91,12,-16,-19,-45,7,-43,-4,2.126856860
15.854178,32,10,-31,-20,-18,58,13,-54,2.126856860
15.875037,40,75,26,43,-3,-2,-81,104,2.134522740
15.875074,0,43,22,24,19,-8,61,60,2.134522740
15.877818,-31,-25,3,-17,-74,-34,-8,-9,2.134522740
15.877830,-23,27,8,6,51,10,54,0,2.134522740
15.888589,10,-53,-8,-3,-22,-44,-24,-26,2.134522740
15.888615,8,-46,-9,-19,-37,31,-30,-18,2.134522740
15.896441,-22,16,3,3,9,12,15,9,2.134522740
15.896473,-3,0,6,3,7,-11,11,34,2.134522740
15.911459,22,74,7,9,8,-5,10,3,2.134522740
15.911480,0,-70,-13,-18,-23,-18,3,-6,2.134522740
15.912198,60,55,16,2,-15,-5,11,8,2.134522740
15.912213,-47,-36,0,0,62,54,-47,-25,2.134522740
15.935032,-41,-47,-9,33,20,49,-10,-50,2.134522740
15.935064,-3,18,4,11,67,-54,36,-50,2.134522740
15.937731,57,30,9,59,52,50,-6,-13,2.134522740
15.937743,-24,18,13,-11,-45,-2,3,28,2.134522740
15.948850,-8,21,-3,-27,-61,-40,-4,-11,2.134522740
15.948972,25,31,-3,-3,-13,16,-11,-4,2.134522740
15.957058,-32,-2,2,-6,5,9,13,5,2.134522740
15.957099,-4,-18,-5,-2,0,-39,13,14,2.134522740
15.971511,53,92,8,12,38,8,28,11,2.134522740
15.971545,-43,-104,-1,-32,-119,-44,-47,-4,2.134522740
15.972082,43,-33,-36,-24,121,67,11,45,2.134522740
15.972116,-63,-19,-15,14,-54,-86,-15,27,2.134522740
15.994691,-34,25,-10,1,-52,76,-19,-12,2.134522740
15.994714,52,117,30,10,36,-64,12,40,2.134522740
15.996990,-22,-38,6,2,-63,47,3,-13,2.134522740
15.996997,23,-4,1,-11,-13,0,11,13,2.134522740
16.009153,46,6,5,-4,8,-3,7,9,2.134522740
16.009194,1,-6,-9,-5,-24,13,-15,-5,2.134522740
16.016784,-53,-11,-5,-12,-10,-21,-10,-25,2.134522740
16.016829,36,-3,-6,-5,5,-17,-11,-13,2.134522740
16.031916,36,71,13,-27,-128,-127,7,89,2.134522740
16.031924,35,-16,6,41,113,99,1,-18,2.134522740
16.032107,-128,-88,-20,-34,-37,-6,-1,-17,2.134522740
16.032114,41,-81,-33,-1,-39,-22,-31,-22,2.134522740
16.055286,-85,-7,-14,8,121,-63,6,-16,2.134522740
16.055310,-5,60,-2,-10,18,36,13,-9,2.134522740
16.058157,54,99,22,43,72,12,26,42,2.134522740
16.058168,1,27,9,-15,-13,12,42,2,2.134522740
16.068358,-31,-67,-8,-26,-59,-25,-10,-101,2.134522740
16.068384,43,-2,-1,2,-4,5,-20,35,2.134522740
16.076525,-62,-7,0,-4,-22,-39,-18,-36,2.134522740
16.076557,11,-7,0,-3,-4,-4,-7,10,2.134522740
16.092275,38,-12,-1,-1,-37,17,26,67,2.134522740
16.092307,32,27,12,21,0,79,-59,35,2.134522740
16.092314,127,99,41,9,-26,66,83,69,2.134522740
16.094947,-69,-39,-37,-31,25,-33,-4,-29,2.134522740
16.114639,3,-25,-17,18,127,60,-15,5,2.143901169
16.114652,15,51,-16,-1,-21,-26,-19,-30,2.143901169
16.115719,15,100,17,12,-3,-39,11,40,2.143901169
16.115742,82,13,25,16,43,51,6,25,2.143901169
16.137483,-23,-20,2,-32,-66,-64,-46,-20,2.143901169
16.137513,-23,-46,-8,0,8,24,14,-4,2.143901169
16.140202,-50,-35,-2,11,8,-38,-10,-108,2.143901169
16.140212,15,-29,10,0,-42,-7,-16,23,2.143901169
16.151709,65,76,5,5,-52,-47,-4,13,2.143901169
16.151740,-91,-69,-11,-24,59,87,28,-55,2.143901169
16.154733,-108,-86,-23,-7,4,-111,17,39,2.143901169
16.154744,48,22,-5,-3,-20,77,19,6,2.143901169
16.175108,-17,-21,10,7,17,18,5,26,2.143901169
16.175123,48,-9,-17,-45,-61,-47,-26,17,2.143901169
16.176006,44,87,21,16,-56,8,-21,-9,2.143901169
16.176029,-106,-21,2,15,127,74,-6,-23,2.143901169
16.197227,16,-35,-8,66,118,-39,2,3,2.143901169
16.197249,-3,42,19,-18,-92,-54,1,-7,2.143901169
16.198526,18,-14,-15,-12,6,26,-13,-13,2.143901169
16.198538,-47,12,3,-16,-67,-34,14,29,2.143901169
16.211568,86,-8,1,-11,-38,-4,-26,-16,2.143901169
16.211593,-54,-48,-13,2,0,23,-5,-16,2.143901169
16.213860,94,64,-3,-12,12,-10,-26,-14,2.143901169
16.213873,-46,29,1,4,-68,-33,26,11,2.143901169
16.236228,-41,-52,-10,-10,56,118,2,4,2.143901169
16.236239,51,71,1,-2,-89,-91,-27,41,2.143901169
16.236242,-12,-79,-5,11,75,-55,33,65,2.143901169
16.236244,60,59,17,18,83,21,30,-6,2.143901169
16.257592,-40,-2,-2,-4,70,-47,-21,-37,2.143901169
16.257605,92,28,-3,-36,31,51,-10,-17,2.143901169
16.257838,-77,-14,11,17,-1,71,17,-18,2.143901169
16.257950,21,-69,-21,-17,-55,-69,31,-15,2.143901169
16.271916,-37,-10,-12,4,-19,39,-15,-31,2.143901169
16.271950,-22,-42,-8,-10,-9,15,31,-14,2.143901169
16.273619,18,-3,-1,-5,-5,-31,-17,14,2.143901169
16.273625,114,97,22,9,52,105,35,-20,2.143901169
16.294675,32,-15,-13,-31,-81,-60,21,-6,2.143901169
16.294698,-25,-105,-8,22,40,5,19,1,2.143901169
16.296778,-13,-2,-2,-2,-16,30,-9,-46,2.143901169
16.296789,-5,79,3,-21,-124,-76,-40,-15,2.143901169
16.317501,90,124,44,11,45,47,61,-1,2.143901169
16.317547,-125,-80,-52,23,65,1,5,-100,2.143901169
16.317795,33,26,-13,-3,81,-87,-34,-5,2.143901169
16.317801,20,42,0,-2,-53,18,5,-33,2.143901169
16.331457,-49,5,0,-24,-83,-23,-14,9,2.143901169
16.331488,6,5,18,15,31,127,56,11,2.143901169
16.332243,-42,-42,1,26,68,-101,-29,-29,2.143901169
16.332268,14,-10,-2,-5,23,4,-6,3,2.143901169
16.354180,83,68,13,-1,-21,2,-21,40,2.143901169
16.354210,-62,12,-10,-16,-66,-21,22,7,2.143901169
16.355659,7,-108,-14,-22,-55,60,-8,1,2.143901169
16.355675,-53,-37,3,11,23,-4,-32,25,2.143901169
16.378283,42,72,26,12,9,7,0,-11,2.189351154
16.378304,104,-9,0,-3,-27,-52,-23,26,2.189351154
16.378310,-41,8,-6,-30,-38,29,30,91,2.189351154
16.378315,19,-20,-25,29,70,27,-41,-45,2.189351154
16.392702,77,57,20,8,28,-17,-48,92,2.189351154
16.392718,-36,102,0,-20,7,-70,73,0,2.189351154
16.392720,28,84,27,31,24,68,48,-8,2.189351154
16.392723,-12,11,5,-3,14,-50,0,5,2.189351154
16.414955,-128,-128,-39,-1,36,14,8,39,2.189351154
16.414986,32,108,14,0,-73,44,-28,-44,2.189351154
16.416491,56,98,0,4,-5,-17,-11,-14,2.189351154
16.416504,-12,58,7,6,-3,-12,-33,2,2.189351154
16.438237,-46,-87,3,3,-21,-21,27,-47,2.189351154
16.438245,12,14,3,1,8,-37,-8,62,2.189351154
16.438247,-59,-106,-20,-13,17,21,-36,-42,2.189351154
16.438249,19,12,8,8,47,11,33,12,2.189351154
16.452392,-54,-6,-16,-18,-6,36,5,-49,2.189351154
16.452409,16,-64,-3,-32,-6,-85,9,-6,2.189351154
16.452415,-5,-41,1,39,-7,81,-85,-4,2.189351154
16.452420,-21,-1,-5,21,55,24,92,62,2.189351154
16.475180,-85,-98,0,14,-24,22,-25,-16,2.189351154
16.475205,82,106,17,15,9,-9,-20,36,2.189351154
16.477604,-61,-46,-21,-22,-29,-1,-5,-29,2.189351154
16.477619,4,-75,-29,-37,-100,-71,-38,-32,2.189351154
16.497396,64,50,-1,6,20,37,15,32,2.189351154
16.497427,-11,82,17,15,13,32,-21,10,2.189351154
16.499414,-50,10,2,-17,-17,-27,3,-53,2.189351154
16.499424,-50,-84,-2,-6,-97,13,7,18,2.189351154
16.511416,-2,127,5,2,14,-14,6,-24,2.189351154
16.511440,-18,-124,-23,-5,-52,-62,-42,53,2.189351154
16.513378,60,95,4,-25,7,46,45,22,2.189351154
16.513434,-4,0,5,9,45,16,-18,-31,2.189351154
16.534530,-2,-40,-10,-19,-101,-53,18,-44,2.189351154
16.534552,-77,-52,0,30,105,3,-58,-29,2.189351154
16.537173,43,14,-13,-16,-60,-7,46,3,2.189351154
16.537183,-29,-22,4,-10,-2,26,-35,11,2.189351154
16.557384,33,-49,-2,13,-74,-21,-25,-64,2.189351154
16.557405,-70,8,-3,-7,-14,14,8,35,2.189351154
16.560682,-3,-11,-1,-4,-73,-76,3,15,2.189351154
16.560694,31,1,11,6,40,42,-3,-13,2.189351154
16.572246,-9,-7,-5,-12,8,-4,-6,-1,2.189351154
16.572275,-16,-62,-9,-6,-24,21,18,-100,2.189351154
16.575093,105,27,7,16,48,14,7,13,2.189351154
16.575103,-124,-82,-7,-16,-23,-12,2,21,2.189351154
16.594649,-12,-89,-14,1,15,22,6,10,2.189351154
16.594661,23,-12,1,-3,35,17,13,-8,2.189351154
16.595526,4,53,7,-31,-58,24,-10,12,2.189351154
16.595533,68,96,13,-2,-23,-29,24,-45,2.189351154
16.617140,76,-20,20,38,40,-15,-51,59,2.189351154
16.617157,21,-74,-6,0,-17,14,32,-39,2.189351154
16.617946,-16,-80,-20,28,44,-2,-48,-22,2.189351154
16.617951,-39,89,2,-38,-104,-10,27,-33,2.189351154
16.631546,-49,-61,-20,2,89,-8,-4,-6,2.145996780
16.633126,7,69,19,4,-71,54,25,-20,2.145996780
16.633140,51,11,12,12,-14,-60,-14,10,2.145996780
16.633144,-6,-12,2,-1,7,20,-34,32,2.145996780
16.654409,71,127,-1,-17,20,-20,49,-6,2.145996780
16.654443,-11,-48,-14,-4,60,21,-36,8,2.145996780
16.656993,-64,-32,-3,-3,-83,-21,35,-18,2.145996780
16.657000,9,83,8,19,30,-7,-47,72,2.145996780
16.677447,25,39,-7,-13,-39,2,4,3,2.145996780
16.679792,112,72,11,-3,5,2,19,37,2.145996780
16.679800,-102,-75,-21,-34,1,68,-4,36,2.145996780
16.679803,-26,-116,-1,32,-11,-106,-8,47,2.145996780
16.691567,-6,7,5,17,59,-15,21,28,2.145996780
16.691589,19,48,3,0,-2,-83,-27,22,2.145996780
16.699157,-31,75,8,-20,-110,32,28,0,2.145996780
16.699180,67,-81,5,23,127,126,21,9,2.145996780
16.714015,-111,-92,-14,18,-60,23,51,-28,2.145996780
16.714047,-23,17,0,-7,-13,-21,-6,33,2.145996780
16.716545,36,25,6,27,89,-55,5,-18,2.145996780
16.716557,51,21,-8,-9,-63,68,-11,-29,2.145996780
16.737195,-9,98,1,-38,-63,-76,-48,-20,2.145996780
16.737216,-6,-44,0,21,-17,70,40,-17,2.145996780
16.737610,0,73,3,5,58,99,-18,-1,2.145996780
16.737630,53,6,4,-8,-5,-36,8,-34,2.145996780
16.750983,-59,-81,-17,-25,-29,17,-26,14,2.145996780
16.751009,26,29,4,-5,-36,-27,4,56,2.145996780
16.759309,-29,18,7,2,7,-42,-25,-4,2.145996780
16.759338,11,-1,4,7,4,-29,-11,-32,2.145996780
16.774403,-21,44,0,4,-56,3,11,-12,2.145996780
16.774429,-33,19,-4,1,-17,54,9,-24,2.145996780
16.777464,5,-26,7,-8,45,13,-32,-45,2.145996780
16.777477,-45,68,10,25,57,-99,36,67,2.145996780
16.796864,58,-93,-1,-6,33,70,48,0,2.145996780
16.796877,-8,98,11,-7,-52,-26,-38,-40,2.145996780
16.797500,-4,-22,11,60,79,10,35,16,2.145996780
16.797535,-27,8,-34,-38,-122,31,-52,-32,2.145996780
16.812176,22,34,3,-14,31,-31,-26,0,2.145996780
16.812188,49,-38,-9,-11,-61,59,7,-13,2.145996780
16.818969,17,3,8,-14,-25,-22,13,10,2.145996780
16.818983,26,71,3,-9,-19,20,-23,-12,2.145996780
16.834219,-74,-34,-1,12,32,15,34,-8,2.145996780
16.834250,13,-28,-10,-10,18,-10,2,3,2.145996780
16.835986,-34,-37,-16,-13,-51,-6,-39,-18,2.145996780
16.835992,-10,-34,-3,0,-32,10,1,12,2.145996780
16.859856,72,120,10,-1,-8,2,24,-3,2.145996780
16.859867,-112,-2,-11,-49,11,47,-28,-29,2.145996780
16.859870,47,-32,-4,48,92,9,16,-1,2.145996780
16.859872,81,-92,2,45,-28,-39,45,-12,2.145996780
16.871218,-47,18,7,-8,109,-14,-23,-15,2.145996780
16.871243,-60,-15,-2,-4,-56,-43,-10,32,2.145996780
16.879010,23,71,-12,-15,4,-8,27,2,2.145996780
16.879033,23,40,-1,-26,-4,18,-33,5,2.145996780
16.893973,68,100,4,5,17,-17,-20,-45,2.172482604
16.893995,28,-9,7,23,-6,-52,-32,-48,2.172482604
16.894688,-19,-3,3,-13,-37,-8,-35,22,2.172482604
16.894696,-51,37,9,4,37,-16,27,-27,2.172482604
16.917474,-4,-54,-9,-4,-42,35,7,23,2.172482604
16.917507,-17,-4,3,-3,20,-20,28,-26,2.172482604
16.920089,30,58,0,-16,26,16,-13,-2,2.172482604
16.920095,-27,-97,-21,-10,4,66,-2,0,2.172482604
16.931023,-41,42,9,-12,-83,-109,22,21,2.172482604
16.931045,82,51,-10,18,97,95,-57,24,2.172482604
16.939337,-15,-26,1,43,-20,38,17,89,2.172482604
16.939413,-49,58,-2,-13,-29,-51,-9,16,2.172482604
16.954003,3,-30,-6,-10,-95,16,-52,-24,2.172482604
16.954059,127,86,25,-21,-15,-94,32,-48,2.172482604
16.954569,-1,-70,-30,-25,-28,14,-16,-55,2.172482604
16.954592,-24,61,-7,0,19,3,6,-23,2.172482604
16.977259,40,2,-5,-4,-18,10,2,44,2.172482604
16.977286,-31,56,10,15,31,-27,4,14,2.172482604
16.978884,19,-78,-2,-11,-12,-16,12,-16,2.172482604
16.978896,-13,-67,-1,-9,-16,4,-20,67,2.172482604
16.991428,-4,7,-3,-7,-73,31,26,-20,2.172482604
16.991460,-57,-49,-13,-34,24,-32,-8,30,2.172482604
16.999119,11,7,-2,18,-3,-118,-14,-24,2.172482604
16.999139,77,83,2,2,41,37,-55,33,2.172482604
17.022689,-16,-27,10,17,-50,-4,-6,14,2.172482604
17.022716,-14,-128,-17,22,73,73,3,3,2.172482604
17.025923,19,16,-2,-32,-60,23,28,9,2.172482604
17.025978,-50,-27,-1,-25,44,-38,-13,-40,2.172482604
17.037667,37,42,1,7,-24,-14,-13,4,2.172482604
17.037686,79,13,0,-5,-39,-57,-35,-12,2.172482604
17.039202,-89,3,-8,-27,-46,20,-25,-24,2.172482604
17.039208,13,3,10,32,20,35,69,-38,2.172482604
17.051387,-7,-23,-5,-17,35,-2,-76,39,2.172482604
17.051410,-7,-45,6,32,7,20,25,17,2.172482604
17.059397,20,-34,5,-9,5,6,3,19,2.172482604
17.059432,32,111,6,14,24,-8,15,1,2.172482604
17.074627,-77,-108,-18,-18,-10,36,7,-46,2.172482604
17.074667,-25,31,-2,-1,-42,10,32,-5,2.172482604
17.077492,-48,32,7,32,-68,-102,-53,-54,2.172482604
17.077508,-26,-4,-4,-9,-62,103,57,-36,2.172482604
17.097284,84,122,18,11,109,33,0,5,2.172482604
17.097303,-17,-72,-25,1,82,31,82,77,2.172482604
17.099388,58,62,16,0,38,-10,27,2,2.172482604
17.099397,4,49,15,1,54,-45,-35,17,2.172482604
17.120036,-47,42,3,18,75,-4,25,-19,2.172482604
17.120064,27,107,1,-9,-51,-44,-44,13,2.172482604
17.123378,-12,-41,-14,-20,-19,39,-8,-38,2.172482604
17.123387,-12,-38,-15,-13,16,-80,-21,-21,2.172482604
17.134283,16,21,12,15,12,30,15,-17,2.172482604
17.134314,-64,6,1,-12,-57,-10,-4,-17,2.172482604
17.137059,29,55,-1,-5,28,-21,14,18,2.162320016
17.137066,-20,-91,4,-13,-17,32,-23,7,2.162320016
17.157137,-32,-119,-22,-25,12,-38,44,-53,2.162320016
17.157170,-76,-63,0,37,-70,-6,-41,42,2.162320016
17.157898,4,14,2,19,71,70,-20,-40,2.162320016
17.157905,-28,-39,-4,-8,-29,-70,23,-22,2.162320016
17.179818,-8,-41,-14,-34,-86,58,74,-8,2.162320016
17.179835,70,18,20,14,31,-40,3,0,2.162320016
17.181741,41,47,9,9,16,19,9,20,2.162320016
17.181754,23,100,13,-33,11,-1,-27,5,2.162320016
17.194090,6,-9,-43,-7,6,22,15,2,2.162320016
17.196014,-20,22,6,-16,-41,-33,-50,-15,2.162320016
17.196022,-53,-60,-2,4,-33,-1,32,0,2.162320016
17.196025,43,-1,10,12,6,-8,-9,7,2.162320016
17.217759,69,60,16,29,17,37,-25,-42,2.162320016
17.217852,-59,-99,-29,-15,60,31,9,-15,2.162320016
17.220636,0,38,-15,-31,-40,-48,-27,61,2.162320016
17.220650,23,-1,1,-31,-109,4,1,-17,2.162320016
17.240243,56,57,20,73,122,10,-36,36,2.162320016
17.240270,-23,17,12,7,-104,-52,60,-10,2.162320016
17.243008,10,-68,-8,4,-41,106,32,15,2.162320016
17.243023,-105,-85,-26,-12,-15,-16,32,-2,2.162320016
17.254141,-24,-61,-14,-48,13,-39,-62,0,2.162320016
17.254168,62,76,15,26,32,13,23,-23,2.162320016
17.254956,-25,-60,-6,-16,-3,-128,23,12,2.162320016
17.254976,19,-54,-4,13,0,35,-60,-6,2.162320016
17.277290,-20,74,7,-3,-61,-36,1,-18,2.162320016
17.277311,38,37,8,-13,51,64,-37,33,2.162320016
17.279499,1,47,-6,-12,33,-6,43,-85,2.162320016
17.279511,91,79,13,6,11,-6,-71,35,2.162320016
17.299738,-102,-39,-10,-5,22,28,31,-14,2.162320016
17.299755,124,-35,-21,-2,-28,-8,-90,21,2.162320016
17.301206,-23,97,12,1,-24,45,3,55,2.162320016
17.301232,50,42,9,26,21,-19,12,1,2.162320016
17.313318,-37,59,13,-34,-64,17,-16,1,2.162320016
17.313334,-42,-23,-6,28,83,-12,40,8,2.162320016
17.323542,-2,-45,-9,13,-21,97,-11,-9,2.162320016
17.323555,-39,33,2,-15,48,58,9,15,2.162320016
17.337692,48,-87,-6,3,-36,-74,12,8,2.162320016
17.337715,-26,-17,1,-23,-26,-6,-8,-34,2.162320016
17.338974,58,39,2,-7,-47,-116,-46,12,2.162320016
17.338986,-41,6,-16,2,40,117,32,-29,2.162320016
17.360908,52,109,10,-2,-27,-11,-1,-12,2.162320016
17.360926,55,20,1,-7,8,0,48,6,2.162320016
17.361300,-16,-98,-5,8,-9,-23,-12,-17,2.162320016
17.361308,57,43,-9,0,-30,-32,20,88,2.162320016
17.376107,-10,-11,-10,4,44,-10,-10,-3,2.162320016
17.376129,-13,-26,6,-9,-47,-15,-27,0,2.162320016
17.385034,36,-47,5,8,70,118,12,74,2.162320016
17.385044,-56,-70,-20,13,-15,-61,-65,-55,2.162320016
17.397165,63,75,2,-9,-21,26,-10,18,2.115454926
17.397196,6,16,-1,-3,18,-21,10,-26,2.115454926
17.400351,-6,52,8,10,10,-78,-1,-11,2.115454926
17.400366,3,-17,5,-6,-94,-65,22,5,2.115454926
17.421592,4,-24,0,9,56,6,-37,30,2.115454926
17.421599,-28,-20,-14,-25,26,53,-35,-36,2.115454926
17.421602,-24,30,14,-6,-22,-8,1,-9,2.115454926
17.421604,-1,13,-11,-2,-34,-12,15,-31,2.115454926
17.433305,-21,-95,-6,1,-18,-41,6,-2,2.115454926
17.433329,85,65,5,-1,32,12,-1,23,2.115454926
17.443578,-108,-82,6,16,33,3,-23,-25,2.115454926
17.443592,-32,-55,-22,-6,4,3,19,-81,2.115454926
17.457529,4,-19,-1,-1,-12,10,-5,25,2.115454926
17.457645,-24,5,-5,-3,-76,-3,45,-46,2.115454926
17.460146,28,61,5,-8,47,67,11,-21,2.115454926
17.460162,16,87,11,-29,-22,-21,-6,-12,2.115454926
17.479889,-45,-55,9,16,30,60,21,-35,2.115454926
17.479920,-71,-6,-1,43,31,37,86,-6,2.115454926
17.482088,-11,-35,-1,0,-77,31,-1,-1,2.115454926
17.482097,22,48,9,-18,-64,-38,-11,16,2.115454926
17.493441,-6,40,-3,7,112,98,67,13,2.115454926
17.493462,6,11,1,-22,-94,10,-24,-4,2.115454926
17.505075,11,76,-8,-13,-33,-53,1,-1,2.115454926
17.505084,-20,-116,-26,15,63,9,-24,-2,2.115454926
17.517273,47,75,15,3,-79,-32,-14,55,2.115454926
17.517305,25,111,20,7,10,-10,-9,2,2.115454926
17.523408,34,-49,-26,-14,-33,-71,-11,68,2.115454926
17.523457,12,16,12,6,-6,62,25,8,2.115454926
17.540340,-4,8,-1,-21,-15,-29,8,9,2.115454926
17.540362,-26,-40,-4,9,76,-35,-41,-3,2.115454926
17.543306,123,120,19,21,-17,114,12,-6,2.115454926
17.543320,-97,-77,-1,2,19,-2,-15,31,2.115454926
17.554196,-15,-81,-19,13,-31,50,-2,-4,2.115454926
17.554232,-47,55,-2,-46,-41,19,-16,7,2.115454926
17.562228,66,52,14,18,-88,-30,41,13,2.115454926
17.562251,12,-32,-10,22,96,18,-17,-13,2.115454926
17.577211,-84,-66,-2,-30,-39,-33,-5,-17,2.115454926
17.577232,-24,-49,-14,-33,-61,27,-22,22,2.115454926
17.578622,-12,30,-1,-4,-9,-50,-44,-35,2.115454926
17.578634,42,55,9,-1,-48,-6,29,2,2.115454926
17.599811,52,63,10,14,22,-58,-33,-57,2.115454926
17.599840,1,13,-3,3,15,16,34,-2,2.115454926
17.601728,-62,-121,-8,-17,38,20,15,10,2.115454926
17.601734,21,53,4,7,-2,-32,-9,-57,2.115454926
17.613521,-32,38,-1,-9,-30,47,11,11,2.115454926
17.613544,-86,-70,10,32,87,-18,32,18,2.115454926
17.623663,-9,-30,-10,-2,36,-22,-24,-12,2.115454926
17.623670,8,51,5,0,-40,5,8,30,2.115454926
17.638650,37,-25,-3,26,46,2,-2,32,2.115454926
17.638658,-34,43,3,7,97,68,-18,-41,2.115454926
17.643547,13,12,-2,-5,34,-29,40,56,2.115454926
17.643570,-17,-10,-1,-20,-54,-71,18,16,2.115454926
17.659642,-69,-72,-10,4,14,55,-5,-33,2.110353352
17.659666,74,-33,-16,0,4,-41,33,24,2.110353352
17.661311,-53,-58,-2,-11,40,-34,-24,-40,2.110353352
17.661325,97,39,-2,-11,-57,9,27,23,2.110353352
17.673828,-16,108,12,-9,-17,-24,-13,87,2.110353352
17.673850,-6,14,-6,6,-56,-11,-3,-34,2.110353352
17.684169,49,58,3,-5,-23,28,15,-29,2.110353352
17.684179,10,60,18,6,25,13,7,19,2.110353352
17.697622,71,41,14,21,-1,-8,-17,18,2.110353352
17.697646,-87,16,-4,5,-101,-64,3,11,2.110353352
17.699489,16,55,-5,-12,47,9,-46,-10,2.110353352
17.699501,22,50,-5,8,-56,115,80,-18,2.110353352
17.719978,11,40,6,7,95,-66,-60,-41,2.110353352
17.720001,64,72,14,16,48,64,4,38,2.110353352
17.721254,-8,-28,-1,7,-5,2,-14,-17,2.110353352
17.721262,-67,-76,4,15,3,-34,-6,-17,2.110353352
17.733541,18,-1,-3,-9,-16,-4,-8,-5,2.110353352
17.733576,30,-43,-3,-17,-37,-23,-35,-23,2.110353352
17.744785,-78,-81,-16,-15,-18,-3,1,-4,2.110353352
17.744795,42,19,3,5,51,22,-10,-49,2.110353352
17.757610,-69,-43,-9,-2,-56,-46,8,38,2.110353352
17.757632,22,-11,1,0,10,51,-14,0,2.110353352
17.760385,8,2,-8,-3,0,-39,2,-23,2.110353352
17.760398,-104,-115,-11,2,6,36,1,69,2.110353352
17.779650,69,78,-4,-9,-9,-14,27,-17,2.110353352
17.779663,34,33,3,2,4,3,12,3,2.110353352
17.781214,-74,-69,-17,-22,-5,-54,-1,-33,2.110353352
17.781281,2,58,0,-16,-40,-23,-33,-10,2.110353352
17.794809,84,-54,-8,6,44,9,13,-32,2.110353352
17.794829,-67,-49,-12,2,90,70,-9,26,2.110353352
17.803039,82,58,22,-14,-50,22,3,45,2.110353352
17.803052,-51,-3,1,29,104,-21,-3,4,2.110353352
17.817066,-4,20,-2,-21,-66,40,-16,-35,2.110353352
17.817091,51,-38,0,-5,-107,-79,47,-14,2.110353352
17.818773,40,110,12,19,-34,29,-44,-1,2.110353352
17.818789,-10,16,-4,-14,24,25,-6,43,2.110353352
17.841146,-33,-69,-8,-5,-59,13,20,1,2.110353352
17.841161,18,3,3,9,1,-28,15,39,2.110353352
17.841168,-15,-6,7,4,8,18,-15,-26,2.110353352
17.841223,22,-74,-6,-11,-38,-10,-1,26,2.110353352
17.855512,22,72,8,16,2,-65,8,35,2.110353352
17.855518,-21,-19,5,-9,97,-37,-62,-25,2.110353352
17.863360,-7,10,-6,-27,-20,-31,-9,-53,2.110353352
17.863377,109,17,0,44,126,100,25,2,2.110353352
17.877716,4,-56,-9,17,92,33,-13,15,2.110353352
17.877741,86,13,3,-22,-3,44,-9,-8,2.110353352
17.879330,-100,25,4,29,45,5,41,33,2.110353352
17.879341,-7,-24,4,-1,-15,61,-6,-44,2.110353352
17.901816,-13,99,3,-2,-102,-47,-80,29,2.110353352
17.901823,60,22,8,-42,-6,-43,1,38,2.110353352
17.901826,24,-59,-3,81,105,80,29,-9,2.110353352
17.901828,45,58,4,-4,-43,-24,8,53,2.110353352
17.913366,-2,-102,-22,0,10,-36,20,16,2.088500405
17.913385,52,63,6,18,-46,-13,-16,48,2.088500405
17.923869,-38,-102,4,-33,-80,-44,13,2,2.088500405
17.923877,-91,-80,-22,-12,-3,-35,-51,35,2.088500405
17.937268,29,14,8,6,7,44,39,15,2.088500405
17.938383,-38,-6,-11,-11,-48,-27,-12,-40,2.088500405
17.938623,70,64,4,-8,12,25,8,4,2.088500405
17.938652,27,47,11,9,27,-23,5,-49,2.088500405
17.959842,-50,-48,-13,-20,-122,-9,3,-28,2.088500405
17.959929,16,72,1,-7,60,16,-31,-12,2.088500405
17.962354,17,17,-3,-9,-3,62,-1,11,2.088500405
17.962366,-31,-10,-9,13,78,-42,-44,49,2.088500405
17.973694,16,77,17,25,25,9,7,-35,2.088500405
17.973724,23,0,3,-23,-70,-27,1,-16,2.088500405
17.984231,50,86,7,34,59,64,56,-31,2.088500405
17.984243,-29,40,13,-16,-29,-56,23,-17,2.088500405
17.997356,-50,-109,-25,-42,-50,13,-7,-51,2.088500405
17.997367,-107,-37,6,59,62,-52,-45,-2,2.088500405
17.998781,65,67,4,-22,12,-38,-41,29,2.088500405
17.998801,-27,-17,8,-6,-23,16,67,58,2.088500405
18.019885,-60,-74,-26,-9,-19,-44,-17,-53,2.088500405
18.019906,-46,-16,-23,-28,-96,72,46,-31,2.088500405
18.021921,-8,25,-4,13,40,-109,16,94,2.088500405
18.021977,39,78,19,27,21,127,-24,-52,2.088500405
18.043101,41,114,29,-5,-29,-14,-1,111,2.088500405
18.043113,12,-47,-10,12,6,-69,-13,-5,2.088500405
18.043744,5,-20,-6,-16,29,87,-39,-33,2.088500405
18.043755,0,42,-11,-43,-33,-31,67,-46,2.088500405
18.059846,-12,-54,-12,13,83,46,14,-25,2.088500405
18.059858,-37,-40,-2,21,-7,29,37,-12,2.088500405
18.059861,-24,-103,-9,-24,-41,-107,-28,-70,2.088500405
18.059863,-14,88,8,20,18,-38,-38,19,2.088500405
18.080210,-83,-37,-10,-30,46,52,-8,-34,2.088500405
18.080242,41,-78,-11,3,34,22,48,-57,2.088500405
18.082752,-3,12,-20,-6,-51,19,-8,-6,2.088500405
18.082762,20,-49,-4,-17,-14,-38,-16,-28,2.088500405
18.102402,59,69,7,-4,-17,-56,40,4,2.088500405
18.102432,90,123,30,-11,32,12,-55,63,2.088500405
18.105455,-78,-87,-33,20,94,84,28,-36,2.088500405
18.105462,50,-6,-4,-16,-41,-119,-65,33,2.088500405
18.117702,126,127,20,16,18,33,36,43,2.088500405
18.117736,-78,-33,-16,-14,-84,35,33,-26,2.088500405
18.120646,-26,-29,2,-14,-12,-44,-14,16,2.088500405
18.120653,3,7,-4,-19,59,28,31,-27,2.088500405
18.140026,10,-71,10,43,43,21,-31,-11,2.088500405
18.140049,-57,14,3,-14,-11,-60,31,12,2.088500405
18.143218,2,29,7,1,-57,-22,-26,4,2.088500405
18.143231,-14,-7,-7,10,-32,8,-9,-85,2.088500405
18.162115,44,18,17,-24,-35,-44,-11,5,2.164839255
18.162132,12,-128,-40,-6,-11,-2,17,-59,2.164839255
18.163710,32,56,7,11,14,18,-8,25,2.164839255
18.163728,5,50,-1,-14,31,69,17,-10,2.164839255
18.176745,54,-29,15,-6,33,7,-38,69,2.164839255
18.176764,6,27,14,21,30,-64,26,30,2.164839255
18.183259,-29,29,-14,-15,17,-44,-14,-28,2.164839255
18.183282,5,-32,-8,-9,-40,-27,-7,-17,2.164839255
18.199687,37,81,9,24,64,54,-20,-23,2.164839255
18.199697,-34,-87,-31,32,84,71,-45,-12,2.164839255
18.201060,30,20,3,-9,-27,-24,-3,39,2.164839255
18.201067,-15,6,1,-3,-51,-54,32,-12,2.164839255
18.223128,-80,-101,-14,-26,-43,-19,20,-13,2.164839255
18.223145,31,9,11,-10,-73,5,-14,-6,2.164839255
18.225047,51,98,6,8,16,-14,3,-53,2.164839255
18.225057,-1,-27,-1,15,32,-15,-37,-2,2.164839255
18.236913,-83,-42,-17,-21,35,15,33,-61,2.164839255
18.236945,-30,-43,-5,17,53,-21,-55,15,2.164839255
18.243354,-5,-14,4,1,-103,84,42,-5,2.164839255
18.243377,-19,-18,11,5,0,62,-5,-14,2.164839255
18.261666,25,74,-1,0,-13,-47,4,57,2.164839255
18.261677,29,43,14,-23,-13,42,29,68,2.164839255
18.261680,-29,-96,7,-6,-56,7,27,47,2.164839255
18.261683,115,74,5,50,115,74,-8,85,2.164839255
18.285232,-75,-86,-16,-16,-85,-13,-8,-32,2.164839255
18.285265,33,12,13,8,-79,29,12,-7,2.164839255
18.285287,-12,13,-6,2,80,-65,-60,-4,2.164839255
18.285291,-10,-39,-3,-4,-3,-4,2,-1,2.164839255
18.296579,-3,-14,-2,-3,-20,-15,18,1,2.164839255
18.296601,-56,57,0,-17,-46,-29,16,-31,2.164839255
18.303349,33,-22,2,3,-3,-22,-34,-4,2.164839255
18.303370,-31,13,16,-9,-33,-6,12,-21,2.164839255
18.319736,-38,-49,-19,19,15,-37,-53,21,2.164839255
18.319759,48,102,2,-8,4,42,7,-12,2.164839255
18.321348,-63,38,7,9,28,-34,11,-29,2.164839255
18.321368,-7,-2,-6,-14,-84,-128,-4,-9,2.164839255
18.342262,78,-14,0,-23,-15,82,4,-4,2.164839255
18.342290,-24,9,12,36,25,6,47,94,2.164839255
18.343913,25,55,-14,39,88,109,47,-27,2.164839255
18.343940,-52,-79,-12,-6,-30,-38,-44,18,2.164839255
18.356471,7,127,8,-9,41,-128,-16,-13,2.164839255
18.356502,26,-64,-11,-25,-3,95,-13,-49,2.164839255
18.363395,-9,-15,5,-37,-53,-21,-2,17,2.164839255
18.363417,71,-23,-4,24,38,47,3,-15,2.164839255
18.379712,46,87,17,10,17,53,-7,7,2.164839255
18.379735,-32,9,2,8,55,-39,6,-21,2.164839255
18.381856,-18,-29,-5,-24,-63,-38,12,-55,2.164839255
18.381871,9,-13,-3,-20,-14,7,-7,40,2.164839255
18.401813,45,19,-2,-3,-83,4,-1,-5,2.164839255
18.401825,23,36,10,6,14,-48,-6,14,2.164839255
18.417090,-22,54,3,10,87,-41,-22,-12,2.242597715
18.417139,-23,-88,-10,17,-60,106,54,-9,2.242597715
18.417919,-6,-29,-6,18,73,-34,-49,-60,2.242597715
18.418007,9,42,-4,-30,-40,-27,-29,44,2.242597715
18.423475,28,82,26,-15,-123,-78,7,4,2.242597715
18.423485,-55,-64,-56,-12,127,46,-2,-84,2.242597715
18.440260,-55,54,-1,13,-66,-49,24,-21,2.242597715
18.440289,59,50,-1,-5,105,19,77,2,2.242597715
18.443035,71,97,14,-23,-61,112,-62,45,2.242597715
18.443051,-8,-74,-10,-18,-23,-53,-7,-6,2.242597715
18.463558,10,16,5,10,-17,28,37,-30,2.242597715
18.463567,-52,-12,-10,-6,-29,-28,-27,-52,2.242597715
18.463703,9,-2,7,14,-55,-14,13,10,2.242597715
18.463710,17,21,12,-18,-27,-12,-6,19,2.242597715
18.477037,-67,8,1,41,66,92,22,5,2.242597715
18.479001,61,-12,0,7,16,-113,-53,9,2.242597715
18.483202,-18,-31,1,21,-34,14,18,2,2.242597715
18.483220,-61,-71,12,-20,-67,-55,3,4,2.242597715
18.499632,-36,-14,-18,15,112,99,56,16,2.242597715
18.499649,-28,-20,7,-4,-20,-23,-40,-53,2.242597715
18.501113,-32,-50,-20,-20,-12,-42,-21,8,2.242597715
18.501123,20,22,-8,-10,-23,-48,-16,5,2.242597715
18.522344,16,-2,3,-26,-75,-31,-11,8,2.242597715
18.522359,-73,5,7,9,-8,29,-4,-93,2.242597715
18.523792,51,10,4,10,62,7,3,92,2.242597715
18.523828,-84,-24,7,7,-22,22,-13,-39,2.242597715
18.536261,-4,-24,-12,-33,24,-26,-2,-31,2.242597715
18.536292,28,-7,-19,17,81,96,-6,-24,2.242597715
18.546717,-51,2,-4,0,68,-50,-57,-11,2.242597715
18.546727,15,127,16,34,11,118,61,29,2.242597715
18.560610,46,-6,4,9,46,16,-23,55,2.242597715
18.560623,45,83,19,28,-60,58,-12,84,2.242597715
18.561282,-2,-91,-10,-6,27,7,67,-14,2.242597715
18.561380,-7,41,-7,-18,11,-12,-38,-6,2.242597715
18.582324,-42,-24,-4,-31,-65,-107,-15,-24,2.242597715
18.582355,-8,-32,-11,-9,-27,68,-2,-5,2.242597715
18.585345,-3,-15,-4,-1,-50,-37,-27,2,2.242597715
18.585354,43,17,3,-8,-42,-31,-8,-10,2.242597715
18.595882,-39,36,8,-4,-16,-7,-5,-11,2.242597715
18.595906,-13,-54,1,-8,25,8,29,76,2.242597715
18.606377,29,-23,-3,32,63,27,7,0,2.242597715
18.606388,-10,50,-5,-11,27,-43,-4,-3,2.242597715
18.622617,51,58,11,-1,-60,-24,14,-31,2.242597715
18.622625,-64,-70,-22,-23,-1,-12,-8,-64,2.242597715
18.622629,-77,-57,-7,-17,-74,-17,-1,-20,2.242597715
18.622632,76,12,0,-7,9,97,-86,21,2.242597715
18.642291,-8,-52,-9,21,58,-7,65,-1,2.242597715
18.642326,0,51,3,3,-31,-87,-33,-1,2.242597715
18.643779,-12,23,2,-28,37,58,12,-3,2.242597715
18.643800,-21,28,8,12,-17,-58,2,-21,2.242597715
18.655928,-8,-9,-4,17,41,76,-98,6,2.242597715
18.655936,-9,-23,-7,-4,-51,67,30,-4,2.242597715
18.667412,52,1,0,1,-3,22,74,-29,2.242597715
18.667422,66,48,18,5,-2,-68,-26,15,2.242597715
18.687529,17,112,7,-18,-26,22,27,-50,2.294312000
18.687537,-40,-66,-23,-16,-15,-54,2,24,2.294312000
18.688668,-2,37,-10,-4,8,1,-40,-30,2.294312000
18.688688,-9,-46,-2,4,12,12,44,-3,2.294312000
18.702815,-2,-58,-6,0,-14,-21,-14,-49,2.294312000
18.702836,62,38,5,-18,-62,-56,-37,-3,2.294312000
18.703795,33,19,8,8,-22,0,-42,-4,2.294312000
18.703816,-57,69,0,16,94,-40,73,-14,2.294312000
18.715869,5,-89,-1,-8,-29,0,30,5,2.294312000
18.715876,12,-72,11,36,45,-6,-11,10,2.294312000
18.726922,-35,21,-8,-15,-34,-65,-5,-17,2.294312000
18.726934,77,-70,-12,-21,-44,54,-38,17,2.294312000
18.740224,-15,27,-1,-3,0,-25,38,3,2.294312000
18.740239,-57,94,-1,-25,27,69,28,-9,2.294312000
18.742798,50,72,16,12,15,-14,-9,49,2.294312000
18.742817,-33,-104,-15,-5,-24,-21,-11,31,2.294312000
18.762107,31,-5,2,-6,0,-2,-11,52,2.294312000
18.762120,-26,47,0,-7,-97,-80,-12,-77,2.294312000
18.763671,-29,-41,0,16,69,82,17,32,2.294312000
18.763678,-37,-34,-4,2,28,10,15,-43,2.294312000
18.777179,-10,-12,-1,-15,-44,6,-29,25,2.294312000
18.777191,-47,43,3,22,96,-20,49,43,2.294312000
18.784834,2,65,9,-3,-66,98,-41,-3,2.294312000
18.784911,-36,33,6,8,63,-47,40,-22,2.294312000
18.799599,-21,-20,-17,9,-68,-92,4,-60,2.294312000
18.799616,56,33,-2,14,1,-22,27,-10,2.294312000
18.801231,-12,15,-9,-26,58,-42,24,12,2.294312000
18.801241,-41,68,8,-6,41,61,11,23,2.294312000
18.823204,9,-42,11,34,-45,-16,37,25,2.294312000
18.823212,38,60,-9,-38,80,26,-53,-9,2.294312000
18.823590,-13,-36,10,33,-42,14,16,0,2.294312000
18.823597,11,-77,-7,-7,-57,-32,8,-19,2.294312000
18.835892,-24,47,-4,-3,82,39,-22,79,2.294312000
18.835909,54,20,0,-12,-105,-20,15,-19,2.294312000
18.846642,1,-30,-2,-6,11,-25,-9,18,2.294312000
18.846653,22,14,6,-1,-7,1,-22,13,2.294312000
18.859667,13,32,8,-10,-20,14,-1,20,2.294312000
18.859694,-41,-50,3,14,-24,1,-11,-50,2.294312000
18.862035,1,-7,-5,-27,19,-32,18,34,2.294312000
18.862058,-45,-54,-14,24,-30,42,-27,-30,2.294312000
18.882633,6,-18,8,10,-40,-16,31,-1,2.294312000
18.882665,12,17,11,20,28,-105,1,9,2.294312000
18.885306,92,60,-7,20,64,95,-10,-28,2.294312000
18.885316,-65,5,13,-33,-100,-32,-76,22,2.294312000
18.895851,26,49,-19,-15,47,72,63,-8,2.294312000
18.895874,85,10,-4,-3,59,81,-68,20,2.294312000
18.906933,-48,33,-10,-2,-34,-101,-57,-46,2.294312000
18.906940,55,50,12,2,-23,-18,30,13,2.294312000
18.920319,-22,-39,-13,-18,-28,6,-31,-77,2.294312000
18.920340,14,-37,15,10,-41,14,16,43,2.294312000
18.921211,-14,6,5,-3,-5,-3,8,-27,2.294312000
18.921231,-8,-6,-9,1,35,27,-7,-30,2.294312000
18.942545,-37,-35,-2,-6,19,31,-2,-15,2.308395416
18.942577,-24,-27,-10,-9,-44,-76,3,-38,2.308395416
18.945730,-37,-12,-4,5,-42,37,67,-7,2.308395416
18.945744,37,67,-2,-4,-6,16,-15,4,2.308395416
18.964811,-55,-41,0,-6,55,-77,22,52,2.308395416
18.964868,-9,10,4,17,36,103,-19,-1,2.308395416
18.966178,0,21,2,-17,17,10,51,33,2.308395416
18.966198,46,42,13,24,3,-31,-20,6,2.308395416
18.979757,113,74,-8,8,-1,41,-14,7,2.308395416
18.979777,-16,-57,-7,-37,8,23,-2,-8,2.308395416
18.981261,-13,-30,8,37,48,10,-18,38,2.308395416
18.981283,18,98,-10,-28,-66,-34,42,40,2.308395416
19.002516,-24,-76,6,4,48,18,-91,6,2.308395416
19.002546,4,26,10,12,-12,-49,2,-1,2.308395416
19.004385,50,83,-1,-16,-50,14,6,-28,2.308395416
19.004392,-75,-100,-11,-1,34,-2,24,-14,2.308395416
19.027386,8,50,-2,9,-59,-17,-18,-14,2.308395416
19.027398,-75,-95,-19,-7,30,74,22,73,2.308395416
19.027401,14,-47,-2,-22,-71,-14,-10,5,2.308395416
19.027432,127,50,6,6,70,-81,30,-14,2.308395416
19.039988,-52,-49,-2,14,-63,44,47,-13,2.308395416
19.040023,44,85,11,18,40,-6,-5,-2,2.308395416
19.042725,-2,10,-3,-26,22,-24,27,-17,2.308395416
19.042736,44,-94,-9,48,25,-56,-49,5,2.308395416
19.062176,7,-18,-18,-43,-30,46,-44,-24,2.308395416
19.062200,-2,50,11,-2,-18,-70,45,19,2.308395416
19.064965,7,-128,-15,-4,-41,-2,1,-5,2.308395416
19.064974,-40,38,4,-18,-32,0,-6,-6,2.308395416
19.085008,1,99,24,11,30,11,10,-48,2.308395416
19.085039,-8,-22,-16,0,-23,-13,-56,-31,2.308395416
19.087715,45,-28,-4,-14,-1,-36,-13,-7,2.308395416
19.087726,-32,70,7,2,-5,46,13,43,2.308395416
19.099522,82,90,8,5,15,-27,2,69,2.308395416
19.099552,-63,20,-17,-14,54,13,22,-14,2.308395416
19.105882,41,66,13,-13,33,-29,-38,30,2.308395416
19.105899,-81,-93,-3,14,15,106,105,-39,2.308395416
19.122291,30,33,1,17,42,84,-53,3,2.308395416
19.122327,8,-8,1,25,31,-91,-6,-7,2.308395416
19.123529,-31,1,-4,-19,-90,-77,-24,4,2.308395416
19.123536,86,67,10,16,58,49,-18,-3,2.308395416
19.144931,9,-70,-4,-29,-41,-31,7,7,2.308395416
19.144949,-91,26,9,-6,-22,46,20,-11,2.308395416
19.146722,66,-31,-6,24,-7,-1,-27,-51,2.308395416
19.146737,-79,-73,-27,-46,-71,-43,-20,-33,2.308395416
19.159593,0,16,-5,11,16,-14,8,2,2.308395416
19.159637,59,-9,-7,-9,-15,-13,-21,1,2.308395416
19.166103,-3,-31,13,18,5,-24,-18,41,2.308395416
19.166119,16,21,0,0,26,-5,-5,-42,2.308395416
19.183996,2,4,6,-4,1,4,29,90,2.308395416
19.184002,-12,-5,7,-39,-128,-54,-15,2,2.308395416
19.184005,-35,-15,-15,48,127,29,64,-52,2.308395416
19.184008,65,96,7,-15,-65,-58,0,-43,2.308395416
19.204932,-34,-51,12,31,1,12,31,13,2.246072376
19.204955,64,-44,-5,-1,54,47,75,8,2.246072376
19.207102,-1,32,7,-6,-41,43,-38,5,2.246072376
19.207109,-12,-26,-2,23,41,-41,12,-17,2.246072376
19.219397,-25,29,-2,9,43,-96,-55,-35,2.246072376
19.219427,36,39,6,-24,-52,1,3,9,2.246072376
19.226116,-61,67,5,-11,18,73,16,57,2.246072376
19.226143,-51,-70,-12,-9,-13,-50,13,16,2.246072376
19.242297,62,11,-5,-15,3,-14,-7,0,2.246072376
19.242322,6,-57,-5,13,15,14,-19,44,2.246072376
19.244875,-88,-98,-22,-12,-21,-13,0,21,2.246072376
19.244889,52,69,8,5,-13,28,-3,36,2.246072376
19.264809,10,-31,-10,-17,-9,-10,-5,-1,2.246072376
19.264835,23,31,1,8,42,-33,-3,14,2.246072376
19.267390,10,22,15,16,54,-86,-28,-31,2.246072376
19.267398,-45,-2,7,15,-11,108,91,16,2.246072376
19.279050,-35,-91,6,45,76,60,-79,-41,2.246072376
19.279079,30,-33,-10,9,-20,-57,60,-12,2.246072376
19.286382,15,-50,-33,-62,43,62,3,-47,2.246072376
19.286403,-24,16,-7,4,48,27,-6,-21,2.246072376
19.302611,28,91,4,-27,-59,-7,19,-15,2.246072376
19.302643,21,5,2,8,-49,28,-5,-40,2.246072376
19.305273,-43,-58,15,37,-20,3,7,29,2.246072376
19.305283,13,1,-11,-34,-47,-46,-37,-70,2.246072376
19.324860,-77,43,0,-7,-26,-20,-3,-11,2.246072376
19.324905,52,-12,1,4,-12,4,-30,-6,2.246072376
19.326395,7,33,-2,-1,-18,-63,30,60,2.246072376
19.326418,102,-6,-15,-19,-23,48,-16,-17,2.246072376
19.338912,-28,-57,3,-17,37,-18,19,13,2.246072376
19.338928,25,-48,-24,10,16,0,-29,-13,2.246072376
19.345831,19,89,6,-5,-85,-71,-12,-35,2.246072376
19.345848,88,25,47,8,115,75,-27,100,2.246072376
19.362195,-50,-98,-63,-32,-89,-99,17,-24,2.246072376
19.362213,-99,125,17,14,-16,-19,-58,1,2.246072376
19.364426,27,51,-5,-23,-84,-32,-18,-21,2.246072376
19.364434,-67,34,5,37,33,41,3,-46,2.246072376
19.385412,-64,-78,-13,-14,2,-13,-19,-67,2.246072376
19.385419,24,18,13,2,30,61,11,56,2.246072376
19.386218,-15,79,-6,-27,-35,16,5,-64,2.246072376
19.386224,0,-22,5,18,-1,-33,-76,34,2.246072376
19.399484,42,19,17,3,0,6,28,12,2.246072376
19.399496,-63,-32,-6,22,-12,-49,-19,-58,2.246072376
19.405862,-23,-81,0,-11,-47,121,30,-64,2.246072376
19.405876,21,14,-2,0,-16,-36,-1,39,2.246072376
19.422460,30,43,3,15,19,-8,15,-14,2.246072376
19.422487,-21,-28,2,-18,29,69,47,23,2.246072376
19.424333,52,23,-3,9,-50,-79,-79,2,2.246072376
19.424340,-67,11,-11,3,98,-9,77,-65,2.246072376
19.444827,-62,-57,-20,-32,-108,-41,-54,14,2.255802321
19.444851,-12,64,12,-14,34,67,-19,-18,2.255802321
19.446997,3,14,1,44,127,57,96,78,2.255802321
19.447014,-113,-128,-22,-29,-19,-64,-37,-6,2.255802321
19.459063,26,90,28,40,38,19,28,52,2.255802321
19.459178,60,21,0,-22,-61,-5,-10,27,2.255802321
19.466165,63,26,10,14,38,50,-7,20,2.255802321
19.466194,39,57,-26,-38,-128,-102,-49,-17,2.255802321
19.482503,-12,-38,7,14,79,8,13,-8,2.255802321
19.482522,-13,27,9,0,38,-2,-14,-31,2.255802321
19.484889,68,1,9,27,20,76,-17,24,2.255802321
19.484900,-10,65,2,-20,-3,-64,28,34,2.255802321
19.504859,55,14,0,-3,43,58,-6,7,2.255802321
19.504885,3,90,22,33,-32,-52,-5,72,2.255802321
19.507920,-97,-128,-57,-40,-4,3,2,-43,2.255802321
19.507931,5,17,-3,5,-7,74,-54,-22,2.255802321
19.519035,4,25,2,-19,-54,22,22,106,2.255802321
19.519078,-26,0,-11,32,116,12,15,-17,2.255802321
19.529209,-2,-50,-4,-37,-54,-69,-21,-79,2.255802321
19.529251,-54,-1,5,0,-12,42,3,-18,2.255802321
19.542145,6,6,-6,-5,-100,-31,-37,-32,2.255802321
19.542165,70,34,12,7,66,-13,53,10,2.255802321
19.543761,-106,-81,-12,-1,-8,-28,-14,-10,2.255802321
19.543780,43,17,-11,-23,-41,-23,-1,11,2.255802321
19.565221,58,74,21,27,-41,50,25,5,2.255802321
19.565252,13,0,-4,-18,54,43,77,-25,2.255802321
19.567716,38,48,3,-17,-59,-87,-18,13,2.255802321
19.567725,-18,-48,9,68,98,75,-5,41,2.255802321
19.578330,12,24,-2,-28,-24,-19,49,-26,2.255802321
19.578347,-38,-33,0,20,-26,38,-28,7,2.255802321
19.587779,13,-34,16,9,37,-17,-6,25,2.255802321
19.587787,79,101,3,-25,-26,-64,32,-31,2.255802321
19.603269,42,-59,-18,-2,-8,14,-18,39,2.255802321
19.603276,-12,35,-3,-9,-24,-27,-41,-34,2.255802321
19.603576,-44,14,-3,2,-61,19,4,-22,2.255802321
19.603583,42,-18,12,3,13,7,-12,-32,2.255802321
19.624922,-5,9,4,-4,41,9,-8,-22,2.255802321
19.624946,0,45,15,16,-11,-42,-2,40,2.255802321
19.627304,87,-9,-4,12,87,-5,13,72,2.255802321
19.627316,-40,49,11,44,-23,-80,8,-1,2.255802321
19.638785,-20,-81,-19,-3,76,-4,-22,-29,2.255802321
19.638809,57,64,6,-21,12,59,66,5,2.255802321
19.649112,-15,-60,-10,3,-23,35,-4,-14,2.255802321
19.649124,-17,1,-3,-9,-13,-3,-11,12,2.255802321
19.662112,52,105,16,-3,-39,-43,27,6,2.255802321
19.662148,-8,-33,-21,-39,-106,-44,-49,-65,2.255802321
19.664109,8,7,15,45,127,58,8,5,2.255802321
19.664119,49,-64,-8,-19,-33,17,25,27,2.255802321
19.684796,-21,83,15,11,-57,-46,-41,-27,2.255802321
19.684804,-54,-128,-26,-28,-59,15,-32,-41,2.255802321
19.686688,54,29,-4,31,22,-36,8,1,2.255802321
19.686704,-42,-48,1,-13,-32,38,-25,122,2.255802321
19.698400,68,-2,0,-16,59,41,18,12,2.218090326
19.698443,-66,-51,-1,40,33,63,-6,16,2.218090326
19.709621,7,46,7,-17,-58,-73,27,3,2.218090326
19.709635,0,5,-4,-11,9,1,-20,-18,2.218090326
19.722614,-15,10,-3,12,6,-15,-9,11,2.218090326
19.722629,12,9,-9,-18,-48,-74,2,2,2.218090326
19.725032,-28,0,6,-29,-22,61,-8,-27,2.218090326
19.725044,34,9,0,64,67,24,-13,-4,2.218090326
19.744661,-29,-3,-14,-14,-74,-3,5,-39,2.218090326
19.744674,79,34,-3,25,-8,12,-38,8,2.218090326
19.746154,-49,25,1,-11,-18,2,-6,4,2.218090326
19.746161,67,48,9,-22,-31,-10,27,34,2.218090326
19.759418,-36,-60,12,13,11,-16,-18,2,2.218090326
19.759431,-32,49,-6,-20,6,21,27,32,2.218090326
19.769627,-20,47,-2,0,-52,20,-37,46,2.218090326
19.769635,4,-67,-8,-31,-42,4,10,-60,2.218090326
19.782718,2,-78,-15,26,59,2,18,42,2.218090326
19.782750,7,-81,4,-4,18,-23,-9,-29,2.218090326
19.785298,14,48,15,28,67,8,20,-19,2.218090326
19.785304,0,14,-3,-15,29,49,-13,-4,2.218090326
19.804764,-66,20,9,-17,-22,-80,-8,-4,2.218090326
19.804783,29,-71,-12,33,-17,-17,-34,-12,2.218090326
19.806080,-10,-28,-24,-56,-96,4,61,-15,2.218090326
19.806112,12,9,-1,-4,26,79,-14,81,2.218090326
19.818362,34,52,8,0,21,-54,-42,-35,2.218090326
19.818372,-2,-37,-13,-40,-74,34,87,-4,2.218090326
19.829246,-20,10,3,46,56,-11,-32,3,2.218090326
19.829262,-42,27,-9,-12,-45,-9,-7,-40,2.218090326
19.842418,8,-27,2,-10,-15,29,30,-17,2.218090326
19.842442,12,45,11,4,4,-6,-27,26,2.218090326
19.844752,98,-32,11,-3,-13,-16,-11,9,2.218090326
19.844764,-6,-72,-24,-30,-106,-46,40,47,2.218090326
19.866122,106,106,2,28,127,51,-68,-7,2.218090326
19.866129,-29,54,-9,2,21,-66,-47,-33,2.218090326
19.866262,-2,127,23,-8,-4,84,24,26,2.218090326
19.866268,-55,-69,-30,14,55,-42,17,-53,2.218090326
19.878468,-12,-30,-6,-12,-52,1,15,66,2.218090326
19.878485,27,42,2,-36,-81,-9,-8,14,2.218090326
19.889380,12,46,26,39,106,36,-8,-14,2.218090326
19.889387,-5,51,24,55,8,-47,15,61,2.218090326
19.902436,-67,-95,-23,-21,21,108,54,-34,2.218090326
19.902467,75,31,-2,-2,93,-26,-30,-78,2.218090326
19.904546,-71,-38,-12,-39,-126,-54,-29,3,2.218090326
19.904552,-22,-24,-6,-26,-13,58,-35,-96,2.218090326
19.927571,10,15,11,49,64,-9,35,30,2.218090326
19.927592,-1,-29,12,7,-21,14,36,27,2.218090326
19.927599,-32,-45,-13,2,18,13,18,-51,2.218090326
19.927604,25,45,13,-2,-13,-29,-23,-36,2.218090326
19.947277,-35,21,7,-13,-56,-10,-38,-35,2.218090326
19.947310,41,70,13,-3,7,27,1,98,2.218090326
19.948790,-53,-90,-25,-9,1,-45,-5,-12,2.218090326
19.951208,54,6,1,-17,0,-53,4,3,2.218090326
19.962204,57,17,-17,2,-107,92,43,-15,2.248762868
19.962295,15,49,10,55,71,-46,-21,46,2.248762868
19.965155,-4,51,7,-26,-4,66,-43,-3,2.248762868
19.965160,13,42,23,77,97,-22,38,40,2.248762868
19.992335,-17,-34,-15,-39,-4,9,49,-71,2.248762868
19.992365,-4,-26,-5,-3,-87,4,73,-24,2.248762868
19.993720,28,8,-3,-25,-33,64,-95,0,2.248762868
19.993746,-25,-43,1,4,53,53,25,39,2.248762868
