Timestamp_ms,Channel_0,Channel_1,Channel_2,Channel_3,Channel_4,Channel_5,Channel_6,Channel_7
125,0,0,0,0,0,0,0,0
177,0,0,0,0,0,0,0,0
233,0,0,0,0,0,0,0,0
296,11,-3,0,1,-1,-5,-4,0
357,-25,1,1,-3,-4,-3,-7,-19
409,-7,-2,-2,-1,-1,-2,2,-6
470,2,-10,-8,-2,-4,-3,-4,-4
534,5,10,5,2,0,-1,-6,1
589,-1,0,3,-2,3,0,9,13
644,-5,-2,-5,-2,2,-1,-4,-6
696,-3,-6,-4,-2,2,3,1,5
748,-3,-4,-2,0,-4,-4,0,0
806,-11,0,0,-2,-1,-11,-2,6
853,5,-4,0,-2,-5,0,2,5
912,2,6,3,3,5,-1,3,6
963,0,-2,-4,-5,-1,5,5,14
1024,-28,4,0,-2,-23,6,5,4
1076,-6,0,-1,0,5,-5,-1,-1
1129,-3,4,-2,-1,6,-1,7,9
1184,12,1,2,0,2,2,8,10
1236,30,2,-4,-1,5,-6,-8,22
1295,10,-3,-2,-4,-28,-15,-4,1
1358,4,5,4,-1,-14,-4,3,2
1405,-7,3,0,0,12,-6,-5,-1
1459,-69,-9,-2,-1,-11,-2,-8,-7
1512,20,1,-3,-2,33,-5,-7,-21
1566,-12,0,4,-3,-7,-2,-3,8
1617,17,3,3,-1,-4,-3,6,14
1672,-19,-7,-6,-3,-4,-1,-1,5
1738,24,1,-3,3,16,3,6,2
1798,13,0,-1,1,6,-1,2,9
1857,14,-3,-2,-1,11,2,0,2
1911,3,4,7,1,2,-4,1,6
1974,10,2,4,1,-4,-3,0,10
2036,-3,-6,-6,-1,-5,-3,-2,-7
2098,-1,1,-1,-1,2,-2,-6,-2
2161,4,3,0,0,2,4,9,23
2210,18,5,0,-2,-12,-3,-2,18
2262,-3,-6,-3,-6,-8,-4,-7,9
2315,-14,6,1,2,-7,0,1,4
2368,0,-3,-3,-2,-3,4,3,-3
2421,8,2,-2,-2,-2,0,-6,-17
2478,-11,-1,-3,2,15,2,-1,1
2540,-33,1,-3,-5,-9,-3,-7,-41
2601,-49,-2,0,-2,-6,-3,-4,-9
2653,-7,0,2,3,4,-5,-2,-5
2715,21,-5,-5,1,3,15,-5,21
2784,20,4,-4,-4,19,-2,3,1
2842,4,0,-2,-9,-128,-41,2,-22
2901,-87,-6,-5,-5,-59,3,7,-38
2954,-14,-4,0,-6,1,9,1,6
3016,-9,-3,0,11,95,28,-2,7
3079,-54,-7,-6,1,-15,-27,2,-13
3143,3,-1,1,1,-11,5,-10,-21
3200,-26,-10,-5,-2,5,5,-4,-22
3252,-48,-7,-2,3,-11,-1,-7,-54
3306,-5,-11,1,-4,-15,-1,0,-9
3358,-2,-9,-1,-2,-5,3,3,25
3411,7,-2,-1,4,15,6,0,14
3463,9,-2,-3,-4,3,7,-9,-44
3522,8,-2,-1,1,14,-5,-1,7
3584,-1,-4,-4,-10,-46,-29,-2,8
3644,-2,-2,-1,-2,-8,-4,2,-5
3695,27,7,2,2,-3,-3,1,12
3762,-12,-6,-6,-1,-13,0,-5,0
3820,1,-6,-7,-3,-17,-5,1,11
3884,-2,-1,-4,-5,-12,-1,-5,12
3944,-12,0,-2,0,-6,-7,-6,-6
3994,0,0,1,1,-3,-5,1,-3
4058,-3,3,1,3,2,6,13,39
4122,15,3,2,-5,0,-5,-6,-4
4184,-32,-5,-2,-1,-7,-3,-8,-18
4244,7,0,-2,-1,1,0,2,-9
4296,15,1,-3,-4,0,-1,0,3
4349,-7,-2,1,2,11,-1,3,13
4400,-3,1,-1,3,-7,0,2,19
4457,-28,3,3,4,2,0,5,13
4508,-6,-2,-1,0,-10,-2,-3,4
4564,-3,3,0,-2,-8,-2,-9,-15
4627,1,4,-3,1,0,-2,-3,-3
4686,-7,-4,-3,-2,0,1,0,12
4738,0,-8,-2,-1,-5,-5,-6,-12
4794,9,-6,-2,1,-4,1,4,14
4843,17,-1,2,-1,0,-4,2,11
4896,12,0,-1,1,1,0,5,1
4949,-11,-3,0,-3,-10,-2,2,2
5006,-4,8,1,-2,-3,-1,-2,-11
5069,3,-1,-2,1,3,-3,-9,-26
5128,2,0,-1,-1,-7,-2,8,30
5182,-5,-2,-1,-3,0,-2,3,10
5242,7,0,1,3,24,-1,3,15
5309,-2,-2,-1,-1,-4,0,-2,0
5369,1,0,-2,-3,-7,-2,-2,0
5429,2,-7,-5,-4,-7,1,2,12
5482,-6,-5,0,0,-3,-1,-1,4
5542,0,-2,1,4,-7,-2,-2,2
5604,1,0,-1,-1,-2,0,-2,1
5669,-3,0,0,-1,-1,-1,2,-16
5729,0,-1,-4,-2,-4,-1,-2,-1
5778,-4,-3,-1,-1,3,-1,-5,-19
5842,-1,-4,-3,-4,-2,-1,3,-1
5905,0,-1,-3,-2,-2,-2,-3,-6
5968,-1,-1,0,-1,1,2,0,-1
6033,-6,-7,-4,-1,-2,-1,-1,-5
6080,2,0,2,-1,0,0,5,20
6133,1,10,8,-2,-12,-2,-2,-1
6185,-1,0,-2,0,3,-1,4,7
6238,-2,3,0,-3,0,1,1,0
6289,-1,-2,-1,1,-1,0,3,11
6355,-4,1,2,0,-5,0,1,0
6414,5,4,-1,1,1,2,-6,13
6463,2,0,-1,1,-1,-2,1,5
6517,-4,-3,0,-1,5,-1,-2,-8
6569,0,0,-1,-1,-3,-3,-5,-5
6624,-2,-3,-2,-2,1,0,-3,-3
6670,0,1,-4,-2,-1,-1,-1,8
6725,1,-2,-2,-1,-15,0,1,0
6777,-3,-5,-2,-1,5,-1,2,1
6839,10,9,4,0,4,1,8,39
6890,1,-1,2,-2,0,0,-2,-3
6939,-2,3,2,-2,-5,-3,1,7
6996,-3,-5,-6,1,1,-1,1,-4
7051,-1,-2,-2,-3,0,0,0,3
7109,3,0,-3,-1,-3,-3,0,6
7162,-5,-6,-5,-2,3,1,0,1
7218,0,2,-2,-1,2,-2,-4,6
7270,-4,-5,-5,-4,-2,-3,-8,-12
7333,4,5,0,0,-5,-2,-1,1
7393,-5,-6,-4,-5,-2,-1,3,14
7444,-7,-1,-4,1,6,5,2,13
7498,-6,-3,-1,0,-11,3,5,12
7551,3,3,-1,-4,-13,-4,-5,-8
7603,3,-1,0,-3,-2,-4,-1,2
7656,-11,1,0,2,5,0,-1,11
7708,8,3,1,-2,4,0,3,12
7761,3,-2,0,1,13,0,-2,-6
7813,-1,-1,1,1,8,1,2,3
7868,-2,-3,-2,-3,-3,-1,1,0
7932,8,-1,-2,1,-2,1,0,11
7993,4,-1,-2,0,-1,-1,1,-3
8043,-2,-11,-3,-1,-4,-2,-3,4
8098,3,-4,-7,-5,-13,-1,-1,5
8151,-3,-4,-1,0,1,-1,0,2
8201,1,2,1,1,1,-2,-2,10
8256,-13,-5,2,-2,-20,-4,-3,-3
8314,4,-2,-3,-1,-4,2,5,14
8375,7,6,2,-1,-2,1,-3,3
8438,-3,0,0,0,1,-1,1,-5
8496,4,0,-2,-2,-1,-3,2,5
8549,-4,6,4,1,5,-3,-5,-16
8603,-4,-9,-4,1,6,-3,-2,5
8656,3,-2,-2,-1,1,0,3,7
8712,8,4,0,-1,-5,-1,0,-3
8773,2,-6,-3,1,-2,-2,-2,-2
8835,-4,0,-2,-1,-1,0,-2,-3
8893,1,3,1,-2,5,0,-1,-5
8946,2,3,2,2,3,0,6,9
9000,0,0,0,2,-3,1,1,5
9055,-3,-5,0,-3,0,0,3,-6
9118,7,0,0,-1,6,1,-1,4
9179,7,-3,-1,-1,0,-2,0,1
9239,-15,-4,-2,1,2,1,1,5
9292,-2,1,-2,-4,-3,0,4,5
9356,6,1,5,2,5,-1,-4,1
9419,3,7,-3,-1,-15,0,-3,-13
9479,4,0,-3,0,5,0,2,11
9532,-3,0,1,-2,-2,-1,-2,-7
9595,22,4,1,-1,1,5,-2,3
9659,-34,-6,-2,0,2,0,-2,-1
9724,2,-2,-2,-1,4,1,2,0
9770,0,1,3,0,21,-5,-3,-7
9822,7,-6,-3,-3,-4,1,3,9
9877,-1,-6,1,-2,-2,-2,-3,-7
9928,-8,4,0,-3,-6,0,-4,2
9982,-12,-8,-2,-2,9,-1,-3,-3
10039,6,2,2,1,1,4,11,21
10102,-7,-7,-5,-2,2,-11,-7,-17
10162,7,-5,-3,-3,-5,-3,-5,-2
10212,-17,-6,-3,0,3,-1,-3,2
10275,2,4,-3,-6,-12,-3,-9,-16
10339,-9,-1,1,-2,3,-2,-1,6
10402,7,2,0,-4,-5,-3,-1,-7
10462,-17,-3,-2,0,-4,-2,1,-5
10513,9,-2,-2,-4,-5,-2,-4,-4
10576,11,9,7,4,2,4,8,36
10640,-11,0,-1,1,23,-3,-3,-6
10705,6,2,0,-3,-7,-2,-4,-16
10763,-6,1,3,-4,-8,-2,-2,2
10822,2,1,0,1,1,-3,1,-1
10875,-2,-2,-5,-3,-3,-2,-1,-5
10925,24,2,-1,1,-5,2,-4,6
10978,-2,-1,-3,-1,-3,0,2,10
11033,7,-1,-1,0,-1,-3,-6,-4
11092,7,4,0,1,-2,-1,-3,0
11143,0,-1,-3,-4,5,1,2,-5
11205,6,2,2,-3,-6,-3,-2,5
11264,12,2,-6,-4,-7,-1,1,15
11318,7,-2,-5,-2,-1,1,1,8
11381,4,0,-2,-4,-2,-5,-2,-2
11443,10,2,-1,1,0,-1,-2,1
11505,0,-8,-7,-2,5,-1,3,12
11565,1,3,-3,-2,-4,-1,-1,-3
11618,8,-1,-1,-4,-14,-1,-3,0
11690,-4,-4,-1,1,5,-1,-2,-3
11746,13,2,-2,1,-5,-4,-1,-5
11807,5,-3,-1,-1,-3,-6,0,3
11865,-11,-3,-4,-2,-2,-1,-2,2
11920,8,-6,0,0,-7,2,2,11
11968,1,-5,-5,0,-6,-3,0,2
12022,6,-3,-2,-1,0,-1,1,2
12076,-6,1,-1,2,-4,-2,-4,-7
12130,6,2,-1,-2,-7,-3,1,6
12188,2,0,2,0,-4,-1,-3,8
12248,-10,-4,-1,-1,-4,0,-4,0
12298,2,-1,-1,0,2,0,1,3
12361,-1,-1,1,2,-6,1,-4,1
12423,0,-4,0,0,-2,0,0,-1
12473,2,-2,1,-1,-6,0,-1,6
12528,-10,0,0,0,13,0,-3,-4
12586,-14,1,1,-6,-29,-7,-3,-3
12630,5,1,0,-2,-33,-7,-1,2
12690,9,-2,-2,0,-1,-1,-4,0
12752,-14,-1,10,4,6,1,2,2
12801,-4,2,0,4,25,5,1,18
12866,6,1,5,2,-3,1,0,-5
12930,-6,-6,-8,-5,-1,-8,-4,-10
12990,-67,-9,-3,0,6,0,-2,-27
13052,-1,2,-3,-1,-14,-3,-1,-1
13105,-6,-2,0,-3,-8,-7,-7,-12
13163,11,0,-2,0,3,-2,0,0
13227,1,1,2,2,-2,1,-4,5
13290,8,1,1,-1,-5,0,-6,-12
13349,18,4,3,2,5,3,1,8
13401,-28,-2,2,-3,-6,-3,0,-6
13464,15,4,-5,-3,-6,-5,-6,4
13528,-19,-3,1,0,4,2,4,15
13589,1,4,2,-3,1,0,-4,-5
13650,-14,-3,2,-4,-2,-2,-2,-11
13701,6,0,-2,-1,-7,-1,-8,-1
13756,0,3,4,0,0,-1,-2,-4
13807,6,-1,-3,0,-1,-2,0,6
13866,-11,-6,1,0,5,2,-2,-11
13913,-3,-5,-2,-4,-22,2,2,6
13972,6,-1,2,0,6,1,1,3
14033,3,3,2,5,6,0,1,11
14084,2,-6,-7,-1,-9,-3,-3,-3
14148,15,4,3,0,0,0,0,12
14211,-12,0,-1,-1,2,1,-2,-1
14272,0,0,2,0,-3,0,1,-2
14332,-32,-4,2,-4,-4,3,-1,4
14385,-17,-2,2,-2,-4,0,-4,-12
14441,1,-1,0,-1,0,-2,-2,2
14489,1,-3,-7,-4,-6,-3,-5,-17
14542,2,2,-2,1,-2,0,1,14
14597,-5,-4,-4,1,18,-2,0,-1
14654,0,-2,1,-1,19,2,9,14
14714,10,-2,-1,-3,-8,-2,0,-4
14765,18,-1,-3,-3,-4,-2,-3,10
14819,9,1,-1,2,2,1,-1,-4
14876,8,2,1,1,2,-1,0,11
14934,2,0,1,1,2,1,2,15
14990,19,2,0,-3,1,2,1,4
15037,-16,-4,-2,-1,5,-1,-3,-9
15090,-14,-5,-1,1,1,0,-2,-9
15142,-8,1,1,-1,-5,-5,-5,-12
15195,15,2,-2,-5,-5,-2,2,3
15246,1,2,0,-1,-5,-1,-1,-6
15301,7,1,0,1,-2,3,4,0
15352,-2,1,1,-3,-7,-3,0,1
15411,4,0,1,1,14,-1,3,7
15472,5,1,0,0,0,0,5,16
15524,0,-1,0,1,-12,-1,-1,-2
15578,11,0,4,1,-1,0,-2,11
15634,-6,-2,-2,-1,-2,-3,-6,-14
15696,-21,-4,-2,-1,19,-2,-2,-14
15760,20,3,1,2,0,-1,-1,9
15818,-20,-3,0,-1,7,1,1,-5
15873,-6,-2,0,0,1,-1,-2,-8
15935,-11,-3,-2,-3,-4,-3,-1,-11
16001,2,-1,0,-1,-4,-1,-1,5
16059,-5,-3,0,1,-13,1,2,5
16110,2,2,-2,0,-6,-2,-2,-7
16163,-9,-3,0,-1,2,0,-4,-12
16215,3,-1,-3,-2,0,-2,-1,-5
16269,4,-4,0,0,-1,-2,-1,-14
16326,4,-2,-6,-2,-3,-4,-3,1
16376,-64,-9,-6,1,-1,1,-1,-18
16442,0,-1,-4,-2,0,-4,0,8
16501,-17,-4,0,2,5,3,0,3
16560,6,-3,-1,1,32,13,-2,-4
16616,0,0,-1,1,-5,0,-1,-6
16673,0,-1,-1,0,-2,0,2,1
16728,6,-3,-2,-1,-2,-3,-1,9
16779,-3,-5,-5,-8,-8,2,-1,-3
16842,14,0,-2,1,2,2,4,4
16899,-1,5,1,0,2,0,5,-1
16948,-7,1,1,-1,2,13,9,-26
17002,-1,8,1,-3,-8,-3,-2,-8
17054,-12,3,3,0,4,-3,-1,-26
17107,4,2,-1,-4,-3,-1,10,35
17161,-12,-6,1,1,-2,-1,-13,-12
17220,-11,-7,-2,-3,-1,-2,-5,-13
17281,-4,4,0,-2,0,2,0,13
17340,4,-3,-2,0,2,1,0,0
17394,1,7,3,0,-2,-2,-2,-10
17447,21,6,4,1,0,-2,9,35
17499,22,8,1,1,-1,-2,-1,73
17555,-1,-5,-1,-3,-3,6,3,-12
17603,7,-1,-4,-1,-1,1,5,7
17665,6,4,1,-4,-1,2,-1,14
17725,-5,-4,-2,0,3,-1,-5,-13
17780,-11,-5,-5,0,0,-6,-8,-42
17838,2,-5,-3,-2,1,-2,-2,-34
17901,-5,-10,-6,-2,1,-1,4,9
17962,-1,1,-4,-3,-1,2,3,-11
18026,-5,0,-1,1,-1,0,1,-6
18084,9,-4,-4,-1,-1,0,2,-10
18137,16,-1,-3,-2,0,-2,-3,-10
18202,-1,0,0,2,2,1,3,14
18264,8,0,4,2,-1,-3,-7,-10
18323,-8,-3,-2,-1,-2,0,1,-11
18377,8,7,3,1,-4,-2,-8,-12
18428,-19,-5,0,-1,3,-1,0,-19
18483,-19,-3,0,1,-3,-2,-3,-14
18534,-17,-12,-2,0,0,1,-3,14
18599,3,-2,-5,-1,0,1,2,-1
18644,0,-1,-2,-3,2,0,-1,5
18707,4,-2,0,-1,-2,-4,-2,-13
18756,8,-1,-1,-3,-1,1,1,11
18811,0,-1,0,1,-1,0,10,31
18863,4,-2,-1,5,4,-1,-1,16
18916,-6,-2,0,0,-2,-1,0,25
18970,0,4,-2,-1,0,-3,-10,-32
19029,10,-3,-3,-1,-3,-3,3,10
19082,-2,4,-1,-1,1,0,0,17
19135,0,4,-1,-9,-6,-2,-3,-6
19187,-8,-5,-2,-1,1,-1,4,5
19246,-2,6,3,0,1,-1,-7,-10
19308,-6,-4,-1,6,5,0,-1,2
19358,-6,0,-2,-3,-7,-3,-5,-20
19411,0,-2,-3,-2,1,-3,-5,-15
19462,-1,0,1,-2,-6,-2,-5,-17
19523,-7,-4,0,2,-1,-4,-9,-11
19577,-5,3,1,0,1,0,5,-1
19628,-1,-3,0,-2,-5,-3,-5,-8
19687,-1,-3,-1,-3,0,-2,-2,-23
19749,6,1,-3,-2,-3,-4,-4,-5
19808,5,-3,-4,-1,-1,0,0,2
19862,-1,-5,-6,-2,0,-2,3,-10
19923,4,-2,-1,1,-3,1,-1,4
19986,8,0,-3,-2,-3,-2,2,9
20048,-11,-4,0,0,-3,-3,-2,15
20109,3,1,-1,1,-4,-3,0,-4
20160,-3,1,-2,-1,-1,-23,-4,-9
20223,-8,-6,-5,-3,-1,4,9,12
20287,-2,-2,-1,-1,2,0,6,0
20349,9,0,0,0,3,0,0,1
20415,2,5,-1,1,3,0,-11,-19
20460,-18,-2,-5,-2,-3,-2,2,-1
20520,-3,-2,-1,-2,0,1,1,-12
20571,-13,-6,-3,-2,1,-2,1,-14
20625,-20,-1,3,-4,-1,0,0,-36
20683,5,6,0,-1,-2,0,0,-2
20733,-9,-2,1,0,-1,-2,-5,-5
20793,12,-4,-2,0,-3,-1,-2,20
20855,-4,7,6,2,1,3,5,21
20918,-2,6,2,0,-2,-1,0,8
20972,5,-1,-2,-1,1,2,9,36
21028,0,7,3,2,-1,-1,4,4
21090,2,-3,-2,0,-1,0,0,21
21152,0,-7,-6,-2,-1,-1,-5,-9
21203,-6,-2,-1,0,-2,1,2,1
21257,1,5,1,-1,-3,-2,-3,15
21310,-4,4,1,-1,-3,0,0,-31
21362,-3,4,5,3,4,-2,1,-4
21414,5,-3,-5,-3,-2,0,-2,13
21471,-5,-3,3,1,2,3,5,-5
21533,-4,-4,-2,-2,-1,-2,-2,12
21595,0,7,2,0,0,-1,0,1
21645,-11,2,6,1,-2,-1,2,-14
21708,6,3,-1,-1,0,-1,1,0
21773,0,0,-1,1,-1,0,1,3
21834,-3,0,2,1,0,2,8,3
21894,8,2,0,0,0,0,7,27
21954,3,0,-2,0,-2,-2,-3,-4
22008,1,-5,1,-1,-4,-1,-4,-2
22069,2,-1,-1,-1,-4,-6,-3,1
22135,-6,-7,2,2,2,2,6,19
22196,-4,-4,-2,-2,-3,-1,-1,-3
22245,1,5,0,-2,-3,-1,5,11
22299,1,0,2,-3,1,-1,0,10
22356,3,8,2,-1,0,0,-2,-2
22419,-1,-1,-5,0,0,-1,3,0
22479,0,3,4,1,1,-1,-1,0
22530,4,0,-2,0,-1,-1,3,12
22583,-1,-7,-2,-2,-2,1,-1,-6
22637,-3,2,2,0,0,-1,0,3
22695,3,1,-4,0,1,1,-1,-6
22741,-2,-1,-5,-5,-4,-3,-6,-36
22794,-6,-7,-6,-1,0,1,0,2
22845,4,4,4,-1,0,-3,-9,-11
22897,1,2,1,2,1,2,5,8
22952,0,2,1,-1,-1,1,6,13
23005,-2,-1,-2,-1,-3,-3,-1,-1
23057,0,3,-2,-4,-3,-4,-2,-14
23117,-4,-2,0,1,0,-2,0,3
23168,-6,-5,-6,-1,-1,-2,-2,-13
23223,-1,2,0,0,-2,0,7,8
23274,4,8,5,4,2,-1,-2,-3
23341,4,-3,-3,0,1,-1,-3,4
23386,1,-2,-5,-4,-5,0,2,-8
23438,-2,-10,-7,-2,0,1,3,3
23497,-7,0,4,1,-1,-1,-1,2
23558,7,6,-2,-4,-2,-1,1,8
23620,-3,1,4,-1,-1,17,3,-1
23669,-30,-10,-5,-2,1,-1,0,-11
23723,-10,2,-1,-2,0,0,0,-4
23782,0,0,-4,-3,1,-1,-4,-3
23837,9,-8,-1,4,1,2,2,4
23894,-6,6,-2,-1,2,0,-5,-5
23942,-3,7,4,0,1,0,1,8
24003,-9,-7,0,-2,-3,-2,0,-5
24063,3,5,2,0,4,1,-4,-3
24122,-15,4,3,-1,0,-2,-3,-7
24176,-2,-6,-6,-4,2,0,-4,-2
24226,-5,-4,-2,-2,2,4,3,-3
24283,-2,-2,-1,-2,-5,-2,-3,1
24332,1,0,2,-1,-6,-1,-2,-14
24383,-1,4,1,3,3,0,-2,11
24436,-3,-1,-2,0,-6,-1,0,-2
24490,-6,-2,-2,0,6,-1,-4,-5
24542,0,-8,-2,-1,-1,1,-3,-10
24601,1,0,-4,1,1,0,2,2
24663,-16,3,0,0,-1,-3,0,-7
24714,1,-1,0,1,6,-1,-1,-3
24766,2,0,-2,-2,-3,-2,-1,-2
24820,-3,-1,2,1,1,2,5,1
24872,0,-8,-5,-2,-5,-3,-3,-1
24924,4,5,5,0,-3,0,-2,0
24983,-1,-2,-1,-2,0,-2,3,2
25046,0,-6,-4,-2,-4,1,1,5
25105,0,8,3,-2,-5,-1,-5,-7
25158,1,-7,1,-2,0,-2,0,-3
25220,-5,7,5,0,0,-3,-4,-5
25285,-39,-6,-2,-1,2,0,1,-20
25345,-11,6,5,0,-1,0,1,4
25396,-2,-2,-1,1,1,0,-2,-4
25449,0,7,1,-1,1,-2,-1,4
25508,-5,-3,-1,-3,-1,4,5,21
25554,-4,1,1,-2,-4,-1,-1,-3
25607,-6,-6,-2,-3,-3,-2,-3,-4
25659,-4,2,1,-2,-4,-3,-3,-8
25714,2,4,2,-2,-3,-3,-5,0
25765,-8,3,3,1,0,-2,-4,-7
25822,-8,-4,-4,-4,-3,0,2,-6
25887,-1,0,2,-2,1,0,1,2
25945,0,3,1,0,1,-1,3,1
25998,-4,-3,-1,0,0,-2,3,1
26050,2,1,-4,0,-1,-4,-2,0
26105,-3,-4,-5,-2,-1,2,2,-2
26156,-5,-2,-3,0,-1,2,2,0
26208,4,-1,-1,0,-4,-2,-2,0
26268,0,-1,-2,0,-1,-2,-4,0
26328,1,3,-1,-1,1,-1,3,6
26379,10,-4,-4,-1,-3,-3,-9,-5
26441,0,-3,0,0,-2,0,4,20
26512,-3,4,5,-1,-3,0,0,-2
26568,3,2,3,-1,-1,3,-1,11
26628,1,-7,-4,0,-1,-2,0,0
26683,-2,-10,-6,-1,-1,-2,-3,-4
26731,0,-3,-2,3,-1,-4,0,8
26792,1,-4,-4,-2,-2,-3,-4,-7
26845,2,0,0,-2,4,0,-1,4
26903,-3,-4,-3,0,0,0,0,-6
26964,8,-3,-4,-1,0,-5,-5,9
27014,6,3,-1,-1,-1,-1,-6,-3
27070,-4,-4,0,1,0,-3,-3,-6
27125,5,-4,-2,-3,-1,-1,3,3
27189,2,-4,-2,-1,-3,-2,-4,-5
27250,2,1,0,1,-3,-1,-2,-7
27310,-2,-6,-4,-2,0,-1,-4,15
27363,2,4,3,-1,1,0,-5,3
27426,-6,-5,-3,1,-1,-1,0,-4
27490,9,0,0,4,1,2,8,28
27556,0,-3,-6,-3,1,-1,3,9
27615,-1,-7,-7,-4,-1,-3,-2,-4
27663,3,6,0,2,1,-1,-1,-1
27734,-8,-4,1,-4,-1,0,-2,-4
27790,-5,3,3,4,1,1,-2,-6
27852,2,3,-3,-2,-2,0,2,-3
27908,-2,-3,-3,0,1,-3,1,1
27954,0,-3,0,3,0,1,0,0
28007,3,-1,1,-1,4,-1,-3,5
28062,-2,1,0,-1,1,-1,0,-1
28113,-6,1,-1,-3,0,0,-4,-10
28171,3,-2,-3,0,1,0,-3,-3
28232,4,0,-3,-3,-5,0,7,17
28292,-5,-5,-3,0,0,0,0,-4
28344,-3,8,7,2,2,1,-3,0
28408,1,2,-1,-1,-2,-1,-2,-1
28470,-8,-4,0,-1,0,0,-9,-15
28533,-12,-7,-5,-1,1,1,-5,-9
28592,-6,-3,0,0,1,-3,-5,-16
28646,2,-11,-6,-1,-3,-2,-1,7
28697,-4,3,1,-1,-3,-2,2,-6
28751,1,9,3,-3,-3,-4,-4,-6
28805,-2,-1,-2,-2,1,-1,-1,-3
28857,1,2,1,-2,-3,-2,-2,-8
28915,2,0,-3,-1,1,-1,0,-3
28978,1,6,3,2,2,3,5,9
29036,3,0,-1,-2,-5,-2,1,-15
29090,-2,0,0,-4,-2,-2,1,-9
29152,7,1,1,1,1,-1,2,4
29214,2,0,-4,-2,-3,-2,-6,-9
29277,1,-6,-4,-2,0,2,4,9
29336,15,0,-1,-2,0,0,-1,-7
29389,-7,4,3,-1,1,1,3,11
29441,4,-3,-6,-2,-3,0,2,-3
29493,-1,-1,1,1,-2,0,1,4
29544,-10,-8,-5,-3,-6,1,1,-6
29598,8,-4,-3,-2,1,1,2,6
29654,-1,5,2,-1,-1,2,2,2
29719,2,-9,-6,-1,-3,3,4,6
29780,-1,-2,-2,-1,0,-4,-4,-1
29839,-2,1,-5,-1,-2,-1,0,-1
29891,-6,-2,-1,2,-2,-7,-16,-49
29955,-2,-2,1,-4,-3,-2,-3,0
30019,5,-3,-6,-2,0,-3,-5,-14
30079,-5,-3,-4,-1,0,0,-1,15
30129,-3,8,6,0,-1,1,1,4
30193,3,8,1,-3,-2,-1,3,12
30243,0,-7,-4,0,-1,2,1,-6
30298,-6,-9,4,5,2,-1,-1,-9
30356,7,10,0,0,0,-2,-2,3
30401,-6,-8,-6,-3,1,-1,-3,0
30459,0,0,0,-1,-4,-4,0,-5
30520,0,5,3,1,-2,-1,0,6
30586,-6,2,1,3,1,-1,2,-7
30631,2,7,1,1,1,-2,-1,-15
30684,0,3,1,-4,-4,-2,-5,-3
30738,3,4,0,-5,-4,-1,1,-2
30791,2,0,1,2,0,-1,-4,-2
30843,-5,-6,-4,4,4,2,-5,-4
30895,2,5,3,-3,-2,-3,-2,2
30947,-2,-2,-5,-1,2,-2,-2,-1
31000,-2,-8,-4,-3,-2,-1,-7,7
31060,-4,11,5,3,7,3,1,1
31121,1,-6,-5,-1,-3,0,-2,5
31181,-12,-6,3,1,4,1,1,-10
31233,-4,-6,-5,-2,2,-3,2,3
31285,4,-1,-5,-2,1,-2,1,-2
31345,3,-4,-4,-1,-3,-2,-1,-5
31392,-1,7,2,0,0,2,5,1
31442,-7,-8,1,1,-3,-1,-3,10
31502,8,13,1,1,1,-2,1,27
31564,2,-5,-2,0,-1,-1,1,-5
31614,-3,0,0,-1,-1,-1,-1,-4
31667,-2,3,5,-1,-2,-1,-2,3
31724,-7,-4,-5,-1,-3,-3,-4,-4
31772,-1,-2,-6,-2,-2,-1,1,-1
31826,7,1,0,1,0,4,3,12
31878,4,5,-3,-2,0,-1,-2,-3
31933,-3,-7,-3,0,-1,1,1,4
31983,-3,-4,-2,-2,1,-2,3,3
32039,-1,5,3,-2,-1,0,2,11
32102,-8,-1,-1,-1,0,2,0,5
32167,-3,-3,-1,0,-1,1,1,-14
32225,-5,-7,-5,-2,-1,-2,3,-4
32276,-12,-7,-3,-1,-2,0,-5,-14
32327,7,2,-1,-2,-3,-2,-4,-7
32381,-7,-9,-5,-1,-2,1,-10,-29
32434,-2,9,5,-3,0,1,6,7
32487,3,-2,-1,-1,2,0,1,15
32543,1,4,0,1,1,-1,-8,-24
32606,7,4,-2,0,-3,-4,-2,-13
32659,-3,-1,1,1,0,-2,-2,-12
32717,8,-3,-6,-3,-4,-2,-2,12
32779,-9,5,6,3,1,-2,3,-13
32831,4,-4,-2,2,2,1,4,6
32885,-1,4,1,0,-1,-3,-5,-7
32942,-1,-6,-5,-4,-2,-1,-6,-2
32989,1,-4,-3,-2,-2,-1,0,9
33042,-5,-10,-3,3,3,2,2,-5
33097,1,0,-5,-4,-5,-2,-3,-18
33150,-17,-2,-3,-2,-1,-2,-1,-9
33209,8,3,1,-3,-1,1,3,11
33267,-11,-4,-4,-1,-3,-1,-3,-12
33317,-3,-1,-2,-2,-4,-4,-1,10
33370,12,1,-1,-2,-3,-1,2,25
33423,2,4,-2,-1,-1,-2,-1,-6
33476,2,-1,1,-2,1,0,-3,-13
33530,-5,0,-2,-2,-1,0,-2,0
33586,3,8,5,0,-1,2,2,-10
33647,14,0,-1,2,1,1,8,8
33710,13,5,2,0,-3,-3,-2,-6
33769,-5,7,-2,-4,-3,-2,-5,-14
33822,6,-3,-1,1,4,1,5,19
33885,19,4,1,0,-1,-1,-1,-9
33948,5,0,2,0,-1,-1,-1,2
34009,-9,-3,-3,0,-1,-1,-3,1
34060,22,1,-2,-1,-1,-1,3,33
34124,3,0,1,0,-1,-3,-5,43
34188,-5,1,1,-3,-2,-1,1,0
34248,13,3,-3,0,-4,-6,-6,1
34308,13,0,-6,-1,0,-2,3,11
34362,-7,-1,0,1,0,-1,4,1
34426,-5,-8,-4,-2,2,1,-6,-70
34489,3,-3,-2,0,1,0,-3,19
34549,-25,-2,2,1,-1,-2,-1,1
34602,-2,-7,-3,-4,-2,1,-1,0
34653,-17,0,1,1,1,1,0,7
34706,-12,5,7,3,0,-7,-6,6
34759,-8,-8,-5,-4,-5,-4,-10,-44
34813,-32,-2,1,-1,0,1,2,-10
34870,-5,6,3,-1,0,2,0,7
34932,7,-3,-4,-3,-5,-1,1,-16
34992,1,1,2,-1,3,2,-1,5
35042,-3,-5,-4,-3,1,-1,-3,-11
35105,7,2,-2,-3,0,-3,0,20
35169,1,3,0,0,-1,0,-3,-7
35240,-4,-2,-1,0,0,0,0,-9
35295,1,-1,0,2,1,-2,6,51
35343,15,8,1,0,1,-2,-3,15
35395,4,6,-1,-1,-1,-1,-1,-10
35449,-5,-5,0,1,1,-1,0,9
35503,1,-4,-4,-3,-2,0,-4,5
35554,-9,-3,-5,-2,-1,0,-2,1
35613,2,8,4,0,-1,-2,-1,-10
35674,-3,-5,-2,0,-1,1,7,21
35734,11,-6,-5,-3,-1,0,-8,-26
35787,-23,-4,-4,-7,-10,0,-1,-21
35848,-17,-2,1,2,22,0,-1,12
35912,-15,-3,-1,-2,13,-3,-3,-38
35975,-30,-8,2,-2,2,-2,-3,-13
36036,-9,2,1,-4,2,-1,-1,-2
36089,9,-5,-5,-4,-9,2,2,1
36151,-4,0,0,5,15,3,0,-41
36214,-1,-2,-3,-2,-13,-5,-3,2
36277,18,-5,-2,-1,3,-7,0,-7
36343,-8,-8,-5,-2,0,-5,-6,14
36396,-5,-2,0,-7,-16,-3,-1,18
36453,8,17,6,-1,-3,0,-1,3
36515,-8,4,12,3,-4,-1,5,11
36576,2,-4,-6,-4,-5,-1,0,7
36628,-6,29,14,-2,-2,-2,4,-11
36692,-3,7,1,-3,-4,-3,-8,6
36754,-24,-3,-3,0,0,-2,-1,-14
36815,9,10,2,3,0,-1,-1,-7
36874,-2,-2,-3,-3,-5,3,3,3
36927,-1,-2,-1,1,4,-5,-3,55
36979,2,2,1,0,-2,-1,-6,3
37033,-7,-7,-1,0,-1,0,0,-21
37085,-9,-2,-4,-3,-5,2,-1,-4
37140,-3,0,1,0,0,0,0,-2
37194,2,-1,-2,-3,-3,-1,2,16
37248,-7,-3,2,1,2,0,2,0
37302,-7,-6,-3,-2,-2,-6,-10,-2
37353,-8,2,5,1,1,-2,0,-15
37414,-3,-7,-5,-4,-6,-3,-2,-2
37465,2,3,0,1,1,0,-2,-3
37521,1,3,0,-1,-1,0,-3,15
37576,-4,-10,-6,-2,-4,-2,-3,-19
37639,-11,-3,-1,0,-1,0,0,-2
37699,10,0,-1,-2,-1,-2,-1,-4
37765,4,3,3,2,3,-3,-16,-2
37820,-8,-1,-1,-3,-3,-2,-2,-16
37876,-5,-7,-6,-3,2,-1,0,-8
37939,-1,-7,-5,-3,-1,-1,-3,-20
38000,5,6,3,0,0,-1,7,32
38050,-2,-4,-3,-1,2,0,-3,-16
38106,2,-13,-10,-4,-2,-1,-1,-6
38159,6,-1,-3,-3,-2,4,5,-4
38214,2,0,-1,2,-4,-1,1,0
38262,-11,-6,-3,-4,-1,1,2,10
38321,1,-1,0,0,-1,-4,-2,3
38382,-5,0,-5,-3,-7,-2,-10,-21
38433,-4,-5,-1,2,4,3,0,3
38486,5,8,2,0,0,-3,0,15
38539,3,-1,4,1,-1,2,7,9
38591,1,3,2,0,-1,0,2,10
38643,-3,-1,-2,-1,1,-4,-11,-5
38696,-11,3,11,2,-2,0,-4,-20
38748,1,6,5,-2,-2,-1,-3,-12
38799,-19,-5,1,1,0,-6,-7,-10
38861,-1,0,-1,-2,-3,-1,0,0
38913,-6,4,4,2,-1,-1,0,4
38967,0,1,-4,-2,1,-2,3,-9
39020,6,0,-4,-1,1,1,1,12
39072,2,2,2,0,4,1,-1,-1
39131,0,12,9,2,1,-2,1,-10
39182,-3,-5,-5,-5,-5,-2,1,1
39245,-6,0,-1,1,2,-3,0,-7
39307,3,2,4,4,1,1,-1,4
39364,-7,-10,-8,-2,-1,-3,-11,-41
39418,-3,-5,-4,-2,-2,-2,-3,-28
39469,-4,-1,-3,-2,4,-1,0,-7
39528,3,3,1,2,0,1,-7,12
39583,1,-3,-2,1,3,-2,3,-9
39639,8,2,0,2,2,1,2,21
39704,-16,-7,2,0,-4,3,6,16
39761,1,2,0,3,-11,1,-1,5
39819,4,2,3,0,4,1,1,-2
39867,5,6,-4,0,6,-2,-4,-4
39918,-27,-5,-3,-4,-11,-2,-2,-8
39978,-5,-9,-10,-7,-9,-3,-3,-38
40022,-12,0,1,0,-2,0,0,2
40084,-3,-3,-5,-15,-4,-7,-5,1
40148,13,4,-2,0,-5,-6,-7,-11
40196,-3,-8,-4,-4,4,3,3,-8
40250,-13,-12,-7,-3,-2,1,2,-10
40303,15,10,3,3,3,1,-1,-10
40353,2,-5,-4,0,-6,1,0,-2
40410,-4,1,6,3,-6,-4,-3,-3
40463,-7,7,1,-2,13,-5,-2,-19
40527,-3,-2,-1,-1,8,3,-2,-10
40591,-6,3,6,2,1,-1,-2,-8
40648,5,4,1,1,0,-3,-5,-7
40708,-3,1,3,-1,-1,-1,-1,-4
40761,6,7,-2,-4,-2,-4,-1,0
40823,-7,-9,-5,-1,0,-1,-5,-11
40879,0,-4,-3,0,-2,3,6,0
40931,-3,-12,-6,1,1,-3,2,-2
40983,-9,-6,0,0,-4,0,-2,1
41045,-2,-2,-8,-3,-1,-3,-2,24
41104,-14,-8,-9,-5,-3,-2,-3,2
41156,-6,-8,-6,-6,-4,-3,-11,-41
41211,4,-2,-1,-3,-3,-1,5,2
41265,5,4,-2,0,-1,-1,-3,-11
41314,3,0,-1,-1,-2,-2,-2,1
41368,-24,-1,-1,1,0,0,4,-4
41429,3,-2,-5,0,0,-1,4,0
41486,5,-2,-1,-3,1,0,-1,0
41548,-18,-7,-1,2,2,-1,-7,-29
41599,14,-2,0,-2,1,2,4,31
41652,-5,0,2,-1,-5,-4,1,-11
41704,-2,8,-2,-3,-3,-1,0,-4
41764,-10,6,2,-2,-1,1,4,-12
41817,-17,-7,0,2,6,3,0,-9
41871,-2,11,4,0,4,0,-3,-7
41931,9,-2,0,-2,-6,-2,0,13
41997,-9,4,0,-1,0,-2,0,9
42051,-11,-4,1,-2,-5,-1,1,10
42104,7,5,4,-1,-1,1,2,18
42154,-26,2,7,3,3,2,0,16
42207,0,-1,0,0,1,-2,-1,5
42261,-18,-8,1,3,4,-3,-10,11
42314,-14,1,3,-2,-1,-1,-2,-14
42372,-2,8,-1,-5,-3,-3,-9,-44
42435,4,-2,-1,-1,-2,0,-2,-29
42495,17,20,13,3,-1,-3,-1,18
42547,11,3,-3,-5,-5,-2,0,1
42611,2,4,2,-1,1,-3,1,-16
42673,-1,-1,-4,-3,-11,-4,-8,-13
42733,0,-7,-3,-2,1,-1,0,-7
42786,2,-3,-4,-3,0,0,1,12
42850,0,-3,-1,-2,0,-1,3,9
42912,-6,7,0,-1,-1,2,1,12
42973,6,-8,-6,0,-1,-4,-4,-1
43036,4,-1,-2,0,-2,0,3,-15
43086,16,8,2,-1,-2,2,0,17
43139,-2,-1,-1,-2,-1,-2,2,4
43196,-4,2,-1,-1,-5,0,4,11
43249,-3,5,2,-1,-1,-2,0,-5
43307,10,11,2,-2,-2,0,-2,-5
43374,7,0,1,1,-2,2,3,2
43434,2,4,-5,0,-1,0,3,5
43482,2,-4,-3,-1,-1,-4,-6,-3
43536,1,-2,-2,-3,-18,-2,4,44
43595,-1,-6,-4,2,15,4,1,-8
43655,-1,2,2,-1,-4,0,3,23
43715,-22,1,3,1,-10,-4,2,-10
43776,11,-2,-1,-6,-32,-8,-1,-10
43830,-21,-6,-6,8,56,8,0,13
43893,33,-5,-7,1,41,0,-6,-9
43956,-31,18,21,-6,-34,1,3,19
44016,-9,-4,-2,-6,13,2,-8,-23
44067,49,-6,-7,1,16,-2,1,44
44120,71,7,-4,14,75,13,4,28
44173,10,-5,-2,-15,28,-19,-8,-27
44230,-4,-5,-4,2,9,4,2,-2
44289,4,-2,-4,-1,21,6,-1,-7
44337,-23,-8,-4,-3,10,0,-1,-10
44403,0,-14,-5,-6,-18,-6,-14,-15
44458,9,-7,-8,-5,28,2,-1,3
44520,-8,0,1,-1,-2,-1,0,-13
44571,-17,-9,-3,-2,-22,-6,-6,3
44635,4,-2,-5,-1,-36,-3,-3,9
44703,-67,-8,-3,-10,-88,-2,2,11
44765,18,-3,-5,4,30,2,7,28
44825,-7,-3,-1,-4,-10,-4,2,-21
44872,3,2,2,2,1,2,1,-13
44922,7,-5,-4,-3,8,-2,-7,-21
44976,-14,3,-1,0,1,2,-3,-5
45028,6,0,0,-4,-11,2,-5,-13
45081,37,6,-5,1,-1,3,7,43
45138,1,0,-1,4,13,0,-4,24
45201,-11,-8,2,2,-4,1,4,-17
45261,15,2,2,8,24,5,2,-14
45312,26,-1,-5,-7,-40,4,0,2
45374,-19,13,9,3,-25,0,16,6
45426,-7,0,1,-5,-35,-1,7,26
45480,-35,1,-4,-5,1,-3,1,-8
45534,-47,-11,2,-6,24,-6,-5,-20
45597,15,-4,-1,-6,-10,-4,1,-11
45661,16,14,10,0,2,1,1,20
45720,-8,-7,0,0,-5,0,0,-58
45774,26,-9,-11,-5,-11,-4,-11,22
45825,6,-1,-5,-2,4,-1,-1,-30
45881,3,-10,-6,-1,0,0,4,10
45950,1,-1,1,3,-7,-1,-1,0
46004,-4,-4,-3,-1,-2,0,1,-5
46056,-8,-7,-4,-1,-1,0,-3,3
46119,4,7,-2,-4,-4,-2,-2,-12
46182,5,10,1,-2,-2,-1,0,-28
46244,3,-1,-3,-1,-1,2,1,-4
46308,-10,-1,-2,1,-1,-1,-6,8
46371,-6,5,4,-1,-3,1,3,2
46431,-3,2,0,-5,-1,-1,3,2
46483,-2,-5,-1,1,4,1,-5,-7
46544,0,-4,-2,-3,-2,-2,1,22
46593,7,1,1,-3,-2,0,-1,1
46648,-2,3,1,-2,-2,-4,-6,-14
46700,-23,-4,0,1,2,1,2,-2
46752,-3,3,0,0,-1,1,2,8
46807,7,-1,-2,0,-1,-1,-6,-13
46862,6,-4,-2,0,3,-3,-4,2
46927,3,-1,-1,0,-2,-2,-3,-2
46986,2,-1,-3,-1,-1,-1,-1,0
47037,-18,0,-1,-4,-4,-2,-4,-20
47090,1,2,4,0,-1,-2,1,7
47143,-2,16,7,3,0,-2,-3,-7
47199,-15,-7,-3,-2,-1,0,0,6
47249,6,1,0,-2,-4,1,0,-6
47301,1,1,-2,2,3,3,0,4
47351,5,-2,-1,-2,-4,-1,4,-2
47406,3,2,2,1,4,2,-3,-47
47465,-3,2,-3,-1,-2,-2,-2,-10
47534,-12,-4,-3,-2,1,2,0,18
47586,-2,14,10,0,3,1,0,11
47642,-4,3,2,-1,0,1,2,-12
47690,-3,-1,-1,-2,-2,-4,-5,-10
47744,-11,-2,-2,-4,-3,0,-1,-8
47798,-8,-5,-2,-2,-1,1,-1,5
47850,-1,-2,-1,-2,0,-2,-4,-20
47910,-4,-1,-3,1,-1,1,0,-10
47971,2,-4,-4,-3,0,0,3,-4
48023,-11,2,5,0,-3,-2,-8,-17
48075,-1,3,0,1,0,-4,-4,-18
48126,6,-3,-1,0,-2,-4,-2,-4
48187,-5,1,3,-1,1,0,-1,5
48241,-13,-9,-4,-3,0,0,0,-9
48291,-1,1,3,1,0,2,2,8
48343,3,-1,-2,1,5,-1,0,-8
48400,-3,-3,-2,-2,0,0,-6,-1
48452,1,-1,-1,-3,-2,0,-1,-5
48505,1,-2,-2,0,-1,-1,2,-3
48553,-4,1,-2,-2,0,0,-1,3
48606,2,-1,-2,0,-3,-4,-4,-12
48666,-8,0,0,-2,1,3,6,-9
48728,-3,1,-3,-2,0,2,-3,5
48788,-1,-7,-2,1,3,1,-2,6
48841,-2,0,-1,-2,-1,1,-1,8
48896,-1,0,-5,-3,-1,-3,-7,-12
48955,-2,1,2,2,1,1,7,-7
49015,-2,-12,-5,-3,-4,-1,-3,12
49076,4,0,-4,-5,-4,-3,-2,-4
49125,-4,6,0,-3,-3,1,4,20
49186,-2,0,-1,0,-2,0,-1,-4
49250,-6,-5,-3,0,-1,0,2,2
49312,2,3,-2,-3,-2,-4,0,-3
49372,1,-1,-2,-1,4,0,-1,-5
49424,2,1,-3,0,-5,0,-3,4
49487,-1,1,-2,0,-1,-1,1,0
49543,-6,-4,-2,-1,-2,-2,-3,-13
49597,-2,0,-1,2,0,-2,-2,-27
49648,8,2,-2,-2,-3,-3,1,0
49708,-2,-2,-3,0,0,-1,1,7
49768,-1,0,2,0,1,-3,-3,13
49820,7,0,0,0,1,1,-2,-4
49875,3,-10,-4,-2,-1,3,-3,1
49929,5,-1,4,-1,0,-2,-3,9
49995,9,6,-6,-3,-4,-5,0,9
50055,-4,-3,0,-2,0,-2,-5,7
50115,-1,4,3,-2,-8,0,2,-4
50168,-14,-6,1,-2,-1,4,-5,-8
50233,-4,-11,-5,0,2,1,-2,12
50294,2,1,-2,0,-7,-1,0,17
50355,-4,-4,-1,-1,1,1,1,13
50405,5,0,-1,-1,-4,-3,1,27
50468,-17,-10,0,0,2,0,-6,-17
50540,-4,-3,0,0,0,3,6,4
50595,1,-2,-3,-3,-1,-2,1,1
50655,5,-5,-3,-1,-1,0,0,8
50707,-3,2,4,-2,1,-3,-7,-24
50758,1,8,1,0,0,1,1,-2
50811,2,2,-2,2,3,0,-4,-8
50865,-3,2,0,0,-2,-1,4,-15
50921,0,3,3,0,-4,-3,2,2
50979,8,4,-3,0,1,-1,-3,-7
51039,-2,1,3,0,1,-3,0,-2
51087,-3,-3,-6,-2,0,2,6,3
51153,10,0,-1,-2,0,0,0,1
51214,-19,-3,-5,-2,1,-1,-3,-4
51278,5,0,-4,-4,1,-1,2,14
51341,5,3,0,0,-2,-4,8,-6
51402,-4,-2,-3,-3,0,-2,-4,2
51450,2,-3,-2,-2,-2,-1,-2,-27
51515,8,7,1,-2,-4,-2,-1,0
51578,1,0,1,-1,0,-1,0,6
51629,-11,-5,-5,-1,2,0,7,0
51682,-12,-1,-5,-3,-3,-2,-1,-18
51736,-3,5,1,-1,-3,-5,-2,-3
51785,-10,-3,-2,0,-3,-1,-6,-9
51840,3,1,1,-2,-3,-1,1,-1
51897,-4,-3,-2,-2,0,-1,-3,1
51959,13,-4,-4,-3,-3,-1,0,10
52019,-13,-3,-1,-2,-2,-3,-3,-16
52070,11,4,-3,0,-4,-3,-1,-28
52134,3,1,0,0,0,-1,-1,-6
52197,1,-2,-1,0,1,0,2,10
52260,-6,-4,0,1,2,2,3,-15
52320,-16,-7,-4,-2,-1,-3,-2,-6
52380,4,-4,-4,1,0,1,-3,-29
52434,-9,-6,-4,-1,0,-2,-4,3
52497,0,1,0,-2,-1,0,1,-15
52560,3,0,-3,-2,0,1,-1,-17
52620,4,7,3,0,-2,-4,-4,14
52672,3,2,-3,-1,-3,-3,0,3
52723,3,-4,-1,-2,-2,0,-1,-4
52777,-6,-3,-2,-1,-1,-2,-2,0
52835,6,-1,0,2,-2,0,4,1
52883,-13,-7,-1,-1,0,-1,0,-2
52941,-7,-4,-7,-2,-3,1,1,-2
53002,-20,-11,-2,-2,-2,-1,-1,-4
53063,2,-1,-2,0,0,-2,-5,-18
53115,-3,-3,-3,-1,2,-1,-2,-23
53178,-12,1,-1,-1,-2,-1,0,-2
53240,-3,-1,0,1,0,0,1,-1
53302,-1,2,-2,-1,-5,-3,3,0
53363,5,-2,-4,-4,0,-2,0,-4
53423,-2,8,1,0,0,1,-2,6
53475,-3,3,2,-1,-2,-1,4,-1
53531,-4,2,2,-1,-2,0,-3,-6
53579,-16,-1,2,0,1,1,-2,33
53633,-5,-1,0,0,-2,1,2,7
53687,-3,-4,-5,-3,-1,-2,-3,-12
53743,1,1,1,0,1,0,0,6
53806,-6,-2,2,1,0,-2,-5,3
53867,-27,-2,4,1,-1,1,-13,-17
53920,-24,-8,1,1,0,0,-2,-26
53980,6,2,-4,-1,-5,-1,2,-11
54044,0,-6,-4,1,3,0,-2,-16
54106,-3,3,-1,-3,-3,-2,-1,11
54165,3,0,-2,-1,-1,-1,3,10
54218,-5,-4,1,1,-2,-3,-6,-9
54282,11,-2,-3,0,-1,-3,-1,8
54345,14,3,-1,-3,-2,-2,-6,11
54406,-7,-4,1,-2,1,0,-2,-3
54456,5,2,5,1,2,0,-2,7
54510,-1,5,4,0,-1,-1,-1,11
54563,5,1,-3,-2,0,-2,-2,-10
54616,-2,-4,-1,-2,-1,1,2,-8
54669,-7,4,3,-2,0,2,0,2
54729,3,1,2,-1,0,-2,0,-6
54789,3,4,-2,-3,-5,0,1,4
54851,-13,-4,-4,-2,-1,2,1,4
54907,3,-3,1,1,2,-1,-1,-11
54964,1,-1,0,-2,0,-1,5,-9
55028,-2,1,1,2,1,-1,-3,-17
55087,-12,-2,4,1,-2,-1,3,13
55138,22,6,-4,-4,-1,-3,0,-2
55192,7,-2,-3,-1,-1,-4,-6,-5
55245,-9,-4,2,-1,3,2,4,15
55296,1,-4,-1,-2,-4,1,2,14
55350,-13,-9,-4,-1,3,-1,-3,21
55406,10,5,-1,0,0,2,0,10
55470,16,-5,-4,0,1,-1,-8,-9
55531,-4,-2,-1,0,0,0,5,-11
55590,29,2,1,0,-2,-1,0,12
55643,-4,4,2,0,-1,-2,-3,-13
55696,1,-3,-4,-4,-5,-2,-3,-7
55748,-5,-8,-2,1,-5,-2,7,-1
55804,-10,0,-2,-1,-2,-3,1,-5
55856,-3,-7,-5,-4,-1,2,-2,0
55904,-2,-5,-3,-2,0,-1,0,2
55956,4,-4,-5,0,-1,-4,-1,-10
56010,-1,-8,-4,-1,2,0,0,-42
56069,0,-3,-1,-1,1,-1,4,12
56122,3,-5,-2,-4,1,3,0,1
56176,5,-1,-3,-2,-1,0,0,21
56228,1,1,-1,-2,-3,-4,2,9
56283,-1,-2,2,1,5,0,2,17
56334,3,-4,-1,-3,-2,1,2,2
56391,-10,1,0,-2,0,-1,-5,-16
56454,0,-3,-1,-1,1,-1,1,8
56516,3,0,-1,-1,1,0,3,5
56567,-3,-7,-4,3,2,0,-1,1
56618,2,-6,1,1,1,0,2,6
56678,2,5,5,-1,1,0,0,-24
56730,10,-5,-5,0,13,-3,2,6
56789,1,-3,-1,0,-1,-3,-7,-19
56852,7,-4,-3,0,-3,-2,0,20
56917,2,-2,-1,0,-2,0,0,17
56979,-3,1,-2,-3,-2,0,-1,-7
57030,-2,-1,-2,-1,0,-2,-9,-16
57089,2,-2,-2,-1,-1,0,3,-9
57153,1,-6,-1,0,1,-1,3,30
57212,-5,1,-1,-2,-2,-1,-3,3
57262,-6,1,0,-2,1,0,3,37
57321,-11,0,-1,-2,-3,-1,0,-12
57373,-13,-6,-4,-1,2,1,-1,-29
57439,-1,-7,-2,0,-1,-3,-2,9
57499,-12,-5,-2,0,1,-1,4,-4
57548,-6,-7,-5,-2,1,-1,-1,12
57620,2,5,2,1,-2,-4,-6,-30
57675,0,-10,-3,1,-5,-2,-1,15
57737,7,5,-1,-2,0,0,3,34
57796,18,-1,-3,0,0,-4,-6,-9
57852,-10,-6,-2,2,2,1,-3,12
57911,5,-3,-3,-1,-2,-1,-3,-8
57974,-17,-5,-3,0,2,4,2,-20
58036,11,4,-2,0,1,0,-2,3
58098,-3,4,0,-1,-1,-3,-2,-39
58150,-1,-2,1,0,2,-1,-4,-11
58205,1,-3,-1,-1,1,-1,6,26
58253,-6,-4,-3,0,2,-3,1,-24
58307,11,-3,-5,1,1,0,-1,0
58359,-7,-2,0,-1,-2,0,-8,-2
58417,11,1,-6,-1,1,-2,-4,-10
58478,11,-7,-4,1,4,-2,2,-9
58539,-9,-9,-5,-2,2,3,9,5
58592,0,1,-1,-1,-4,-1,0,-16
58644,-27,-4,-5,-1,-1,-2,0,14
58700,-28,-6,-6,1,-1,-1,1,8
58751,16,2,5,2,2,0,0,18
58816,0,-5,-1,-2,-1,-2,2,-5
58877,18,9,3,-1,3,3,6,19
58936,2,0,-5,-3,1,3,3,-22
58992,-1,7,0,-1,0,-1,4,12
59045,-27,11,5,0,-1,3,8,-1
59098,-14,2,0,-2,-1,-1,4,19
59162,-3,-3,0,1,-1,0,-5,-10
59221,12,-3,-3,-3,-4,-5,-2,-6
59272,-10,-1,-1,-2,-1,3,5,9
59337,8,-4,0,-1,-1,-1,-4,2
59399,6,4,1,0,0,0,0,1
59462,-22,-3,1,-3,-1,0,-5,-5
59523,-12,1,-2,0,0,-1,-5,5
59575,2,7,1,-2,-2,-1,-2,-4
59637,15,3,-6,-4,-1,-3,-1,-6
59699,2,6,4,-2,-3,-1,1,0
59762,2,-2,0,-2,-3,-1,1,4
59822,-1,1,-2,0,-1,0,-2,12
59877,-8,-7,-1,-2,-2,-1,1,-3
59936,-1,5,4,3,4,-1,-1,-7
59998,-7,-3,-1,0,-2,0,-4,-20
60061,5,13,5,1,0,-3,-3,2
60122,-13,-4,2,-2,-3,2,-2,6
60173,2,2,-1,0,-3,-1,-2,2
60226,4,4,-6,-3,-2,-2,-3,-10
60282,16,10,1,1,2,1,-1,-5
60331,-4,-3,-2,-3,-2,-3,-1,5
60384,3,-6,-2,1,1,1,0,5
60442,6,-3,-1,-1,-4,-1,-3,14
60504,27,4,3,-1,-5,-3,-3,16
60564,-11,4,6,1,4,-1,0,-20
60617,16,9,0,1,-1,-2,-3,6
60678,-5,-9,-3,1,2,1,2,-10
60742,8,-2,-4,-1,-2,-2,0,-13
60807,-8,-3,-5,-4,-4,-1,4,14
60865,-7,-2,-1,-1,0,0,-2,11
60915,2,-4,-3,0,0,0,0,-2
60982,12,1,3,-2,-3,-2,-5,6
61044,-4,-2,-1,-2,-1,-1,0,-14
61104,12,0,0,0,0,-1,1,27
61164,1,0,-1,-4,-1,-1,1,3
61220,-1,-7,-6,1,0,0,-2,-4
61267,8,-3,-1,2,4,1,-1,12
61321,-1,2,1,1,1,0,-4,-10
61376,-11,-2,-6,-4,-3,-2,1,-16
61427,-18,-3,0,-1,-3,1,-1,-12
61486,1,-4,-3,-1,-1,0,4,-3
61547,4,6,3,-1,0,-1,-4,-11
61607,1,2,1,1,-1,0,-2,2
61663,-7,-1,0,0,1,-1,-4,-28
61721,-5,-2,5,0,-1,-2,2,9
61784,-4,-1,-3,0,0,1,-1,9
61848,11,-6,-5,0,0,-1,0,-5
61906,10,1,-2,0,0,-1,-3,-18
61960,6,-3,0,0,-1,-1,-7,-8
62013,-7,-2,-4,-3,-3,1,1,-6
62063,-8,1,0,0,-1,0,-1,-10
62119,30,5,-5,-4,-8,-2,-1,33
62169,-22,-14,-4,-1,2,-1,0,-5
62230,13,3,2,1,3,0,0,12
62290,-5,3,2,0,-2,-1,0,-6
62344,13,1,-2,3,1,1,4,20
62402,-21,-1,2,0,-1,0,-3,-1
62466,-5,1,1,-3,-3,-5,0,10
62529,15,4,2,3,1,3,3,-2
62591,5,1,-2,-1,-2,-2,-1,4
62643,-1,6,13,-1,-5,-3,-4,-4
62704,3,0,1,0,0,-2,2,4
62755,-3,-9,-4,-4,-3,-1,3,-9
62811,7,-1,-5,-2,2,0,-4,-4
62858,-4,0,7,2,2,0,0,-15
62911,3,13,6,4,-1,-1,0,-2
62971,-8,-11,-2,1,1,1,9,22
63031,-13,-5,-5,-4,-2,-1,0,-23
63084,0,4,0,-3,-4,-3,-2,-4
63137,0,1,0,0,-4,-1,-3,4
63189,14,-2,-5,-2,3,0,1,-1
63248,-5,-2,4,2,7,1,4,8
63309,5,5,-2,0,0,-3,-4,-1
63368,-12,-2,-5,0,-3,-3,-6,-14
63429,0,0,2,0,-2,-3,1,11
63482,13,-3,-5,0,1,-3,0,23
63535,-6,-1,0,1,-3,-1,2,5
63586,9,-5,-2,-1,0,-1,-3,12
63639,0,3,0,-1,2,-2,-2,3
63691,6,-8,-8,-5,-3,-1,3,10
63748,-7,-2,-3,-2,-1,1,-1,3
63812,4,0,-2,-1,-1,-1,-3,0
63877,9,4,3,-1,-1,-1,0,0
63923,-6,-5,0,-1,-1,-1,-6,-9
63976,-22,-3,1,0,4,-1,-6,-13
64029,20,-2,-2,1,0,0,-3,-15
64082,-1,-6,-2,0,-2,-2,-5,-3
64140,6,-2,0,1,2,1,-2,1
64192,6,-3,-1,-1,-1,0,1,5
64258,-6,-1,-1,0,-2,3,3,17
64317,5,-6,-4,-3,0,1,2,5
64377,-5,7,4,-2,0,-2,-7,-19
64429,-6,-1,-2,-1,-1,1,0,9
64480,-34,-5,-4,-3,-2,1,2,-23
64531,20,-2,0,2,2,-1,-3,17
64587,-19,-4,-4,-1,0,-1,-1,-6
64637,-30,-3,2,-2,-7,-1,-1,-4
64696,-2,-1,-1,1,5,-3,2,16
64757,-5,-3,-3,2,3,1,1,5
64821,16,-4,0,1,2,-2,-3,-2
64870,6,1,5,0,-11,-2,-2,1
64942,-19,3,2,0,5,3,-2,-10
64997,3,-6,-5,0,3,0,-13,-8
65059,11,-3,0,1,1,-1,1,15
65108,-10,-5,-7,-3,2,-2,-2,2
65161,-14,-5,-4,-3,0,0,-3,-31
65216,-36,-13,-1,3,-2,-3,-8,-27
65267,3,-5,-2,2,7,2,-7,-19
65328,5,23,8,1,-7,-6,-2,12
65384,27,7,1,0,-1,-1,0,-18
65432,-8,12,-1,0,-1,-3,-6,-11
65490,11,13,6,5,-3,-2,-4,3
65551,15,-3,-3,-2,-6,-1,1,18
65618,42,-1,-3,-1,-11,-3,-1,20
65684,-17,-8,-7,-8,-26,-10,-22,-39
65746,-32,-2,1,-5,-64,-9,-1,52
65805,-15,-16,-10,-11,-1,-5,-7,-59
65851,-17,-6,7,-3,28,-3,-14,-57
65914,15,-10,0,1,-9,-3,-3,12
65978,-13,-14,-7,-2,10,2,3,6
66045,-1,-9,-2,2,26,0,3,14
66105,18,2,1,-2,-4,0,5,-1
66151,-4,-16,4,1,1,-1,6,-1
66215,-22,1,-4,-7,2,-2,11,15
66264,26,10,1,1,7,-1,-2,-14
66318,-22,3,1,0,-3,0,0,-3
66373,0,1,2,2,-3,2,-2,-30
66422,9,-1,0,0,-2,0,3,16
66474,55,6,-5,1,-6,0,3,11
66530,1,-1,-2,-3,-8,-2,1,19
66581,4,5,-1,-3,-14,-1,-1,-32
66640,-29,-8,-3,-1,3,-2,1,19
66704,13,5,-5,-5,-5,-5,-3,-4
66760,3,2,2,1,-2,2,2,4
66814,9,7,3,0,-1,-2,2,0
66877,-11,-6,3,2,5,3,3,-26
66940,0,-2,-3,-1,0,0,-3,4
67001,8,1,-1,0,1,-3,-7,-16
67060,-4,-4,-3,-2,1,0,3,4
67114,-4,9,9,0,-1,-2,-1,-40
67169,14,-1,1,-1,-3,-2,0,-6
67216,22,-12,-7,-2,-3,-4,-5,1
67270,0,-4,-3,-2,-3,-3,-8,-3
67325,-8,-9,0,-2,2,0,3,29
67385,-12,-13,-7,-2,1,1,0,-8
67444,-4,-1,-1,0,1,1,4,24
67493,-3,-4,-6,-8,-7,3,4,6
67547,5,0,3,-2,-3,-1,1,22
67600,-10,3,-1,-4,-3,-2,-1,-1
67660,-18,-10,-5,-4,0,0,-1,-15
67711,-2,-12,-1,1,1,-1,-2,27
67765,-5,1,3,-3,2,-1,-2,-6
67820,3,1,2,-1,3,0,9,17
67883,-9,-9,-5,-1,0,-2,-2,36
67947,3,-1,-3,-1,-1,-3,1,26
68005,0,-4,-4,-3,-2,-1,-1,7
68061,-6,-3,-3,-1,-3,-2,1,9
68126,1,-1,-3,0,3,-1,-3,-6
68187,-2,-7,-2,1,-2,0,-3,-10
68247,3,1,-2,0,2,1,-3,7
68298,5,-6,-4,-2,-4,-3,-10,-11
68363,7,-6,-7,-4,-3,-2,4,-14
68426,-5,-4,0,0,-1,0,7,23
68486,-3,4,-3,-1,0,0,-4,9
68545,-11,-5,-2,-2,-2,1,-2,-6
68601,12,-1,-6,-5,-3,1,2,36
68664,-9,5,2,-1,-1,0,0,-11
68726,-2,-1,4,1,-1,1,4,6
68788,-6,-11,-2,1,3,-3,-1,10
68838,-12,1,-2,-1,-2,-3,-6,-14
68889,-3,-7,-4,-3,1,1,-1,-8
68942,4,-3,-6,-3,-2,-3,-2,6
68995,13,3,0,-2,0,-2,-3,1
69048,7,-4,1,1,-3,0,-1,26
69106,5,0,-2,-2,1,-3,-4,7
69168,-8,3,-1,-4,-2,-3,-7,-18
69228,12,-1,-1,0,1,-1,0,11
69280,-2,-4,1,1,1,2,3,2
69343,4,-4,-2,2,0,1,5,13
69408,-5,-1,-1,-1,0,-1,0,3
69468,0,-2,-1,-2,-9,1,-1,-7
69520,-2,4,4,0,1,2,0,2
69573,-25,-1,-2,-2,0,-2,-2,-7
69625,14,0,1,0,0,-3,-4,18
69681,4,2,-1,0,-4,-2,0,-2
69730,4,-6,-1,0,0,0,-3,5
69790,0,-1,-1,-1,-1,-1,-4,-36
69851,18,0,-4,1,0,-4,0,15
69911,-21,-6,-1,0,1,-1,0,2
69971,0,-3,-2,-1,-2,-2,-2,11
70024,-19,-10,0,-1,1,0,5,-3
70087,2,-2,-2,-1,-5,0,-3,-12
70149,-15,-9,-6,-2,-1,1,5,-4
70211,7,-5,-4,-3,3,-3,-7,-1
70271,4,-7,-6,-4,-4,1,-1,7
70326,-12,-9,-3,-3,3,-2,-10,-6
70376,-7,4,0,0,1,-2,-7,-10
70432,2,-4,0,1,1,1,1,-8
70479,18,-1,-6,-1,-5,-1,-6,6
70533,-10,-3,0,-2,0,0,2,3
70592,0,-5,-1,-1,1,1,1,-3
70654,13,2,-2,-4,-5,-1,4,6
70713,-6,-4,-4,-1,4,2,2,-14
70766,-8,3,1,-2,-1,-2,0,-22
70817,0,-5,1,1,-4,-2,3,1
70873,-31,-11,-3,-1,-2,0,2,-2
70923,-10,-4,-5,-3,-1,-2,-2,4
70975,-3,-4,-1,-2,-1,-1,-4,-3
71034,-11,3,-1,1,-1,-3,-1,17
71095,-8,-4,-4,-2,1,0,-4,-13
71156,10,0,0,0,-5,-2,4,13
71207,-21,-9,-6,-1,-1,-4,0,6
71264,-7,-5,-3,-1,0,1,1,-4
71313,8,0,-2,1,-4,-1,-1,9
71366,1,-3,2,2,2,-1,-3,-12
71417,-16,-7,-2,-1,4,1,7,17
71472,3,4,6,-2,-4,-2,-6,-14
71525,9,2,0,-2,-1,-2,-5,-14
71575,6,2,0,1,0,-1,2,-2
71636,-1,4,0,-2,-3,0,-1,0
71695,-4,3,1,0,1,1,0,-15
71748,3,-7,-1,0,0,0,-4,16
71806,20,5,0,-1,-1,-5,-5,0
71854,10,5,1,-1,-3,-2,-2,14
71907,10,7,0,1,-2,-3,-1,-4
71959,-5,-3,-4,-1,1,1,-2,1
72011,-19,-3,-2,-5,-8,-1,-3,-5
72069,-4,2,6,2,2,1,-1,-7
72116,-4,2,0,-2,-2,-4,-5,-17
72175,-2,-2,0,-1,0,0,-5,3
72237,-8,-5,-2,0,-1,2,-1,-2
72288,4,2,-5,-1,0,-1,-2,-10
72341,13,-1,-3,-1,-2,0,2,16
72394,-11,4,-1,1,-3,-2,-7,-17
72444,-7,-6,-3,0,-5,-5,-4,-3
72498,8,1,0,-1,1,-4,-4,6
72554,-3,-2,2,-1,-3,-2,3,14
72618,-17,-4,0,-3,-2,2,2,10
72678,-2,-11,-4,-4,-7,-3,-1,18
72730,14,1,-1,0,-3,0,4,11
72783,5,1,-3,2,2,1,0,-14
72836,-4,1,0,-2,-3,-1,-5,2
72889,-1,6,0,-1,0,0,4,-3
72941,-2,-2,-1,-2,0,-2,-1,-10
72993,-10,-6,-3,-2,-1,-3,1,14
73050,-18,8,5,0,-1,-4,-4,-11
73101,10,6,-2,0,0,-2,-3,-3
73162,9,-3,-5,-2,2,1,1,12
73221,0,0,-2,-1,-5,-3,-1,6
73282,0,-4,-3,0,0,-1,1,29
73333,-22,-4,-2,-1,-1,-2,-4,-4
73405,3,2,-4,-3,0,-3,-2,-3
73462,-6,-1,-2,-4,-3,1,-1,1
73522,-3,-4,2,0,0,-1,1,-14
73570,0,6,-2,1,1,-4,3,-6
73623,-5,-1,3,0,0,1,2,2
73676,4,-5,-3,0,1,-2,0,-18
73729,-3,-2,-1,0,4,3,1,-1
73788,-1,-5,-4,1,-1,1,7,31
73842,-5,-1,-2,-1,0,-1,-1,7
73909,-4,5,1,0,3,-2,0,0
73962,-11,-1,2,0,2,1,-4,8
74014,6,-5,-5,-1,-1,0,2,5
74078,8,-4,-2,0,1,-2,-3,-10
74129,9,-6,-3,0,-6,0,3,34
74181,-1,-3,-3,-1,-6,-3,-2,-4
74240,1,-1,-2,-1,0,-2,-2,-13
74285,7,0,-1,0,0,-1,-6,-10
74344,-10,1,0,-1,1,-2,-2,-1
74404,-3,3,0,-1,-3,0,-1,5
74455,3,-7,-2,-1,-1,-2,-5,7
74519,3,-1,-4,0,-1,0,0,6
74583,-2,-5,-4,-3,1,-1,3,19
74645,5,-1,-2,-1,0,-2,-4,-15
74694,3,0,-2,-1,-4,-2,-1,1
74757,-21,-8,-1,-1,2,1,-1,-12
74820,15,10,3,-1,-2,-2,1,5
74889,-15,-3,-5,-2,-1,-3,-3,-10
74945,-5,-3,-5,-1,2,-2,-8,-29
75004,-4,-4,-4,-3,2,0,-2,-20
75057,5,-2,-4,1,-2,0,7,5
75124,-8,-5,-2,-2,0,-2,-5,-13
75184,12,3,-4,-2,0,-1,-1,2
75245,3,10,5,-1,-1,4,2,12
75307,-2,-1,-4,2,3,0,1,-8
75356,-8,1,-3,-4,-8,-5,-10,-23
75408,8,-6,-1,0,20,4,-1,-5
75462,4,1,1,1,-6,-1,-2,21
75515,17,-2,-3,-5,-23,-2,1,8
75571,-3,0,-2,1,3,-3,-7,-1
75630,16,10,-3,0,-12,0,3,28
75690,3,1,-2,-1,3,1,0,9
75750,-16,1,2,0,6,0,1,-4
75802,4,2,-4,-1,-7,-1,-1,-10
75861,11,1,-1,-1,2,0,1,10
75928,3,-1,-3,-1,0,1,-8,0
75988,0,-2,-2,0,1,-1,-2,-6
76050,-3,-2,-1,-2,-2,-3,-4,-36
76101,2,-5,-4,0,-3,-1,3,1
76167,-6,-2,-3,-2,-3,-1,0,-13
76226,-4,3,1,1,-1,0,4,-7
76287,3,-2,0,-1,-2,1,-1,-35
76348,-32,-4,-1,1,3,-2,-1,-20
76402,0,-4,-1,1,2,0,0,4
76451,-2,-4,-1,-2,-2,-4,3,7
76505,5,-7,-3,-2,1,-1,1,5
76556,-4,-1,-3,-2,-2,-2,2,-6
76613,-16,-4,1,1,-1,-2,-1,6
76665,9,-3,-3,-2,0,-2,2,11
76729,11,1,0,0,-1,-2,-3,12
76792,0,2,-2,-2,-1,3,11,13
76850,10,8,-1,1,-1,-1,1,1
76906,10,2,-2,-1,-4,0,2,9
76968,-5,1,1,1,-1,2,0,0
77031,-8,-11,-8,-1,-2,-1,2,7
77092,-13,0,-3,-1,1,2,-1,-5
77152,-11,-5,-2,-3,-2,-5,-7,-20
77202,-13,-3,-5,-1,-1,-1,0,4
77255,0,3,0,0,-1,-2,-2,-1
77312,14,-1,1,2,1,-2,-3,-7
77383,-4,2,-4,-5,-8,-1,0,-7
77427,19,-4,-6,-3,-2,-1,-1,-4
77486,-14,-5,-1,1,0,-3,-7,-11
77549,2,3,5,-2,-1,0,-2,5
77606,-5,1,0,1,0,-2,0,3
77659,20,1,-1,0,-3,-3,-1,-7
77713,4,1,1,0,-1,0,-5,3
77770,-2,-3,-1,-4,-7,0,-5,16
77832,9,0,-1,0,3,0,-1,16
77893,-7,-3,-1,-1,-2,-1,2,2
77953,-3,4,2,-3,0,-1,-1,2
78007,-4,-16,-4,2,-1,0,-4,9
78057,7,4,1,-1,3,0,-2,-5
78110,8,-4,1,-1,-1,2,0,2
78163,2,-1,-1,1,-2,-1,1,-1
78216,-14,-1,0,-2,1,2,-3,-7
78275,-11,6,8,-1,0,-2,-7,-23
78335,-20,-8,0,-1,0,-4,-6,-16
78397,6,-1,0,0,-2,-1,-2,-11
78447,3,2,8,1,2,0,-2,9
78511,12,2,2,3,1,-6,-4,4
78573,10,-2,-4,1,0,-3,-2,-6
78635,-10,-4,-3,-3,-5,-3,1,1
78695,0,-2,0,-1,-1,-1,0,-3
78748,22,-9,-9,-1,-1,-1,0,2
78812,0,-4,-5,-9,-8,-5,2,-7
78878,-26,-14,-1,2,3,0,-3,-4
78934,-4,-3,6,0,-2,2,1,-5
78985,-16,-8,0,-3,-4,-2,1,6
79040,13,7,0,-7,-27,-3,0,0
79091,2,-2,-4,2,24,-2,-2,-2
79147,7,-1,0,-6,36,-8,-6,-5
79196,15,-7,0,3,-3,1,1,-23
79253,7,-1,2,0,-88,-5,0,-2
79316,-25,23,-8,-4,-41,31,10,1
79378,-7,-2,4,3,12,0,-6,2
79437,8,6,1,7,12,-9,-9,0
79491,21,-4,-5,0,34,16,1,1
79555,2,14,-3,-2,-11,-3,3,-4
79622,-16,-9,-2,-2,-7,8,6,-1
79682,-7,-6,0,-1,3,-1,-2,8
79730,-6,-14,-3,-2,-3,3,5,-1
79781,16,4,-4,-4,-5,-1,6,19
79836,-2,-6,-3,-4,-1,0,0,-3
79890,11,12,0,0,-4,-3,-6,6
79943,2,-4,-9,0,0,-1,0,-1
80000,-6,11,-4,-1,1,-1,-3,2
80060,5,5,-4,-2,-2,-3,-6,-1
80124,12,-2,-6,3,1,-1,0,8
80183,5,-11,-6,-3,-2,-2,-2,5
80232,15,-11,-7,-5,-7,-5,-1,0
80283,0,-3,-3,-5,-3,1,0,-2
80337,-1,-5,-1,-1,-1,-3,-5,-1
80390,3,2,0,0,0,-2,-6,-10
80442,-17,0,0,-1,-1,-3,-1,1
80495,3,18,3,0,2,-4,0,-8
80546,-11,6,2,-3,-2,-1,1,-7
80598,-8,0,2,0,0,0,-4,-7
80665,3,-1,-1,-2,-1,1,1,-3
80722,9,1,2,2,-1,-1,-1,-2
80772,1,2,-3,-2,-4,-1,3,-6
80826,-4,-4,2,2,0,2,2,3
80877,-1,-7,-4,-1,-1,-1,-3,-1
80933,-10,-4,1,1,0,-4,-4,-1
80983,6,2,-5,-4,-5,2,0,2
81042,-9,3,6,2,2,-2,0,-13
81104,-3,-4,2,-1,-3,-5,0,5
81153,-1,1,1,-1,0,1,-4,-8
81217,5,0,-3,0,2,-2,-3,-9
81279,-16,2,0,0,3,-1,-1,6
81345,4,-1,-4,-1,-5,-2,-1,-1
81405,6,3,1,2,10,3,-3,-22
81464,-5,-3,-5,0,-5,-4,-10,-11
81515,11,1,1,0,6,16,-1,-2
81582,-6,-5,-2,-1,1,1,1,-4
81642,12,3,4,1,0,0,1,9
81705,-26,-5,-1,-2,2,1,-3,-2
81764,12,-6,-5,0,-1,-2,-3,-1
81821,-25,-2,-1,-2,2,-1,-3,-10
81867,6,-2,-2,-1,-4,-5,-5,-1
81925,8,0,2,0,-4,1,4,17
81987,-3,-1,-3,-2,-3,2,5,-6
82041,9,0,-2,-3,-3,-3,-1,1
82099,-9,-7,-4,-3,-3,-2,0,1
82162,-5,-4,-3,1,-1,-3,-3,0
82219,8,0,-1,-1,0,-2,-2,-3
82275,3,5,3,-2,0,-2,-7,5
82333,-20,-7,-5,-1,1,0,3,-7
82392,-20,1,3,-1,0,-2,1,-11
82450,-27,-4,-5,-3,-2,1,2,-5
82509,30,1,-1,2,0,-3,-3,17
82558,-5,8,0,0,-2,1,1,7
82626,6,-1,-4,-3,-2,1,-5,-13
82685,-2,-2,-3,0,-3,1,0,5
82746,-4,-3,-1,0,2,0,-2,-2
82805,-16,-2,-2,-2,1,-1,3,0
82862,0,2,-3,-3,-2,3,-1,4
82910,16,12,0,-3,-5,-3,0,-2
82964,3,4,-3,-2,-4,-2,-3,-1
83017,-2,8,0,-2,0,2,1,1
83072,24,7,2,-2,-1,-2,3,12
83125,17,-3,0,-1,-3,0,-1,8
83192,-1,-2,-1,0,-2,0,0,3
83252,7,3,0,-1,-4,-2,-15,-8
83299,-5,1,5,-1,-4,-1,-4,-6
83362,-2,2,3,-1,0,-1,0,-21
83430,7,-3,-1,-4,-3,-1,-1,0
83489,3,-4,-3,0,-1,-2,-1,4
83550,3,6,3,-1,-3,1,5,3
83601,-35,-6,-4,-1,0,-2,-6,-9
83673,-6,-3,-3,-2,-3,-2,-2,-4
83730,-6,-4,-5,0,0,-1,0,0
83789,-28,-4,-2,-3,-4,-3,-6,-8
83851,0,0,-2,-2,0,0,-3,2
83901,-8,-4,-2,-2,-2,-4,-3,-6
83960,-3,-2,-1,1,5,1,-2,-16
84011,-2,-1,-2,-1,0,-1,5,-2
84066,-4,-4,-5,-1,0,-4,-3,-2
84123,3,7,1,-3,-1,-1,1,11
84184,5,1,3,2,-1,-2,2,-8
84238,3,-4,1,0,-1,-2,-2,-10
84291,-10,-3,-1,-1,-2,2,7,12
84346,3,0,0,-1,0,0,4,1
84408,8,-4,-5,0,1,0,0,4
84468,0,-8,-2,0,1,0,-1,-14
84532,-1,2,0,0,0,-2,-5,-12
84592,7,5,2,-2,-2,-2,0,3
84643,5,1,0,-1,-1,-1,-1,7
84708,2,-1,-3,-1,-1,-1,-2,1
84771,-2,-5,-3,-4,-2,2,4,1
84832,-52,-11,-2,-1,-1,-2,-6,-34
84881,6,2,1,0,-4,-4,-6,-6
84934,5,2,0,0,-1,1,3,1
84990,-4,-1,2,0,-2,-3,-1,-2
85042,3,0,2,1,-1,-1,-1,0
85094,16,-3,0,1,2,0,1,-1
85151,16,7,-1,0,-1,-1,1,2
85212,-5,-5,-2,-1,-3,-1,2,1
85275,18,0,-1,1,0,0,-6,-9
85334,9,-3,0,-1,0,-1,0,6
85387,7,0,-2,0,1,-4,-10,-9
85452,1,-2,-4,-2,0,-1,-1,1
85513,-12,-4,-2,1,-2,-1,0,-2
85574,11,3,0,1,1,-1,-3,-9
85635,-2,0,0,-1,-1,1,0,-2
85687,-9,3,5,1,3,-1,0,-10
85737,-10,7,1,-2,-2,-4,-4,-1
85791,-8,-12,-7,1,2,-5,-4,0
85844,9,-1,-1,-3,-5,-2,2,4
85904,7,-5,-5,1,0,1,6,1
85954,15,-3,-7,-3,-3,-3,-2,-8
86016,2,0,0,-2,-2,-2,-2,-2
86076,-3,0,-2,-1,-2,-3,-2,-7
86128,-2,3,3,0,-2,0,0,0
86191,13,-9,-6,-1,0,-4,-2,0
86255,-21,-8,-2,-3,-1,-1,-3,-11
86316,4,0,0,-1,-1,-3,-3,-6
86376,-29,3,2,-1,-1,2,0,4
86428,-5,-1,2,1,1,2,5,15
86482,7,-2,-4,0,-2,0,-2,-2
86533,-6,-9,-1,-1,3,0,-1,5
86589,-2,3,1,1,-1,-2,0,-2
86641,-30,-2,3,1,1,-2,-5,-1
86700,-11,-6,0,-1,-1,-1,-2,-3
86765,-3,-13,-5,-3,-1,-1,-1,-3
86810,14,6,-2,-3,-1,-1,0,1
86874,28,8,-2,-1,-4,-1,-1,4
86939,-5,-8,-7,-4,-3,-1,-2,0
86998,-2,4,-1,4,5,0,-2,4
87058,4,-16,2,3,2,-2,0,6
87116,-29,0,2,-1,-11,-1,0,6
87177,14,6,9,1,-7,1,3,9
87241,13,-8,-4,-10,-43,-1,4,8
87300,30,3,-4,-5,-27,-3,2,8
87354,6,1,-1,1,23,3,-2,-9
87403,-4,-10,-2,-2,-13,-3,-2,-7
87457,9,11,1,1,-7,-3,-6,-7
87507,6,13,6,-2,-5,-5,-5,0
87570,6,-2,-1,3,9,0,-2,-7
87626,7,1,-5,0,1,2,2,2
87686,-25,-1,-3,-1,0,-4,-1,-10
87747,16,10,4,-1,1,3,7,18
87795,-2,-6,-6,-3,-4,-3,-1,-11
87846,-24,-6,-3,0,0,0,-2,6
87900,27,-4,-1,0,5,0,3,0
87956,-1,-1,-3,-1,-2,2,0,-7
88018,-38,-9,3,2,5,-1,1,3
88079,-4,2,-1,0,-2,2,2,3
88130,-8,-5,-5,0,-2,1,3,-2
88187,25,-1,-3,0,4,0,1,12
88235,22,-1,-1,-1,-2,-3,-3,3
88288,0,0,0,0,-3,1,3,7
88341,2,0,-3,0,-3,0,0,6
88400,-8,-3,-2,-4,-6,-1,-3,-12
88463,4,2,3,0,2,3,-1,3
88514,-12,-6,-2,1,0,1,1,-1
88565,7,-5,-2,-2,-2,-3,-1,-3
88618,-9,-2,-1,-4,-3,0,1,-6
88679,5,11,3,1,1,1,-1,1
88732,-12,10,4,1,3,-3,-7,-8
88784,-20,-4,3,-1,2,-2,-6,4
88842,-19,-7,-8,-3,-2,-1,1,-7
88904,0,-5,-5,-3,-4,-4,1,3
88969,-11,3,1,0,3,1,0,-11
89025,-8,-11,-6,-1,2,-3,-4,11
89076,-6,-6,-4,-1,0,0,5,1
89128,1,-3,0,-1,0,-1,-1,-5
89190,-20,-16,-8,1,-2,-3,-5,-19
89242,-5,-8,2,-3,-2,1,-3,5
89301,6,-1,1,0,1,-2,-2,4
89361,-7,-12,-11,-4,-6,1,-2,-1
89426,8,-3,0,0,-8,-2,0,-1
89474,12,-3,1,2,0,0,-1,-1
89528,-2,10,3,0,-3,0,4,8
89585,-3,6,0,0,-2,-1,-4,-5
89647,13,10,1,-5,-5,-5,-5,2
89707,8,-1,2,-1,1,0,1,6
89761,-2,-2,-2,2,8,0,-1,-2
89826,-4,4,9,3,-3,-6,-6,-2
89888,-3,-6,-3,-4,2,2,1,1
89947,8,20,6,-3,-5,0,-2,-2
90000,-8,1,4,-3,-8,-4,-8,-12
90063,-1,0,4,3,9,-1,-2,7
90124,5,-2,-7,-5,13,-3,-1,-13
90187,-43,-8,2,-2,-1,-3,-3,-4
90249,9,0,-1,1,-12,-3,3,5
90308,-1,-8,2,1,-6,2,4,-1
90360,11,7,1,0,4,5,0,8
90424,5,0,1,-5,-16,-1,10,16
90489,-1,1,0,0,1,-4,-5,0
90548,-2,-3,-3,-1,1,8,8,-3
90608,-4,15,5,-2,7,0,-2,-15
90664,-33,-2,1,-1,-17,-3,-2,-8
90710,2,-4,-5,-8,-10,-5,-4,-13
90765,-14,-1,-2,-5,-5,-1,1,1
90818,8,-2,-1,-4,-25,-4,-1,4
90873,5,0,-5,-2,-6,-2,-3,-2
90931,8,-1,0,2,8,1,0,-6
90991,-17,1,0,-1,14,-2,-2,-8
91050,-1,-7,-4,3,-7,2,0,-6
91110,1,-4,-4,1,9,0,2,-3
91167,11,2,-1,-1,6,0,-1,5
91229,4,0,-1,1,1,2,-1,-8
91289,15,-1,-4,-5,5,-1,-4,8
91352,7,4,0,-3,-5,-1,-1,6
91411,-25,-2,-4,-2,-9,-3,1,-6
91467,17,-2,0,1,3,-1,-7,5
91515,5,10,7,1,-16,0,-1,-3
91567,-18,2,2,-5,-25,-8,-3,-1
91618,5,-19,-10,-1,12,-9,0,-5
91672,-1,-6,-4,2,43,1,0,9
91731,37,-15,-11,3,51,1,-3,-11
91792,9,-6,1,2,17,4,-7,-32
91852,-12,-13,-6,2,3,6,-2,-21
91912,32,-7,-4,-5,-8,-1,6,32
91969,-1,-6,-6,-8,-21,-3,-4,-5
92029,30,11,10,6,3,-2,2,8
92091,-45,0,-3,-3,13,-3,-3,-8
92152,13,-4,-5,-3,-12,-7,-3,-11
92212,4,-6,-6,-5,1,6,-2,-5
92265,-21,-1,5,2,-4,3,-1,-23
92317,2,0,-1,-6,-30,-9,0,-6
92370,9,33,15,4,9,0,0,12
92424,-19,-4,-4,-3,0,0,-2,1
92474,19,5,1,0,-3,-3,1,5
92533,-4,17,12,2,-4,1,4,7
92595,-8,12,-2,-4,-8,-3,2,-5
92655,-12,0,-1,-1,-5,-3,-9,-18
92709,12,0,2,-4,-8,-1,1,-3
92773,-8,0,-1,-1,1,2,-2,2
92833,13,-9,-4,-1,-1,0,-4,0
92894,-8,-4,2,0,-1,0,4,3
92956,-4,-1,-1,-1,4,-3,-4,-1
93009,-25,-4,1,1,0,1,-3,-8
93074,6,2,1,-2,-3,-3,-3,-5
93136,-1,7,0,0,-3,-2,-1,4
93196,3,2,-3,-3,-7,-11,-7,-5
93247,6,9,0,-2,-3,-2,-4,9
93303,-2,0,-1,0,-2,-4,-7,1
93351,-1,3,1,0,0,1,-3,-12
93405,0,-1,-1,-2,-1,-2,-4,-2
93458,3,6,1,-1,-1,-3,-3,-3
93518,-2,-1,-2,0,0,0,-1,-6
93580,-1,0,-1,-1,-2,1,-2,3
93638,4,-1,-3,-2,-3,0,-1,10
93690,-6,-2,1,-1,-2,-2,0,3
93754,-1,0,0,-2,0,-2,-1,5
93817,2,-6,-3,-2,-1,1,9,-1
93877,-5,0,3,-1,2,-1,-4,-6
93937,-3,-2,2,1,-1,-1,2,-8
93989,-2,1,0,-1,-1,0,0,3
94054,3,-1,2,-1,1,-1,0,6
94116,-1,-2,0,-1,-1,2,1,8
94178,0,-2,-5,-2,-1,-1,0,12
94237,1,0,-3,-2,-1,-1,-2,-2
94290,1,0,0,0,2,-1,-1,6
94345,-1,-4,-2,0,0,0,1,-8
94396,2,-1,1,1,-2,0,-2,0
94448,-5,-3,0,-3,-2,-3,-2,-1
94508,0,-2,0,-1,-3,-2,7,3
94560,0,2,0,1,2,-1,-4,-11
94620,-2,1,-4,-4,-3,-3,-1,-2
94681,3,-5,-2,0,3,1,2,17
94732,-2,-5,-4,-2,-4,1,1,-3
94795,3,-4,-2,-1,-1,-2,3,23
94858,4,1,-1,0,-1,-2,-5,-2
94920,-1,-1,-1,-3,-1,0,0,3
94981,4,2,0,1,0,2,-2,-5
95034,1,-1,0,0,-2,-3,1,8
95084,4,1,2,0,1,0,-1,6
95138,0,0,0,-1,-1,0,-3,3
95189,-3,1,-1,0,-4,-3,-2,-8
95242,-5,-5,-4,-1,1,1,1,-7
95300,0,-2,1,1,2,0,-4,5
95362,-1,-1,0,0,-2,-5,-5,5
95422,-3,4,0,-4,-1,-2,-10,-1
95475,9,-2,-5,-1,0,-2,0,8
95535,1,-2,-4,-1,-3,-1,0,2
95590,-2,1,5,0,0,-2,-4,-1
95640,-3,-4,-1,0,0,0,0,-7
95693,-4,-3,-2,1,-2,0,-1,13
95744,3,4,1,-2,0,-1,-3,3
95796,-2,3,0,-1,0,0,7,3
95849,6,-6,-5,-2,3,-2,-1,14
95902,2,16,8,2,-1,-5,-6,-4
95961,2,10,3,-2,-4,-1,-5,-10
96022,-2,13,-2,0,-2,0,-4,-11
96072,3,-4,-3,0,0,-1,-2,1
96126,12,-3,-2,2,0,-2,0,13
96183,9,2,1,1,-2,-2,-2,-11
96230,-1,1,-3,-1,-1,2,1,2
96286,1,1,-1,-1,0,0,-1,-8
96340,-1,0,-3,-2,-2,-2,-7,2
96403,5,2,-1,0,0,-2,-7,4
96466,7,0,-6,-3,-3,-2,5,-1
96526,-3,6,2,-2,-2,0,4,12
96585,10,-6,-3,-1,-1,0,3,15
96641,5,-7,-3,-2,-1,-1,1,-6
96704,0,-3,0,1,1,-1,-3,-12
96767,-1,0,-3,0,2,-1,0,2
96830,15,-1,-2,-2,-1,-1,0,9
96879,-7,-3,0,-3,-3,-1,3,4
96929,-7,2,1,-1,-13,-4,-3,-7
96982,-14,0,1,-1,4,0,0,-9
97041,-3,-3,0,-1,-8,0,-1,-2
97088,-2,-5,-4,-5,-8,-2,-4,-8
97148,-30,-1,1,2,3,0,0,-3
97208,10,-3,-2,-1,11,1,1,1
97261,-14,-1,0,2,14,2,7,4
97323,-30,-6,1,0,-8,-2,-1,-9
97386,-6,1,1,5,46,6,1,-4
97448,-3,8,6,2,4,0,0,-5
97508,-5,-3,-4,-2,-6,0,1,2
97558,17,3,2,1,3,0,3,2
97612,9,3,-1,1,15,-3,-4,-6
97665,19,-1,-3,0,2,1,6,0
97718,2,1,-4,-1,15,-6,-6,-1
97773,-3,0,1,0,3,-1,2,6
97830,13,2,-1,1,5,3,8,0
97890,-30,-7,-1,-2,0,0,1,-1
97943,-9,-5,-6,-3,-5,0,0,-6
97997,14,1,-4,-1,-2,-6,-6,-2
98053,16,3,-8,-3,-14,-1,5,8
98114,10,6,-4,0,-3,-2,-4,2
98160,-9,-7,-3,-2,-5,3,3,12
98213,9,3,-2,0,3,-2,1,3
98264,-7,-6,-2,-1,13,0,-5,-3
98320,-15,-2,5,-1,1,0,1,0
98375,-8,-5,-3,0,-2,1,-4,-14
98434,2,-5,-6,-4,-1,0,3,0
98493,-3,1,0,1,-1,-2,-6,-5
98551,2,0,-1,0,0,0,0,-10
98608,12,-1,-5,-2,2,1,1,9
98669,8,-5,-2,-1,-5,1,0,2
98731,-10,-5,-1,-1,-3,-1,2,5
98792,-34,4,2,0,-1,-2,-1,-9
98848,-7,-4,1,-1,-1,-1,-4,-5
98906,-1,2,6,1,-1,-2,3,5
98965,-17,-8,-7,-3,1,0,-4,-3
99016,-24,9,7,0,-1,-1,-8,-29
99067,-11,-3,0,0,3,1,0,2
99127,-15,-1,1,0,-2,-2,2,-5
99189,4,0,-1,-1,-2,-2,-1,-1
99239,9,0,-2,-1,-1,-3,-6,-7
99296,-1,3,0,-1,-7,-1,-3,0
99356,4,2,1,3,0,-1,3,6
99416,15,8,6,0,-2,-2,-1,0
99476,3,-6,-8,-3,15,1,-3,6
99534,-9,-4,-1,-1,0,2,2,-4
99586,2,-3,-4,0,-1,-4,-8,-15
99654,10,4,-1,-3,-3,-4,-7,-10
99714,8,0,-5,1,0,-1,-2,-1
99774,-2,-3,-1,-2,-4,-2,2,-7
99824,5,-6,-1,0,0,-1,-4,-6
99877,2,-3,-2,-1,-1,1,-3,-1
99936,1,1,-3,0,1,0,0,0
99990,3,9,4,0,0,-1,-5,-8
100047,-9,-8,-5,0,0,-2,-4,0
100097,-17,-5,-5,-1,-1,-2,-2,0
100155,-4,1,3,-3,-1,0,-9,-14
100207,1,1,-2,-2,-1,1,1,-1
100270,8,-1,-3,1,-1,-2,1,7
100335,-15,-8,-2,-2,-2,-5,-7,5
100397,12,-3,-7,-3,-4,-3,2,13
100457,-3,-8,-7,-2,-3,0,1,4
100508,21,17,0,-1,2,1,-1,-7
100570,3,-4,-5,1,-2,2,7,6
100634,14,1,-4,0,-3,-4,-3,7
100697,2,-3,-2,1,2,2,3,-7
100756,-12,2,-4,-2,-1,-4,-5,-11
100809,20,-8,-5,-1,1,1,2,19
100859,6,10,0,0,1,0,3,18
100918,5,6,0,-1,-5,-3,0,3
100964,1,3,2,-3,-5,0,1,2
101019,12,-2,-5,-2,-2,-1,9,10
101072,2,-5,-6,-4,-5,1,2,5
101123,-26,1,5,-1,0,0,-1,-10
101175,8,1,-2,-2,-1,-2,-1,-9
101232,0,-4,-1,0,1,0,-2,-1
101296,-26,1,-2,-2,-2,-4,-3,-20
101356,-45,-7,-3,-2,1,0,1,-9
101407,4,4,1,1,0,-3,-1,4
101461,-17,15,3,1,0,-1,-5,-5
101512,4,0,1,1,0,-1,2,9
101566,-2,-12,-5,-2,0,-1,-6,-12
101620,20,-2,-1,1,0,-1,1,12
101678,-3,14,8,0,-1,-2,1,0
101739,-17,-4,-4,-1,0,-1,-6,-4
101789,9,-2,-3,0,0,-2,0,7
101843,2,1,1,0,0,-2,-2,7
101895,2,10,2,0,1,0,0,-1
101949,11,5,2,-3,-4,-3,0,23
102002,-8,-12,-6,-3,-5,-2,1,-4
102057,-15,11,7,0,3,1,-3,-9
102121,-10,16,9,0,0,1,-1,1
102181,7,10,3,-1,0,5,11,0
102241,0,-1,-5,-1,1,3,5,10
102293,-9,-15,4,1,-4,-3,-2,-13
102357,-28,-15,-5,-2,0,-1,-1,-12
102420,20,3,-3,-2,0,-3,-2,-4
102481,-16,5,1,1,-3,-3,0,-5
102541,-1,-4,-2,-1,2,1,4,5
102593,-1,4,3,-1,-1,-4,-1,-3
102657,4,4,-2,-1,-1,-2,4,-4
102721,-17,-5,-2,-1,0,-2,-5,-8
102783,-5,2,-2,-3,-2,-4,-5,-7
102843,3,2,0,0,-1,-1,-6,-6
102899,3,0,-2,-2,-3,-1,-1,3
102958,-11,-4,-2,-3,-1,-5,-1,-13
103021,25,2,-3,-3,-4,0,4,1
103083,2,-4,-3,-1,-2,-3,-4,-14
103133,4,7,1,1,-3,-3,-4,-6
103185,-8,-5,1,0,-2,-4,-4,-2
103243,-12,6,6,0,0,-2,-3,-8
103311,6,-2,-2,-1,-5,-2,-3,-12
103370,5,5,1,-1,0,-1,-1,3
103418,-5,2,2,-1,2,-1,-3,-4
103470,8,0,0,-3,-2,0,-1,1
103523,-9,-2,-4,0,-3,-4,-9,-6
103583,2,-6,-7,-2,-1,-1,0,0
103637,2,-4,-4,-1,-2,1,6,2
103689,6,0,-3,-5,-2,-3,-1,-1
103741,12,6,-1,0,-1,-1,-4,-4
103793,0,2,-1,-1,3,-2,-3,-6
103847,8,14,-4,2,-3,-1,6,10
103907,4,4,0,0,-4,-2,0,12
103966,-12,-10,-3,0,0,4,4,-9
104025,-7,-6,6,4,2,1,3,7
104077,2,8,5,0,0,-2,-1,-7
104130,-1,-1,2,0,0,-1,1,6
104183,-25,-3,-3,-1,0,-1,-3,-12
104235,-38,-6,-2,-2,5,-2,3,-4
104289,-33,-15,-3,-2,10,2,3,10
104342,-4,0,-6,1,10,-1,-3,-10
104394,0,-4,2,-4,-16,-1,0,2
104446,9,-8,-2,-2,-1,-1,-4,-4
104501,15,19,8,0,17,-2,-6,-7
104564,-15,2,4,1,13,1,-1,-1
104628,9,7,1,-3,-23,-2,2,0
104686,24,-5,-3,6,19,3,-3,14
104738,32,-2,-4,-4,-32,-4,1,22
104791,-17,-12,-3,-9,-21,-1,-3,-5
104843,0,5,-1,21,19,13,8,15
104905,26,10,-9,-1,25,3,-1,9
104955,43,-2,-6,0,8,-1,0,11
105009,-9,-1,0,-10,-86,-9,-5,-10
105064,29,0,-1,1,-6,1,-3,-3
105127,-26,6,6,-6,-46,-8,0,-1
105189,22,9,-2,-6,-33,-5,1,3
105249,-2,-14,-4,-4,0,-3,-3,-6
105302,10,-3,0,-6,-16,-9,-6,-6
105353,-3,0,2,-2,-20,0,4,-6
105406,6,0,-5,-7,-39,-5,-2,-3
105463,4,-6,-4,-2,-10,-3,1,5
105511,-14,-6,-1,4,-7,2,-1,6
105571,-7,-6,-7,-4,-5,-3,4,8
105632,21,-3,-4,-4,-15,-7,-1,2
105692,0,-7,-5,-1,-14,-2,-3,-9
105746,-8,-1,-1,2,3,4,2,4
105806,2,-1,0,1,2,-1,0,4
105870,-7,-2,0,0,7,2,5,11
105932,9,5,-1,1,0,-3,-3,-10
105993,6,0,-1,2,19,2,-6,4
106043,10,2,-1,1,-5,-1,3,2
106106,-1,2,-2,-1,-13,-2,-2,1
106170,7,-5,-4,-1,-1,-4,-6,12
106234,-5,1,2,0,1,1,1,-1
106293,7,-4,-3,0,-5,0,0,0
106345,-8,1,-2,-4,2,-1,-2,5
106409,6,1,2,1,-5,0,-1,4
106471,1,7,5,0,-3,1,1,2
106538,-5,-5,-3,-1,-1,-1,-7,-8
106583,13,0,-1,1,-2,-5,-4,3
106636,6,1,1,-3,-3,-2,1,4
106689,3,6,2,0,0,-2,-6,-10
106747,0,-1,2,-2,0,-3,-4,-2
106794,-19,2,-1,0,-2,-1,-2,-4
106852,-27,2,-2,-1,0,0,1,2
106915,-1,0,-1,-3,-2,-2,-5,1
106974,-11,-4,-1,-2,-2,-1,0,-4
107026,-12,-5,0,-4,-2,-2,1,-6
107089,3,3,4,0,1,-1,-1,6
107151,1,-2,-1,0,-2,-2,-3,-2
107214,3,5,0,1,0,1,0,3
107274,9,7,1,1,2,0,4,4
107325,8,0,-4,0,-1,-4,-7,-3
107389,-1,-18,-6,-1,-1,-1,0,1
107453,-1,3,0,1,-1,1,6,-1
107518,0,3,3,0,1,-2,-7,-13
107578,-9,-3,0,-2,-1,-2,3,-8
107627,8,-2,-2,-3,-4,-1,0,5
107685,-1,-11,-2,-2,-2,-4,-5,-8
107739,2,1,-2,-2,-2,1,0,1
107791,2,0,-3,-1,-1,0,3,0
107844,-5,0,-2,-3,1,-1,-4,-4
107896,-15,-3,3,-2,-1,1,1,-2
107963,2,-6,-4,-3,-2,-3,-1,3
108006,0,-2,-4,0,-2,0,3,4
108069,-3,0,1,0,-2,-1,-1,-2
108122,-13,5,5,-1,-1,-1,1,2
108175,-14,-2,-2,-1,2,1,1,-5
108228,2,3,3,0,-1,-2,-3,8
108280,-8,-1,-1,-2,-1,-1,2,0
108337,10,-3,-1,1,-1,-4,1,-9
108399,5,2,-2,-1,-4,-3,-3,-6
108459,2,-4,-3,0,-3,1,-2,-5
108511,3,-2,-1,0,-2,-2,0,5
108574,10,-6,-4,-1,-3,-3,-3,-2
108638,-12,-1,-3,-2,-1,-1,-2,-9
108705,7,1,-1,-1,-1,0,-4,-7
108759,-1,1,-1,-1,1,0,2,0
108810,2,5,1,0,-3,1,3,-7
108873,7,1,0,1,1,-1,-1,-2
108938,-3,-2,4,0,-1,0,-1,-4
109001,-14,-5,0,-2,-2,-3,-5,-6
109059,-3,-2,2,-1,-1,-5,-4,10
109116,-4,-1,0,-2,0,-1,2,2
109176,2,-2,-4,-1,1,-1,-4,-4
109237,5,1,-3,0,3,0,-6,-16
109299,-5,0,0,-3,-2,0,-6,2
109360,2,1,0,0,-2,1,2,-2
109416,13,1,3,3,1,-1,-3,-5
109463,11,-1,-2,1,0,-1,4,-3
109516,10,2,4,1,3,-1,-2,1
109571,6,2,1,1,1,-4,2,3
109623,4,0,3,1,-2,-2,-4,-1
109682,9,0,0,-2,-2,0,9,8
109742,4,4,0,-1,-6,-3,-5,-1
109800,8,4,-2,-2,2,0,5,5
109858,-2,-2,-2,0,-1,1,-2,2
109919,1,-1,0,-3,-8,-4,-3,3
109982,-19,-10,-4,-1,4,-1,-1,-1
110042,-2,0,3,2,7,1,4,-1
110103,-21,0,2,0,-26,-2,0,-11
110156,2,-4,-2,-6,-23,-11,-4,-3
110217,-24,-3,-1,2,4,0,-2,0
110281,-15,1,-1,-2,-1,2,1,-4
110343,-4,-4,-4,2,4,2,7,13
110403,-8,-5,-3,-1,0,-3,-2,-5
110454,5,-13,-4,0,2,2,3,-2
110511,4,1,0,0,1,-1,-4,5
110559,6,3,2,0,1,0,2,1
110614,4,0,-1,-2,17,-3,-6,-11
110664,13,0,-2,-2,-7,-1,2,5
110723,-5,-5,-2,-1,-13,-2,-5,-4
110786,7,-4,-5,-5,-1,-1,-3,-2
110847,2,3,0,-1,3,2,0,-13
110895,4,-1,-3,-1,-2,-2,-4,-2
110960,6,7,-1,0,-5,2,1,10
111023,12,8,1,-2,-4,1,1,13
111086,-6,-3,-1,-2,-19,1,7,-2
111145,-5,-5,-2,0,2,-1,-1,3
111197,-3,0,-1,-1,2,-1,0,-3
111252,2,4,0,0,-12,1,0,5
111313,-7,-4,-8,-1,0,0,0,-8
111361,-23,-10,0,-5,2,-1,-2,-17
111413,3,-7,-8,-1,5,-2,-1,-1
111467,10,4,3,0,-3,-3,1,6
111526,10,5,2,-2,0,-1,-7,2
111579,-2,2,2,1,7,-2,-2,7
111636,11,2,0,-2,0,-1,-8,3
111685,15,0,-5,0,-3,-4,-6,-5
111738,2,2,-5,0,11,2,0,-7
111791,-20,-12,-3,-1,-2,-1,-2,-9
111849,2,-6,-3,-2,1,1,2,-3
111901,-3,-4,2,0,-1,-2,1,3
111954,-7,3,4,2,-2,3,5,14
112007,11,5,2,-1,-1,0,13,20
112067,-8,3,1,0,-1,0,-2,2
112120,5,3,1,-1,-4,-1,-7,5
112172,-17,-7,-3,-2,-3,-5,-4,-14
112230,8,2,0,-3,-4,-5,-2,-6
112284,12,12,2,1,2,-4,-6,-5
112339,0,-1,-4,0,3,4,6,4
112390,-12,9,2,3,6,4,22,23
112450,22,4,-5,-5,-2,-2,-5,3
112514,1,-7,-4,-2,-3,-1,0,-5
112570,-1,-2,-6,0,3,-1,-4,-14
112624,5,13,5,3,2,-3,-6,-1
112674,2,2,0,-6,-22,-4,-7,-7
112727,8,0,-3,0,4,-2,-3,-3
112781,-36,-8,0,-1,0,0,2,-3
112832,-1,-3,-3,-3,-3,-1,-1,3
112885,-5,-10,1,2,2,-2,-1,0
112941,9,7,-1,0,-2,0,0,-5
113003,0,3,3,0,-9,-3,-7,2
113067,-16,-4,4,1,0,-2,-6,3
113135,24,2,1,-1,-3,-1,-9,-1
113194,-25,-6,-1,-2,0,-4,-3,-9
113243,-6,3,1,-2,-1,0,-1,-2
113297,-5,4,-3,-1,-7,-3,-4,-14
113349,0,-2,-4,-5,12,-1,0,10
113409,-3,-8,-9,-1,-7,-1,3,-6
113462,-6,7,3,-1,0,0,-6,7
113515,4,2,-2,-3,0,3,5,1
113567,13,8,-1,-1,-1,-1,3,3
113620,36,-8,-14,-3,-1,0,-4,11
113677,-6,-2,-1,0,-1,-2,-5,-5
113729,-5,-3,-3,-2,-2,0,-1,3
113793,-1,-8,-2,0,1,-1,2,2
113856,6,9,11,3,3,-1,-7,-1
113904,1,-3,-5,-2,2,-2,0,2
113956,0,-5,-2,3,1,-4,0,-2
114009,0,-20,-5,-2,0,-1,0,-2
114063,16,0,-4,-1,2,3,9,2
114120,-8,9,13,3,0,2,-1,3
114180,-14,2,-3,0,24,1,-6,-11
114237,-5,1,0,-1,-3,-2,5,3
114296,-13,-4,0,-1,-2,2,0,6
114348,-19,0,-2,-1,0,-1,-3,2
114412,1,-1,1,2,6,1,2,2
114473,18,15,2,1,-2,2,2,17
114536,4,-1,2,-1,-6,0,-2,-15
114595,7,-7,-3,-1,22,-1,-1,0
114648,-2,5,-2,0,-3,-2,2,-5
114709,-4,15,4,0,-1,-1,-2,-5
114766,5,-13,-11,1,5,0,1,-1
114813,-4,-10,-1,-2,-5,1,8,-7
114869,2,-2,-1,2,5,4,7,0
114925,-5,1,0,-1,9,0,-1,-16
114978,-37,-6,1,0,-16,-5,-14,-29
115038,16,4,-3,-2,-4,3,11,11
115094,16,7,0,0,2,4,4,3
115153,-27,-1,-3,1,5,2,2,0
115203,-6,-12,-6,-5,-7,-1,-6,-3
115255,14,2,-1,-2,-4,2,2,-3
115308,40,5,-6,1,-9,-2,-1,15
115360,-6,-7,-1,-3,-3,0,2,-2
115414,-29,7,8,4,0,-2,2,-4
115466,2,12,5,2,3,-4,-4,7
115518,8,0,-4,0,3,-4,-1,-1
115577,3,2,-2,-2,0,-2,-4,-3
115637,-14,-7,-2,0,-1,4,16,23
115698,-5,18,-2,-2,-4,1,8,-5
115758,-18,15,8,2,-4,1,-3,3
115812,-6,-2,-3,-5,-4,-4,-17,-5
115862,-12,15,9,0,4,2,-4,0
115915,5,0,-5,-8,-7,-7,-2,-9
115968,12,2,-2,-2,1,1,-1,7
116022,-2,-1,-1,1,5,0,-2,-1
116081,-11,-7,-6,-2,-9,-1,3,-9
116140,-3,-6,-5,-2,-3,0,0,12
116201,-4,-7,-1,-2,0,0,1,7
116255,4,7,0,0,1,-1,-1,1
116318,1,-4,-1,0,0,-2,-2,0
116380,17,2,-5,-2,1,-2,-1,1
116441,13,2,-3,1,1,4,3,6
116494,2,3,1,-1,-2,-1,0,1
116556,-9,-6,-1,-3,-2,-2,-4,-6
116619,0,2,5,1,-1,1,5,7
116681,7,-1,-2,-1,-4,-1,-7,5
116740,3,-3,3,1,1,0,-5,2
116793,-3,-2,0,-1,1,-1,1,-6
116844,-4,-3,-3,-3,-2,-2,-4,0
116901,13,-7,-4,-1,-1,-3,-2,3
116953,-2,9,6,-2,-5,1,-1,-11
117005,10,-5,-3,0,-1,-4,-2,5
117066,5,0,-2,-1,0,-3,-4,-6
117125,-35,-10,-1,-1,2,-2,-3,-3
117176,7,5,0,1,-1,-2,-11,3
117237,4,4,0,-1,-2,2,-4,-9
117301,10,13,1,0,-3,-5,3,2
117363,0,-4,4,-1,-1,-1,-1,0
117423,-3,-3,4,1,1,2,-2,0
117475,7,-4,-2,0,-1,2,-3,2
117540,-37,-14,-3,-3,0,1,0,-1
117604,6,0,-2,-1,-2,1,-4,0
117663,12,-5,-5,-3,-1,-1,-1,0
117714,0,-6,1,-1,-3,2,4,-6
117776,-12,-6,-5,-2,1,1,2,0
117838,-2,-1,0,-1,2,-3,4,6
117901,11,-2,-4,-1,-4,2,7,8
117963,-6,14,2,-1,-4,-1,-1,-8
118024,1,0,0,-2,-3,-4,-5,-1
118075,4,1,1,-2,-3,-5,-1,-7
118136,-8,-2,-2,0,1,1,1,0
118186,8,0,-2,-3,-3,-3,-5,4
118245,-15,-7,-3,1,0,-1,-6,-5
118295,15,0,-3,-1,2,-1,0,0
118345,-4,2,1,-2,-3,-3,-17,-1
118405,1,7,5,0,-1,-2,1,3
118466,5,3,5,2,1,-2,2,14
118517,-2,-1,2,-2,-1,0,-1,1
118579,5,-5,-3,-1,-3,-2,5,2
118643,-4,2,0,1,2,2,7,8
118705,-15,-4,-5,-2,-1,-1,0,-6
118766,6,1,2,0,-2,-4,-5,0
118817,-5,2,-3,-1,0,0,0,1
118870,20,0,-3,-1,0,-1,-3,-1
118922,-8,1,4,3,2,0,2,-12
118977,-14,4,1,-1,-1,-2,-2,-1
119030,-3,4,1,-1,-7,0,0,0
119091,13,-6,-7,-3,1,-1,-1,-2
119151,2,-1,-2,-3,0,-2,2,1
119211,25,1,1,-1,1,0,2,1
119265,-2,-6,-4,-3,-3,-1,-2,4
119327,3,3,-2,0,-1,0,3,1
119392,-4,-7,-3,0,-1,-1,-1,-5
119451,-3,-8,-4,-1,-1,1,0,-1
119501,-8,0,-1,-2,0,-3,3,4
119559,2,-6,-2,-1,-1,-1,2,6
119612,-7,-2,-1,-3,-3,-4,0,-8
119666,-4,-2,-2,1,-3,-4,-6,-6
119726,-16,-3,-3,-2,-2,1,3,5
119783,-5,-3,-3,0,1,-1,-1,0
119830,-9,2,2,-3,0,-1,-9,4
119881,9,2,1,1,-3,1,0,0
119936,8,-2,0,1,2,-1,-1,5
119988,-4,-5,0,0,-6,2,5,8
120047,7,-3,-3,-1,-2,-2,-7,-9
120107,-2,-6,2,1,-4,-2,0,10
120152,16,7,-1,1,1,-3,-1,3
120205,3,7,3,1,0,-1,6,-3
120259,-25,-6,-3,-1,-1,1,-6,1
120321,-6,2,2,-1,-3,-1,2,1
120370,-10,-8,-3,-1,-1,-1,2,1
120432,11,1,-1,-2,-2,-2,-1,10
120490,-11,-2,-2,-3,0,2,2,-1
120542,5,-1,-1,-2,0,-2,-3,-5
120595,-2,15,8,0,-2,-2,-8,-10
120648,5,-3,-2,-1,2,1,6,3
120703,-1,-3,2,3,1,-1,-2,4
120754,4,-5,-6,-2,-2,1,4,-2
120816,-8,-6,-7,-3,-2,-1,-3,3
120874,-3,-1,1,-2,-1,-3,-5,-3
120925,-1,-4,2,1,-1,-3,-7,-3
120987,3,-2,0,0,1,0,0,5
121036,9,1,-2,-2,-1,-2,-3,1
121092,3,8,7,0,-1,-2,-2,-2
121149,8,-4,-1,-3,-4,-1,-4,-14
121212,-4,-2,-3,-2,-3,-4,-8,1
121272,8,-1,-3,0,-2,-1,3,6
121323,9,-1,-5,-5,-4,-4,-6,-4
121380,-3,-7,-6,-3,-1,-3,-3,-3
121427,-25,-2,1,-1,2,4,0,-3
121487,17,3,-3,-1,0,0,-3,5
121542,0,-5,-2,-2,-1,-2,2,-1
121594,11,2,0,1,1,1,3,5
121651,-12,-2,5,2,1,0,-3,-6
121714,-10,-1,-2,1,-1,-1,2,6
121774,-3,1,1,-2,1,0,2,0
121825,-21,-8,-2,0,0,0,-1,-3
121880,-20,-9,-3,-3,-2,-2,-4,-8
121933,-14,-1,-3,-1,1,-1,1,-4
121984,0,0,-2,0,-1,1,2,-2
122036,-7,-3,1,-2,-4,-3,-5,-7
122096,-6,0,0,-4,-1,-3,-7,-12
122156,4,1,-2,-1,2,-2,-2,-2
122208,-1,-5,-4,-1,-1,4,3,6
122261,9,3,2,0,1,0,-6,5
122314,5,11,-1,-3,-3,-1,-5,0
122370,-3,4,1,-1,-4,-1,-1,-7
122418,1,-3,-3,1,-1,1,-1,1
122474,12,-1,-6,-2,1,0,0,-3
122539,-16,-3,-2,-1,0,-1,-14,-41
122605,6,2,0,-2,-1,1,6,11
122661,0,0,0,-1,3,-4,-2,-3
122711,13,3,0,1,-5,-1,-1,2
122774,-10,-2,2,0,1,1,5,0
122837,2,-5,-1,-1,-1,-1,-2,-4
122899,5,3,-1,0,-1,-1,-2,-1
122948,7,-5,-2,0,-2,1,-2,-2
123010,3,-1,-4,-3,-7,-2,3,-2
123077,6,-5,-1,-1,0,0,-1,3
123138,-5,-6,-3,0,-3,-3,-3,-6
123201,4,6,1,0,2,-2,-4,-4
123260,-13,-4,-2,-2,-2,-1,0,-9
123311,-2,2,0,-1,1,0,-7,2
123375,-2,-5,-3,0,0,1,5,2
123431,-22,-6,-3,-1,-1,0,-4,-4
123485,5,8,6,1,-3,-4,-5,-10
123537,-4,3,0,-1,-2,-2,-5,-6
123597,-5,-6,-1,1,1,0,-1,17
123653,7,-2,-2,0,-2,-1,0,3
123702,8,-7,-3,0,-2,-5,-13,-11
123755,-10,1,7,-2,4,4,7,7
123819,-4,1,1,1,-1,-1,0,-9
123882,8,14,2,0,-1,0,0,4
123942,-23,-2,1,-3,0,0,4,2
123994,-10,-1,1,2,2,0,1,-1
124055,-10,-14,-5,-1,0,-2,-2,-1
124118,-7,0,0,1,-1,-2,6,3
124189,-8,4,1,1,0,2,0,-4
124246,-15,-10,-4,-2,-1,-1,-2,-1
124295,14,-4,-3,2,0,-3,-4,-17
124357,5,-4,-3,-1,-1,-1,-3,0
124422,-5,11,6,2,-2,-2,-8,0
124481,-20,-3,-2,-2,1,-2,-5,-2
124543,4,3,0,-3,4,-1,-1,7
124598,15,-5,-4,1,5,-1,3,9
124660,24,-1,-5,1,-2,-1,3,7
124722,2,9,0,3,-2,-1,0,4
124782,12,2,-1,4,-1,1,6,24
124835,1,-4,-3,0,2,0,-5,3
124891,9,2,0,2,-3,1,6,8
124937,6,-1,-4,-3,-5,-2,0,-2
124990,2,-5,-2,-1,0,3,2,-6
125044,-4,3,7,3,1,0,-9,-3
125099,-3,19,9,0,2,1,-5,-14
125163,-12,-3,-1,0,-1,-3,-10,-7
125224,3,5,1,0,0,-1,-1,9
125284,7,0,-1,-1,-5,-1,2,-3
125336,1,-2,-3,-1,0,0,3,0
125398,2,-4,-3,-2,-2,-1,-3,-3
125462,13,6,-2,-1,-4,-2,3,-4
125524,-10,-2,-5,-1,3,0,-1,-1
125584,-6,-9,-5,-1,-4,-2,2,-1
125635,-3,-6,1,3,3,0,0,11
125692,2,2,-1,-1,2,-1,-5,-5
125745,-2,-6,-4,0,-1,-1,2,12
125801,4,-1,-1,2,-4,-2,-12,-2
125857,5,3,-1,-1,-2,2,3,16
125907,7,0,-2,-2,-1,1,5,6
125966,-5,5,1,-1,1,1,6,-7
126027,3,-5,-2,-4,-4,-2,-6,2
126087,3,-7,-4,-1,0,-4,-7,11
126141,-6,1,2,-2,-1,0,1,-8
126204,1,-4,-4,-3,-2,-3,-4,-8
126268,1,5,3,1,-2,0,3,15
126328,-4,-5,-4,0,0,2,5,-3
126380,-2,-5,-3,-2,-2,1,-3,-6
126436,-2,-1,-3,-2,-4,-3,-15,-4
126484,-4,-1,-3,-4,-2,-4,-3,1
126536,-17,-4,-1,0,-1,1,-2,-5
126590,-17,-12,-4,-1,-2,-1,-1,-3
126646,-3,7,3,-1,-2,-2,-5,-1
126709,-2,-2,4,4,4,-2,0,5
126769,0,0,-1,-4,-2,1,1,14
126829,-19,1,3,2,1,-2,3,-5
126883,7,-4,-1,-1,0,-4,-6,-5
126946,-3,-6,-3,0,-2,2,5,-5
127009,1,11,1,-3,-3,-1,-2,-7
127075,-4,0,-2,0,1,2,-4,3
127122,8,-1,1,-2,2,2,0,10
127186,-9,2,1,0,2,2,-1,-2
127251,11,-4,-2,-1,-1,0,1,4
127311,1,1,2,-3,-2,-2,-1,5
127371,4,-3,-3,-2,-3,2,-1,4
127421,-21,-1,2,-1,0,2,4,7
127474,-4,1,-2,-1,0,0,-3,-1
127526,-14,-2,1,-1,0,-1,-6,-14
127579,3,-3,-1,0,-1,-3,-5,4
127632,1,-4,0,0,-1,-2,4,3
127692,4,12,12,3,-1,-1,-4,3
127751,-25,0,2,-2,2,-2,-3,-20
127811,-1,10,6,1,-2,-2,-3,1
127869,2,-2,-2,-1,3,1,-5,-2
127928,-3,-3,-6,-2,-1,2,6,0
127990,0,1,1,-3,-3,-4,-8,-8
128052,3,-5,-5,-2,0,3,2,4
128104,1,5,1,1,1,-2,-9,2
128157,-7,-2,0,-1,0,1,-1,5
128209,1,-1,-1,-1,0,-1,-3,-14
128260,-2,4,-2,-1,1,0,-4,-2
128315,4,11,2,0,-1,0,0,-3
128374,-9,8,3,1,0,-2,-2,0
128434,1,11,0,0,1,-3,-8,2
128495,7,-1,-3,0,-1,1,8,1
128544,11,3,-2,0,1,-3,-3,3
128599,-22,-3,-3,-3,-1,1,3,-2
128651,7,2,-1,-1,-2,-2,-1,-7
128717,5,5,1,-1,-1,-1,0,1
128772,4,2,1,-1,-1,1,-3,-1
128829,-2,-9,-2,-1,1,-1,-6,-1
128891,4,1,-1,0,-1,1,3,12
128957,22,1,-2,-1,-4,-2,-1,-4
129005,-12,-8,0,0,-3,2,-1,0
129058,0,-3,-2,1,0,1,0,0
129109,8,-3,-2,-2,-1,1,4,1
129161,-26,3,8,0,-1,-3,0,1
129214,-3,-3,6,1,0,1,-2,-4
129275,-4,-5,-5,-2,-4,1,-2,-5
129335,8,-7,-3,-2,-4,-1,2,8
129385,-6,-14,-5,0,-1,-2,-4,-6
129441,-12,-3,-4,-3,-2,-3,-4,-13
129491,-6,0,0,0,0,-1,-2,-4
129543,5,-9,-3,-1,-1,-2,-1,-3
129597,0,1,0,-1,0,-2,-2,-8
129655,-5,-2,-4,-3,2,1,0,0
129716,11,0,0,0,0,0,-4,1
129778,7,-3,-3,-1,-2,0,8,1
129838,15,7,-3,-1,-3,-2,-4,-4
129891,-6,-10,-3,-3,-4,0,2,-9
129942,-1,-2,0,0,2,1,2,6
129994,3,-3,-1,-1,-1,1,2,9
130049,-9,2,0,-1,1,6,2,3
130103,6,-2,-3,-1,-1,-2,-1,-3
130159,-3,-3,2,1,0,-1,1,-1
130220,6,-4,-2,-1,-3,-5,-8,-7
130282,-4,-3,-2,2,3,3,7,8
130338,-8,-2,-2,0,-1,0,3,-2
130398,11,9,2,0,-2,-2,-2,5
130461,4,-1,2,-3,1,-3,-1,-1
130521,-22,-9,-4,0,-2,-3,-5,-12
130580,2,-1,1,3,-1,-3,-5,-8
130634,0,-6,-5,-1,1,-1,-3,-1
130695,-5,-5,-3,0,-1,-1,2,-3
130759,4,1,-1,-2,0,-2,1,-1
130820,1,8,3,2,-1,0,4,5
130880,9,-3,-1,0,-2,-3,-1,-2
130932,1,-9,-6,-4,-4,-2,2,0
130995,-1,1,0,-1,4,1,0,4
131057,8,-1,-4,-1,1,-1,-1,5
131122,0,-6,-5,-5,-3,-4,-11,-9
131180,7,3,1,-1,-1,-1,0,1
131230,-7,0,-2,-2,0,-2,-5,-15
131284,10,0,-2,0,1,1,3,12
131340,0,-3,0,2,-2,0,2,7
131387,5,-3,-3,0,2,0,4,10
131442,-13,-2,-3,-1,0,2,2,0
131497,5,2,-1,1,5,1,9,12
131560,9,-5,-2,0,-2,-3,-9,-7
131622,-23,-6,-1,-3,-1,-1,-5,-9
131683,-30,-5,-1,-1,-2,0,0,-5
131734,19,-1,-1,-2,0,-1,8,4
131788,-12,-4,-1,-4,-3,-3,-3,-1
131840,5,1,-5,-3,-1,1,-3,-1
131892,3,0,-1,0,3,3,3,-3
131944,7,3,-1,-1,1,-3,4,-2
132007,1,-4,-4,-4,-4,-2,-2,-2
132066,10,-2,-1,-1,0,-1,3,9
132127,5,0,-1,-2,-2,0,-2,-3
132178,1,1,3,1,-1,1,5,17
132239,-3,-1,1,-1,-5,1,2,2
132303,15,-1,-5,-3,-1,-3,-3,-7
132366,12,1,-2,-2,-2,1,-5,11
132425,1,-4,-5,-5,-7,-3,0,-6
132479,7,-6,-1,3,2,2,5,9
132540,4,3,0,0,-3,0,3,-1
132604,-1,6,5,0,-1,-3,-8,-11
132668,-5,-2,-2,-1,-2,0,-1,-2
132726,-7,-3,-6,0,-1,-1,6,-1
132778,-5,-5,-2,0,-2,0,0,-6
132841,-33,-2,-1,-1,0,-1,3,-4
132902,-4,-3,-2,-1,0,0,4,3
132965,3,-1,0,1,1,1,6,-1
133025,-4,-7,-2,-3,0,2,4,-4
133078,-5,-3,-2,-1,-1,0,0,-2
133130,3,1,-3,-4,0,2,4,1
133182,16,-7,-5,-2,-4,-5,-3,-8
133234,-14,-8,-4,-2,-3,0,-1,2
133287,1,2,2,0,2,0,0,10
133347,6,6,5,2,2,-1,-5,0
133407,-10,2,2,-2,-3,0,0,-6
133470,-16,-3,-2,-1,1,0,-5,5
133529,8,5,-1,-2,-2,-1,4,-2
133585,-6,-4,-4,0,0,3,11,18
133631,-4,-3,-2,-2,-4,-3,-11,-8
133686,6,-1,-2,-3,0,-2,-1,-4
133742,-4,-2,-4,-4,-1,-1,-10,0
133805,-5,-2,-3,-6,-2,-5,-6,-9
133865,4,8,3,0,2,-1,4,-3
133931,-7,0,3,-2,-1,2,3,7
133985,5,-1,-1,0,-1,2,5,3
134037,5,-1,-4,-2,-3,-4,-5,-11
134088,-17,-4,-1,1,-1,-2,-5,0
134153,5,-2,1,2,0,-4,-2,2
134211,-14,-2,1,-1,0,-1,-3,-3
134263,-9,2,-2,-2,-2,-3,-13,-22
134328,-2,-2,0,0,-1,0,5,0
134390,4,4,2,-1,-3,-1,2,13
134451,-8,1,0,0,-1,-2,-6,-4
134503,6,3,0,-2,0,-1,1,2
134556,0,-4,-3,-3,-1,-1,-12,-1
134608,5,-1,-5,-1,3,0,1,-3
134670,6,0,-2,-3,-2,-2,-4,2
134721,-25,-6,1,0,-3,1,2,-7
134773,0,-3,0,1,-2,-2,-4,-2
134833,-11,-7,-7,-4,-2,0,0,-11
134896,-1,2,-2,0,0,-3,1,-3
134955,4,-1,-2,0,1,3,1,-1
135005,1,-2,-3,0,0,1,0,-8
135067,-13,1,2,0,0,-1,-3,-12
135138,-11,-6,-4,-3,-3,-1,-9,-8
135194,-3,7,9,2,1,0,3,15
135244,2,-1,0,0,1,-3,-2,0
135309,-3,-5,-1,0,-1,0,2,-5
135374,-5,-2,-2,-1,-2,-1,0,-5
135434,-7,3,2,-1,1,1,-2,-8
135494,-6,-2,-3,1,0,-2,-10,2
135547,5,0,0,0,-1,-2,-4,-3
135598,6,-3,-2,-2,-2,-3,-7,-1
135650,-18,-2,-1,0,-2,-2,0,-4
135705,3,-1,-2,-2,-1,-1,2,1
135755,1,2,0,0,0,3,5,2
135813,7,-3,0,-1,-4,-1,-11,-15
135875,8,0,-3,-1,0,-1,1,1
135940,6,4,-2,-2,-2,-1,-2,-6
135987,6,2,-1,-1,0,-2,2,1
136039,-6,-5,-4,-1,-2,-1,2,-1
136094,5,3,-3,-1,0,1,0,1
136146,-14,0,-2,-1,0,0,-1,-1
136210,-6,-4,1,-1,-1,-3,-5,-2
136273,12,-2,-3,-2,0,-3,-5,0
136325,8,-4,-2,-2,-4,-1,-4,5
136379,-1,-3,-2,1,2,1,-3,1
136429,10,0,1,-2,0,0,2,-9
136484,-11,-6,1,1,0,-1,-3,-11
136536,4,-2,1,-1,-1,0,0,0
136591,0,-1,-2,1,1,-2,-5,1
136654,6,-4,-2,1,0,-3,-4,-1
136715,6,1,1,4,2,-2,2,5
136777,11,8,4,0,-2,-2,3,5
136831,3,1,0,-2,-1,-1,6,0
136880,0,0,-2,-1,-3,-4,-5,0
136935,-3,-3,-3,-2,1,-2,-1,2
136984,-9,-6,-1,-1,-1,-1,2,-2
137038,-3,0,-2,-2,-1,-1,1,-4
137093,-6,-3,-3,-2,-1,-1,-5,-7
137157,0,-3,-5,-1,-2,0,-2,-4
137218,11,1,-1,-1,-1,0,2,-5
137268,6,3,0,1,2,0,5,14
137330,21,4,-1,-2,-2,0,1,0
137382,-1,0,0,-3,-4,-2,0,-3
137437,9,-5,-4,-3,-3,-1,-1,3
137492,-1,1,-2,-3,-2,-2,2,-4
137541,-3,-6,-1,-1,-1,1,3,1
137594,5,-2,-1,1,-1,-1,2,3
137647,-18,-1,-3,-2,-1,-3,-3,-7
137702,1,-1,0,-1,-2,-1,3,3
137757,10,11,3,0,-2,-4,-4,-9
137822,2,1,1,0,-2,0,0,0
137879,4,-1,-5,-1,-1,-2,-1,-1
137930,-3,-10,0,-1,-3,-2,-3,7
137983,14,1,-3,-2,-1,-3,-5,1
138035,-18,-2,0,3,3,0,-6,-3
138087,-6,0,-5,-2,-5,-3,-1,-1
138141,11,0,-3,-1,-2,-1,-3,-1
138198,3,-4,-1,2,0,-1,0,0
138260,-7,1,-2,0,0,-2,-3,-8
138322,9,-3,-1,-3,-4,-2,-3,1
138374,-6,4,0,-2,-2,0,2,-3
138436,11,-1,-3,-1,-1,2,4,15
138500,-1,0,0,1,1,0,2,3
138561,1,-1,-4,-3,-4,-2,-8,-2
138622,9,-1,-1,1,-1,0,0,6
138672,3,0,-2,0,-1,-1,0,-3
138724,-2,5,2,-1,0,3,4,0
138782,7,-3,-2,-1,0,-1,0,3
138833,1,1,0,-2,-1,-2,-3,3
138883,-4,-3,0,-1,2,-2,-3,-3
138943,3,0,1,-3,-2,-2,1,1
139007,-8,-6,-4,-4,-1,-1,1,6
139057,-8,0,0,-2,-3,0,-1,-1
139119,2,-5,-3,-1,-2,-3,-8,1
139180,-5,0,-1,-1,-1,-3,1,-2
139244,-6,-4,-1,-2,0,-4,-5,4
139304,-2,-2,-4,-3,-4,-1,-6,-2
139363,3,1,-2,-3,-5,0,4,-3
139415,-1,2,1,-1,-2,-1,-1,3
139469,-2,1,-2,1,1,0,-6,-6
139521,5,5,-2,0,1,-1,-1,0
139580,1,-2,-2,-2,-2,-4,-1,0
139626,-3,-4,-2,-2,0,2,4,3
139685,-16,-2,-3,-2,-2,0,-1,-10
139746,-18,-8,-3,-3,0,-2,3,-7
139806,10,5,0,-1,-1,-1,-1,8
139858,1,-2,0,-1,-2,-1,1,0
139920,2,-1,0,0,1,-1,-3,-1
139984,-4,0,1,-1,-1,-1,-2,-4
140050,-1,0,2,-1,0,0,-1,0
140110,-1,-1,0,-2,2,1,-2,1
140158,0,-4,-2,-1,0,1,-4,-14
140228,9,0,1,-1,-1,-5,-4,2
140286,6,-3,-2,-2,-2,-1,3,3
140346,6,0,0,-2,-1,1,0,0
140398,-1,1,2,2,-2,-1,-1,-2
140461,-2,0,-3,-4,-6,-4,-6,-2
140525,9,3,1,0,0,0,-1,-4
140588,-9,-4,1,-1,0,-2,-1,-3
140649,-5,-2,-3,-1,0,-2,-1,-4
140698,-1,-2,-5,-1,-1,2,6,6
140750,5,1,-2,-4,-3,0,1,1
140803,14,-2,-4,-2,-3,-2,-3,4
140855,0,-2,-2,-3,-3,-2,-1,2
140909,2,-2,-2,-1,0,0,1,-2
140965,8,13,4,1,-2,-1,0,-2
141037,8,3,-1,0,-2,2,7,9
141092,6,4,-3,-3,-16,-5,-4,-10
141141,-2,-1,1,-4,-11,0,2,-2
141214,-3,6,5,-2,-3,0,1,-2
141269,8,-4,-4,0,1,-1,2,-1
141331,-11,-3,2,1,-8,0,0,-5
141390,6,-15,-7,1,0,-5,-9,-9
141446,2,4,3,0,0,3,4,-3
141505,0,1,-2,-4,-5,1,4,-4
141567,-11,2,3,1,1,2,8,13
141623,-17,-13,-5,-3,1,-3,-17,-3
141672,-2,-11,-4,-1,-1,-1,3,5
141724,-11,3,8,2,7,4,10,-1
141786,-31,-4,1,0,-2,-2,-2,-5
141846,9,4,-3,-1,2,0,-1,-7
141897,5,3,0,1,-2,-2,0,2
141952,13,3,3,-2,0,-2,1,1
142007,11,-3,-1,-1,-5,-3,-3,-2
142072,2,1,0,-1,-6,-3,-1,-3
142132,-28,-2,-3,-2,4,2,-2,-2
142183,-15,-2,-1,-2,3,0,5,3
142246,6,3,-3,0,-5,-2,2,8
142310,2,4,1,0,-3,-3,-8,3
142371,-7,1,-2,-3,-6,-3,-1,1
142443,-4,-4,0,-2,1,2,2,4
142492,0,-1,-2,1,1,-1,-4,-8
142548,-12,-5,1,1,0,2,4,2
142614,-2,0,-4,7,28,4,-14,-11
142672,13,-9,-7,-3,-21,-3,0,6
142732,-1,6,4,-3,-7,-3,-5,-2
142787,5,10,5,0,27,-1,0,-10
142835,-2,-7,-5,2,37,1,4,12
142888,-2,-9,-5,-2,4,0,-3,-1
142941,4,-5,-2,-2,-3,-2,0,-1
142994,-17,0,-2,-2,1,-2,3,3
143052,-7,-3,-2,-2,4,-3,-5,-15
143114,-11,-11,-3,0,-6,-3,0,1
143173,4,-2,-1,2,4,1,8,25
143228,0,-5,-1,2,3,-1,5,1
143292,6,1,0,2,-3,-3,-6,-3
143354,8,4,-3,-5,-10,-5,-3,-5
143414,-1,-2,-1,-1,-2,0,-4,-2
143465,0,-3,-2,-1,0,0,0,-1
143517,4,-3,-4,2,0,-3,-6,2
143571,2,-5,-3,0,0,1,-1,-3
143623,-4,2,1,2,9,2,10,14
143677,-1,-3,-1,-1,13,-5,-11,2
143737,-1,2,-1,-2,-4,-3,-3,3
143796,3,0,-1,-2,1,-1,4,-1
143850,-1,2,-1,0,6,1,4,8
143901,1,-1,-3,-3,0,-1,4,9
143954,1,2,-1,-1,-3,0,3,7
144005,-11,-1,3,1,2,1,7,-3
144057,-2,-2,-1,-4,-5,-2,-3,-6
144111,-1,4,1,-2,1,1,4,-7
144163,-1,-2,-4,-3,-1,2,5,-4
144216,-1,0,-1,0,-2,1,3,6
144274,-2,-3,-2,-2,-1,-2,-4,-9
144338,-2,-3,-5,-4,-6,-4,-6,-12
144402,-6,-2,3,1,-1,-1,-2,-3
144447,-1,-1,0,0,-1,-2,1,9
144502,-12,-4,1,0,0,0,-3,-1
144555,4,-3,-5,-2,-2,-3,1,-2
144609,1,3,-1,1,-1,2,-3,3
144658,-2,-2,-2,-1,-2,-6,-13,-7
144715,2,0,0,0,-1,-2,-2,0
144786,-2,1,1,0,-1,-2,-3,2
144841,-1,1,2,-1,-6,-1,4,2
144901,-1,3,4,1,1,-3,-1,11
144956,0,-2,-2,-1,-1,0,0,1
145002,1,2,-1,1,-3,0,0,3
145056,-1,-1,0,-2,-3,0,-2,-2
145109,-8,-3,-3,0,-3,-5,-10,-6
145161,0,2,0,-3,-2,-2,0,-3
145218,7,-4,-1,-2,-1,-2,-2,2
145265,6,-2,-3,-1,-2,-2,2,-2
145321,-12,-3,-4,-2,-1,-4,-2,8
145376,2,1,0,-1,-3,-2,-5,3
145434,0,-1,1,0,-1,1,0,-4
145483,-1,-4,0,-1,0,-1,-1,-3
145536,-3,0,2,0,-1,-1,-3,1
145589,-1,-6,-3,-3,-6,-1,-1,-28
145642,1,-4,-4,2,-1,2,-4,-5
145699,2,6,1,-2,-2,0,0,-5
145746,-21,-1,-1,0,3,1,2,5
145800,12,2,-1,0,-1,-3,-6,-2
145854,-10,3,1,-2,-1,-2,-2,4
145910,9,0,-1,-2,-1,-1,-4,2
145955,8,2,1,1,3,-1,2,7
146012,-4,-6,-1,-1,-2,0,1,3
146062,-1,4,4,-1,-2,0,-2,4
146122,7,13,7,3,0,-1,5,12
146182,-7,0,2,1,4,0,-7,-1
146235,0,-3,-3,-2,1,-3,0,8
146287,1,-2,1,1,-1,-2,-6,1
146345,5,1,-1,-2,1,3,2,-1
146390,0,-2,1,-2,-2,1,-4,-2
146445,2,-3,-1,-1,-2,-3,-6,-14
146499,2,2,0,-1,0,0,2,-1
146563,1,-1,-1,-2,0,-1,-2,6
146625,-2,-4,-1,1,-1,-1,0,-14
146684,-2,-9,-5,-1,-2,1,4,3
146737,5,2,-1,-2,-1,-2,-2,0
146799,1,-4,-4,-4,-1,-3,-3,-6
146863,2,-9,-5,-3,-1,-2,-4,-1
146925,-1,2,1,0,0,-5,1,-5
146986,-1,-6,-1,-1,0,-1,-2,-5
147040,-6,-3,0,1,-2,0,-4,-2
147106,-5,-7,-2,1,-1,-1,-4,-12
147166,4,3,4,0,0,0,2,5
147226,-4,1,1,0,0,0,2,1
147286,-3,-4,0,2,-1,-2,-1,0
147339,-1,-3,-5,-3,-2,-1,4,0
147390,0,1,-1,-3,-2,0,-1,1
147441,-5,3,-2,-4,-2,-1,0,2
147496,-8,-10,-5,-4,-2,-3,6,-3
147556,-4,-1,1,-1,2,-1,-1,-14
147607,-3,-6,-2,-1,-2,1,2,1
147667,-2,3,0,-3,-2,-1,-1,-6
147718,0,1,-2,-3,-2,1,3,-9
147782,-3,-4,-1,-1,1,-1,-2,-2
147845,-1,2,1,-2,0,-1,0,-5
147911,3,2,2,0,-1,-5,-4,-4
147971,-5,2,2,1,0,-2,-1,-6
148020,0,-5,-4,-2,0,0,-2,-6
148073,0,-3,-3,-3,-3,0,-2,4
148125,-5,1,2,1,2,-4,-4,-7
148179,-1,-2,-3,-1,1,2,1,2
148231,7,6,1,-1,-2,-1,-2,-7
148290,-1,1,1,0,4,3,-1,2
148350,3,-5,-3,0,1,2,0,2
148410,0,-5,-3,-2,-1,-2,-8,-1
148464,-2,-1,0,1,0,-1,4,2
148525,-1,-1,-1,-1,-2,1,-4,-5
148589,-10,-8,-2,0,-1,-1,-2,-2
148651,-1,-3,-2,0,-1,-1,-2,-3
148710,1,4,2,-1,-3,-3,-3,-2
148762,1,1,1,-2,-2,0,-1,-4
148824,-3,-2,-1,0,-2,-3,-5,2
148889,-7,-8,-1,-2,-1,0,-1,2
148950,3,2,-2,0,-1,0,0,-1
149009,-5,-2,-5,0,-1,-2,-5,-5
149063,1,0,-3,-1,-1,1,1,1
149127,-13,-8,1,0,0,-1,-3,9
149189,-3,-3,-3,-2,-5,1,1,-5
149250,-1,1,3,-1,1,-1,-3,-10
149301,0,-3,-3,-2,0,-1,1,4
149354,2,2,0,-1,-3,-2,2,12
149411,3,-4,-2,-1,-2,-1,3,-8
149469,-8,-7,2,0,2,-2,-1,-5
149523,-2,17,14,2,0,0,-7,-5
149574,-8,1,4,1,1,-3,-12,0
149634,1,4,0,2,5,-1,-2,-6
149693,0,-4,0,1,2,1,-3,-3
149744,11,-8,-2,0,4,-3,-3,3
149808,-8,-6,-4,-2,-4,-1,-1,-5
149870,-5,-5,-5,-5,-11,-3,-4,-1
149934,-4,-6,-3,-2,-1,0,0,0
149993,1,-4,-4,-2,4,0,0,-2
150047,-5,-12,-3,-2,-8,-1,2,0
150108,5,7,1,1,-2,-1,-4,-1
150159,-10,-9,-2,-3,18,-4,-2,0
150215,7,8,2,-2,-6,1,3,-3
150264,8,-5,-6,-6,-14,-5,0,0
150315,14,-3,-6,-6,-13,-2,-1,11
150373,12,-2,0,-3,31,-3,0,3
150435,-2,-1,-1,0,-10,2,6,1
150495,-12,-12,0,0,-7,-7,3,10
150547,-33,6,4,-2,-19,5,3,4
150610,-49,12,6,-5,-55,-5,3,-5
150674,16,-11,-4,-8,-32,-11,-4,-4
150737,-3,-9,-2,-3,-46,-7,-8,-10
150795,14,0,-5,-1,-21,-2,-4,-1
150847,-10,-14,-5,-4,1,-2,-2,-10
150912,-9,-5,0,2,25,4,1,10
150973,-29,-4,-1,-2,-5,-1,-3,-4
151037,-2,-5,-1,-3,-2,-2,-1,-1
151101,-9,-4,0,1,6,3,1,7
151157,-3,-1,1,2,0,-1,-1,-5
151211,4,2,0,1,4,-2,-4,0
151276,1,5,0,-1,-6,-2,3,3
151336,-4,-2,1,0,-1,-2,-2,-4
151396,8,1,0,-1,-2,-3,0,9
151449,-3,-10,-5,-3,-2,-1,0,-4
151505,0,-1,2,2,0,2,1,8
151551,1,1,-3,0,-3,-3,-3,0
151607,-5,4,7,3,2,-1,4,-3
151657,4,2,2,1,-1,0,1,3
151719,-3,-6,-3,-2,-3,-1,-1,-4
151777,10,6,0,-1,0,3,2,-8
151831,7,-6,-1,-1,-1,0,3,2
151891,-8,-8,-6,-2,-3,-2,-4,-12
151944,3,7,3,1,0,1,3,4
151995,9,6,1,0,-1,-1,1,-3
152047,6,-1,-2,-1,-2,-4,1,-4
152102,0,-6,-2,-3,-2,-3,-5,0
152161,2,3,-1,-1,-2,0,-2,-2
152211,-6,16,6,0,-2,-1,-2,-7
152272,-15,-3,0,-3,0,-1,-1,-2
152324,8,-1,-2,1,0,0,-2,2
152377,-9,-2,4,0,-1,-4,-6,2
152432,-5,-2,-2,-2,-1,0,0,-11
152483,4,-11,-6,0,0,1,-1,-1
152542,-2,4,4,0,1,0,-1,-3
152596,2,0,1,1,0,2,2,17
152647,-5,-3,0,-1,-1,0,3,3
152701,-2,-11,-5,-3,-2,-4,-7,-28
152752,13,0,-3,0,-1,0,5,-2
152806,3,-2,-2,-1,-2,2,1,6
152857,-4,0,-2,-2,-3,-1,-4,-7
152918,-8,-3,-5,-4,-1,-1,0,-15
152968,1,-4,-3,-3,-3,-3,-12,-5
153023,-2,-1,0,-1,0,0,2,-6
153079,6,9,4,-1,1,2,1,-5
153142,5,0,-3,-3,-1,-1,14,7
153203,0,1,1,0,-3,-1,-3,3
153255,-4,-9,-6,-2,0,-1,-2,5
153307,7,-3,-3,0,0,1,0,5
153359,13,5,-1,1,-1,2,9,10
153418,5,10,1,-1,0,1,3,1
153465,5,0,-4,-3,-1,-3,-1,0
153516,6,-5,-4,-2,-2,-1,-3,-1
153571,3,0,-2,-1,-3,1,-2,3
153623,6,9,4,0,0,2,2,-2
153682,6,2,0,0,-1,-3,2,-4
153743,6,3,-3,-3,-1,-3,-2,-1
153809,2,-1,1,-1,0,-1,-4,0
153856,3,-2,-1,-2,-2,-1,-1,4
153907,3,-3,-6,-2,0,2,6,5
153960,5,-3,-5,-3,-5,-1,0,-4
154014,-1,2,-1,2,0,-1,-1,4
154069,-6,-9,-4,-3,0,1,0,-2
154128,-3,-5,2,0,2,3,4,-3
154185,0,2,-4,-2,-5,-2,-4,-6
154238,-5,-4,-2,0,1,-1,3,9
154301,4,7,3,0,-3,-1,-2,5
154363,-16,1,3,-3,-3,-1,0,-5
154425,-5,0,-1,1,0,-1,5,10
154486,-2,-9,-10,-2,-2,-3,3,2
154545,-3,0,-2,-1,0,1,2,1
154599,-4,5,7,0,3,2,1,5
154662,-5,-4,-1,-2,-3,-5,-6,-3
154726,2,7,2,0,-2,1,2,1
154785,-5,-4,-2,2,0,-3,-2,1
154838,8,-6,-6,-3,-1,0,-3,0
154890,-2,-2,-2,-2,1,2,6,8
154944,-1,-7,-5,-3,-1,-3,-3,-4
154994,-1,-2,-1,-2,-4,0,-1,-4
155048,-7,-1,6,0,-2,2,0,0
155105,-1,1,0,0,-3,1,3,0
155167,2,2,-1,-1,-2,-1,-1,0
155231,-9,0,-2,0,1,-1,1,-2
155280,-11,-9,-1,2,1,0,-2,-5
155342,-3,-2,0,-1,-1,0,-1,-3
155409,5,2,0,0,0,1,1,-3
155473,-3,-4,-4,-1,-1,-3,-2,-13
155532,-3,-4,-3,0,-2,-1,2,-1
155580,2,0,-1,0,3,0,2,4
155644,-3,-6,-4,-2,0,0,0,2
155709,-1,0,-2,-1,0,2,3,2
155768,5,3,-1,-1,-2,-1,0,1
155828,-3,-2,-3,-1,0,-3,-3,1
155886,-1,-4,-3,-2,-3,-1,-8,-7
155933,4,-1,-4,-3,-1,0,3,8
155987,-5,-8,-2,-1,-2,-1,0,-3
156041,-7,0,0,-1,2,3,1,-5
156096,9,1,-5,-2,-2,0,1,3
156154,0,-3,-1,-1,-2,1,1,6
156212,-1,2,0,1,-3,1,-1,0
156261,-9,0,-3,0,0,-2,-3,-6
156330,-3,0,-1,-3,-3,-3,-3,-5
156390,2,-7,-6,-3,-2,-2,-6,-2
156453,-1,1,-1,-3,0,-2,-3,-5
156511,-1,1,-1,0,1,-2,1,-6
156564,4,-5,-4,0,-1,1,5,6
156627,-4,-9,-4,-4,-1,1,2,5
156679,5,2,-2,0,-2,-2,-2,0
156728,2,-3,-1,1,1,1,-2,-3
156784,-3,-1,-1,0,1,-4,-5,-4
156854,1,8,1,0,-1,-2,1,5
156909,-4,0,-2,0,-1,0,1,3
156960,3,-2,-3,-2,-3,0,2,-2
157013,-8,-3,-2,-2,0,-1,-2,-6
157068,-2,-3,-2,-3,-3,-7,-5,-3
157131,5,-7,-8,0,-2,0,1,3
157203,8,8,1,1,-1,0,10,26
157258,3,4,6,0,0,-1,1,-8
157317,-1,-2,-1,-1,-2,-3,-7,0
157367,-4,-1,-2,-2,1,-1,-3,-1
157436,5,4,1,-2,-2,-3,0,-6
157493,13,-2,1,0,-2,-3,2,0
157555,10,7,2,0,1,0,2,5
157611,-15,-1,-4,-2,-2,-5,-9,-3
157658,2,1,-3,-4,-1,-1,-4,-8
157711,1,2,3,-3,-3,-1,3,2
157771,3,-4,2,1,2,0,1,1
157826,-4,-1,3,2,2,-1,0,2
157876,6,1,0,0,0,-1,-1,-7
157936,0,-1,1,-2,-2,-3,-3,-10
157996,3,2,-2,0,-1,-2,0,-2
158048,7,3,-2,-4,-3,2,5,-6
158112,5,-12,-3,-1,-4,-4,-6,2
158177,-3,-10,-6,-2,2,2,2,4
158236,-4,-11,-6,-2,0,1,-3,-6
158286,-3,-4,-2,-1,1,-1,1,1
158349,3,-2,-5,-2,-1,1,10,14
158412,-2,-1,0,1,-2,0,2,1
158476,6,-2,2,-1,-2,-1,11,21
158536,-15,-4,0,-1,1,1,-4,-9
158602,-5,-5,-4,-2,-1,0,1,0
158649,0,1,0,-2,0,0,-2,-4
158700,-1,-7,-5,1,1,1,-1,0
158753,-9,-1,4,1,0,0,7,13
158809,-5,0,0,0,-1,-2,-2,5
158861,-2,2,-1,-3,-2,-1,-6,-18
158919,-5,0,-1,-1,0,1,-1,-2
158980,0,-7,-3,-3,-1,-3,7,-1
159031,2,3,-1,1,0,-2,-2,-1
159095,1,-4,-4,2,-2,1,-4,1
159158,-1,-1,-5,-2,-3,-1,1,2
159219,-4,-7,-7,-2,-3,0,-1,-3
159279,-6,-7,-5,-4,-3,-2,0,-9
159331,3,5,0,0,-1,2,0,4
159395,3,0,-2,-2,1,-2,-1,5
159459,3,-5,-1,0,0,-3,-3,3
159520,4,-4,-3,-1,-2,-4,2,4
159584,0,-1,1,0,-2,0,-3,-6
159639,4,2,0,-3,-3,2,4,10
159696,-15,-15,-4,-2,-2,-2,0,-7
159759,-7,-11,-2,2,4,-1,-3,0
159819,1,-1,-5,1,1,2,-3,15
159870,6,8,0,0,2,0,0,-2
159923,4,1,-3,-1,-1,0,9,5
159979,2,-9,-6,-1,-2,-3,-5,-4
160027,-1,2,4,-2,-2,-1,-5,-4
160082,-3,-1,5,1,1,0,0,4
160140,2,-1,-4,1,3,0,0,2
160201,-1,-9,-6,-2,-2,-2,-10,-4
160261,-1,2,-1,0,2,2,-1,3
160314,1,1,1,1,4,3,10,20
160367,-7,-4,-2,-2,-2,0,0,-4
160422,-5,-2,0,-2,-3,2,-1,0
160470,-2,9,1,-1,0,-1,-5,-2
160524,6,-7,-3,-1,-3,-1,-1,0
160576,-1,-2,-2,-2,-3,-3,-4,-15
160630,-5,-2,0,2,0,-3,-8,-5
160681,-5,-5,-2,-2,-2,0,-3,-1
160741,0,-3,-3,2,0,-2,-1,-4
160802,4,14,7,1,-4,-1,3,0
160854,0,3,2,-2,-3,-1,1,0
160905,-1,0,1,2,1,1,1,1
160958,-3,-7,-5,-2,1,0,0,2
161012,-5,-1,-2,-2,-2,-1,1,1
161065,5,7,-3,-1,1,0,-1,-7
161119,-1,-5,-3,0,0,1,1,6
161182,-9,-10,-3,-3,-2,-2,-10,-15
161243,-6,-6,-4,-2,2,-1,0,5
161297,-2,-6,-2,0,0,0,1,-2
161347,-4,-8,-3,0,0,-3,-4,-1
161401,0,-4,-3,-2,0,1,6,1
161453,-9,-6,0,2,3,2,5,-3
161507,-10,-12,-6,0,-4,-1,6,11
161563,-5,-5,1,-3,-6,0,1,3
161625,-6,-8,-2,-1,-4,1,4,-5
161687,0,2,3,1,0,-3,-5,-1
161747,-1,3,2,2,3,-1,0,5
161806,-5,-4,-1,0,0,-1,2,4
161861,-14,-12,4,0,0,1,2,3
161914,-1,-3,-4,-2,-1,-1,-5,-9
161964,-3,5,6,2,0,1,-1,-2
162020,-11,9,7,-1,-1,1,1,-3
162083,-2,4,1,-2,0,0,2,-2
162146,4,5,-1,0,-3,-2,-12,-3
162204,1,4,0,0,1,-4,-3,-6
162258,-4,-1,-2,0,0,2,2,6
162310,0,0,5,0,-2,0,2,3
162370,1,2,-1,-4,-2,2,4,8
162430,2,12,5,1,1,1,3,4
162491,8,3,-2,-4,-4,-1,1,7
162544,2,-6,-3,0,-3,-1,-6,-8
162604,1,-2,-2,-2,-3,-1,-8,-8
162670,-1,-9,-6,-3,-1,1,-1,-2
162734,-5,-3,-2,1,-2,-5,-4,-4
162793,3,-2,-2,-3,-1,1,5,4
162851,-2,-6,-2,-4,-3,-1,0,0
162909,3,-9,-6,-1,-1,-4,0,2
162968,1,7,5,1,-2,-2,-2,-1
163030,2,-8,-5,-2,-2,-2,-5,-11
163090,-1,-5,-4,1,2,-2,0,1
163144,3,0,-4,0,1,-1,-1,-5
163194,3,4,2,1,1,-3,-3,2
163249,2,2,1,0,0,0,-8,3
163300,4,-3,-1,-1,-1,-3,2,-1
163356,0,-5,-8,0,-2,1,-2,3
163412,-4,8,7,-2,-3,-4,-12,-14
163474,0,3,0,-1,-1,3,4,-2
163533,1,-4,-1,0,2,1,0,1
163584,-4,-6,-3,-2,0,-4,-2,-12
163654,2,2,-1,-1,-3,-5,-4,-2
163711,0,1,-3,-1,0,1,0,-9
163773,0,3,-4,-3,-3,-2,2,-2
163832,-4,-3,0,-1,0,1,4,0
163885,-1,-8,-3,-1,1,0,1,0
163951,-5,-1,3,2,2,-3,-13,-1
164012,1,-4,-3,-2,-4,-2,1,-4
164076,-2,-3,-2,-3,-2,-3,0,-2
164122,-7,-6,-1,-1,0,0,0,0
164186,-7,2,5,1,1,-2,3,-2
164249,0,-4,-1,0,0,1,-3,-11
164312,6,-8,-6,-3,-1,-4,-14,-8
164373,3,-8,-5,-2,-1,-3,-1,4
164432,12,-1,-2,-1,-1,-1,15,25
164486,-10,-6,1,2,2,-3,-11,-8
164535,-1,13,6,0,-2,-2,-2,-6
164588,-12,-3,-1,-2,-2,-4,-9,-4
164642,-2,2,5,1,-1,-3,-5,-1
164695,12,4,-2,-2,0,-2,0,-1
164752,-8,-6,1,-3,-5,-7,-15,4
164815,-14,-4,7,1,2,-1,-5,4
164874,0,2,1,-1,-1,-3,-7,11
164926,1,-5,-1,1,1,1,-1,-3
164990,1,-5,-3,-1,1,0,0,-1
165052,-2,9,4,-1,-2,-1,5,5
165114,-4,1,0,0,-2,-2,-2,-3
165175,5,-1,-2,-1,-4,-2,-2,-5
165226,4,4,0,1,2,-1,4,8
165279,15,7,-5,-3,-6,-6,-5,-1
165332,-4,-9,-4,-5,-6,-5,-8,-12
165386,-2,-6,-1,1,-1,-4,-15,4
165437,5,13,0,-2,-2,2,2,-1
165496,-5,-4,-1,-2,-1,-2,-1,-3
165557,5,-1,-5,-4,0,-4,-3,-7
165619,-5,1,3,-1,0,2,2,0
165669,8,-4,-3,-2,0,-4,-5,-1
165732,-2,-1,-1,-2,-3,-2,0,-15
165797,0,3,2,1,-2,-1,0,3
165857,-5,-7,-3,-1,-1,-1,2,-2
165918,4,1,1,2,0,-3,-3,-1
165970,-4,-8,-3,-2,1,2,0,-6
166034,-11,2,5,2,1,1,3,9
166097,-4,-4,-2,-1,-1,-1,-4,-4
166157,4,-6,-3,-2,-3,-5,-6,1
166217,-10,-6,1,0,1,1,2,-8
166270,2,-3,-5,-3,-4,-3,-4,1
166323,9,-1,-5,-3,-4,-5,-12,-3
166376,-9,-8,-5,-2,-3,-3,-1,-12
166427,-4,-6,-1,0,0,2,4,1
166480,0,-4,-2,-2,-1,-1,-2,5
166538,0,-3,-5,-1,1,-1,5,-4
166602,-9,-7,-2,0,-1,-5,-4,-11
166660,-1,5,2,-2,0,1,-4,-1
166715,2,-4,-4,-1,-2,-1,-1,6
166777,4,0,-3,0,0,3,1,2
166843,-2,-7,-4,0,2,-5,-14,6
166901,1,0,0,0,0,-4,-5,-1
166966,-5,1,3,-3,-1,-2,-3,-19
167017,2,-5,-2,0,0,0,-6,5
167078,-5,-4,-3,-1,0,-1,0,-2
167143,1,-3,-6,-3,-2,-5,-16,-21
167201,8,3,-3,-1,-4,-4,-10,1
167260,6,1,0,0,0,-6,-16,-1
167313,2,5,-3,-1,-4,-4,-1,-3
167365,-5,-5,0,-5,-7,-3,-7,6
167416,-8,-6,-1,0,2,3,3,-1
167469,2,1,0,-2,1,0,7,15
167528,-3,-2,0,-1,-1,-1,1,5
167587,5,-4,-2,-2,-3,-2,-2,5
167647,1,-6,-4,0,2,0,1,-11
167693,-6,16,2,1,-2,0,-3,-6
167756,-2,-2,0,1,-1,-3,-8,-3
167823,-9,-1,6,-2,-2,-1,-1,-2
167882,-4,0,-1,1,0,0,2,0
167943,6,10,2,-1,1,0,-2,5
168003,-12,-13,-6,-3,2,3,0,1
168059,0,-1,-2,-2,-3,-4,-1,-3
168106,4,3,-3,1,-1,-1,-3,-10
168160,-1,-4,-4,-4,-2,1,3,-1
168210,-5,-1,2,0,-1,-3,-4,4
168264,0,17,8,-1,-3,-1,0,-3
168323,2,0,-3,-1,0,-4,-1,-6
168385,-20,-7,10,3,1,-1,-3,-4
168434,0,1,-2,0,-1,-2,-2,-10
168489,-2,-6,-5,-3,-3,-1,-3,-11
168547,-1,0,1,-2,-3,0,4,4
168593,-6,-1,1,-1,0,2,0,-5
168649,-2,4,1,1,0,-1,-3,-1
168699,5,4,-2,2,-1,-3,-2,-10
168755,-4,-7,-2,-2,-3,0,0,2
168804,-2,-1,-1,0,-1,-1,-7,-5
168863,2,-1,-3,-3,-5,-2,-5,-11
168932,-5,-5,-1,0,-2,-3,-3,-2
168988,-6,-7,-5,0,-3,-3,-6,-20
169037,-1,0,0,0,3,-1,2,2
169089,-5,0,0,-1,-2,-1,2,0
169142,4,2,1,-1,0,-3,0,8
169195,2,1,-4,0,0,-3,2,-5
169248,-3,-2,-3,-3,-4,-3,2,-1
169308,-3,-1,-6,-2,0,-1,-2,-3
169369,-1,-4,-6,-1,-4,0,-8,-2
169427,-5,5,3,1,0,-1,1,3
169481,7,0,-2,-1,-3,-2,-9,-4
169534,2,-3,-4,-3,2,-1,2,1
169585,-2,-3,-1,2,1,-2,-7,2
169636,-1,-2,-3,-2,-1,0,-2,-3
169695,-3,4,0,-2,-3,-3,-3,-6
169741,4,2,1,2,0,-1,-3,5
169794,-2,-3,0,0,-1,-1,3,2
169848,-1,-7,-4,-3,-1,1,1,-1
169906,-1,2,1,-2,-1,0,1,-2
169967,-12,5,4,3,2,-1,-2,-7
170028,-2,0,-1,0,0,1,-1,0
170080,8,18,2,0,-2,-1,2,0
170132,-3,1,-1,-2,-3,1,1,-2
170190,-8,-3,-2,-2,0,-1,-4,-10
170241,-4,0,-1,0,0,-1,-3,0
170291,-3,-3,-3,0,-1,-1,1,-3
170350,-4,2,3,-3,-3,-1,0,-15
170410,0,-2,-1,-1,-4,-2,0,-7
170474,0,-1,0,0,0,-1,-2,3
170521,-2,-1,0,1,-1,-3,-2,-3
170584,0,-4,-1,-1,0,1,-3,-2
170648,4,1,-1,-2,1,-3,-4,-8
170712,-4,-2,1,-2,1,1,2,4
170770,2,1,-1,-3,0,0,2,-1
170825,0,0,0,-3,-2,-1,0,-5
170887,4,0,-1,-2,-1,-2,-2,0
170951,-1,-5,-2,-1,-3,1,-3,-7
171009,1,-1,-1,-1,-1,0,-4,1
171063,2,-3,-4,-2,-3,-3,-6,-6
171117,-1,-1,-1,0,4,-1,-1,0
171168,2,-2,-4,-1,-16,1,5,6
171221,-2,0,-1,-3,-10,0,5,0
171273,-5,0,0,0,-4,-2,-3,-3
171333,-3,-2,0,-1,-4,-3,-6,-3
171395,2,-5,-3,-1,-1,1,0,-3
171454,0,-2,-2,0,2,-1,-4,5
171510,-1,4,3,0,-1,-1,-1,-3
171572,0,-5,-4,-3,-7,-1,3,3
171628,-2,-3,-3,-3,-7,-1,2,3
171680,4,-4,-4,-1,1,-2,-4,-6
171730,0,-5,-2,0,1,-1,2,0
171789,2,-1,-7,-3,-2,1,1,-9
171850,1,1,1,-1,1,-3,-1,2
171903,4,3,0,1,-2,-2,0,3
171956,-3,1,1,0,-1,-1,-1,-5
172014,-2,-3,-2,-1,-1,-1,-3,-5
172075,3,0,-3,-1,-3,-2,6,-1
172137,-6,1,0,-3,-3,-2,-8,-7
172188,-1,-1,-1,-1,-1,-1,0,-1
172248,-4,3,2,0,0,-1,-4,-5
172312,8,8,1,-1,-3,-3,1,-1
172376,-10,-8,-4,-2,-4,-2,4,-1
172435,-6,-5,-3,1,-1,1,-1,-1
172487,-5,2,2,-1,0,-1,1,6
172539,-2,2,1,0,0,1,2,-4
172593,1,-7,-3,-1,-1,-4,-9,-7
172646,-4,1,-3,-1,-1,1,4,0
172703,-1,1,-1,0,-2,0,-1,0
172761,-9,-5,-2,0,-1,-1,-4,-12
172818,2,3,3,0,2,-2,-2,5
172881,0,-4,-4,-1,0,-2,-11,7
172938,2,-6,-4,-4,0,-1,0,6
172991,-9,-3,-1,0,0,3,4,10
173057,0,-1,2,0,0,1,0,5
173118,-5,-2,-1,0,1,3,3,2
173179,-10,0,-1,1,2,3,8,21
173229,-3,-4,-1,-1,1,-2,-2,13
173293,-2,-3,-3,-1,-1,-2,-1,-2
173356,0,-8,-5,-4,-4,-1,-4,2
173419,1,-4,-1,1,-2,2,0,-1
173479,2,-3,1,-1,-3,3,7,23
173532,5,-5,-3,1,2,4,4,-1
173594,6,-3,-3,-1,1,-1,-5,3
173658,-7,-3,-2,-1,-2,1,5,-7
173720,-5,-7,-1,2,-1,-1,-4,1
173778,-1,3,2,1,0,2,-1,7
173831,1,-2,-2,-2,-2,0,-2,-2
173884,-1,6,1,1,0,0,-1,-8
173938,1,-4,0,0,1,-3,-3,-5
173989,-1,-3,-2,-2,-1,3,0,-2
174041,-2,-3,-3,-3,-2,-3,-6,-1
174098,-2,-5,-4,-2,-3,0,0,-11
174162,-4,1,2,0,0,-1,-7,1
174223,1,-8,-3,-3,0,1,-1,1
174281,7,0,-2,-1,-1,1,17,34
174335,4,-3,-4,-2,-3,2,11,4
174385,1,1,-3,-2,0,0,2,-2
174443,3,-3,-3,-1,-1,0,-1,2
174492,1,3,0,0,0,0,-1,-4
174543,2,-4,-5,-2,-4,-1,2,-2
174594,-4,-6,-1,0,1,0,1,-4
174651,1,5,4,-2,0,-1,-4,-6
174701,2,-3,-2,2,0,-1,-6,10
174761,4,-9,-6,-2,-2,-1,0,-1
174822,2,-1,-2,-2,-1,-1,8,9
174876,-1,-1,2,-1,-3,-2,7,15
174924,-2,2,2,-1,-5,-4,-7,-2
174978,-5,-2,-1,-2,-1,0,2,0
175031,0,-2,0,1,-1,1,6,3
175083,-12,3,4,0,0,-2,-3,3
175143,2,1,-2,-3,-4,-3,-1,0
175204,4,3,4,2,3,0,3,6
175263,-2,3,-2,2,-1,-1,0,-6
175316,4,-2,0,0,0,1,-5,-1
175379,-2,0,0,-1,-2,-3,5,5
175443,1,-4,-5,-1,-2,-1,-1,-3
175504,2,3,2,0,0,-1,4,11
175571,-2,-2,-1,-1,1,1,0,5
175625,-6,-2,0,-1,-2,-1,3,-1
175679,-2,2,1,-3,-3,-1,1,-5
175743,-7,-4,-1,-1,0,2,5,-5
175796,1,-6,-2,0,-2,-2,-3,-2
175847,1,1,0,-1,-2,0,-1,1
175904,0,-5,-4,-1,-3,-1,3,-3
175963,3,2,0,1,2,1,0,-6
176013,-4,-6,-4,-4,-2,-2,2,-19
176065,-1,-2,-1,-1,-3,4,3,-6
176124,-3,-7,-5,-1,-1,-3,-4,-3
176185,-9,1,1,-1,-3,-4,-13,-23
176236,1,-5,-4,-3,-1,-1,6,-6
176290,-2,-4,-3,-1,-1,-6,-11,-6
176344,7,4,-2,-2,-3,-5,-4,-15
176395,-6,0,0,-3,-3,-2,-11,-20
176453,-7,-3,3,3,11,3,9,6
176511,-9,8,3,-3,-1,-2,5,-1
176568,-15,-6,-3,-1,2,-1,-3,-3
176629,-1,-7,-3,-2,-7,-5,-6,-18
176683,6,-3,-3,0,2,-4,-6,-4
176745,6,-1,1,1,1,-2,-3,0
176809,1,-2,1,-2,-2,-2,-2,0
176868,-4,8,1,-3,-2,1,-1,-5
176920,3,-7,-4,-2,0,-1,1,2
176973,6,0,-3,-3,-1,0,0,0
177026,-4,-4,-1,-2,-1,-3,-5,-15
177080,-8,-6,-4,-3,-1,-1,-1,-2
177130,1,1,-3,-1,-4,0,2,-4
177184,-4,-4,-3,-3,-1,0,3,-1
177235,2,-3,0,-2,0,1,6,0
177288,0,-6,-3,-1,-2,-2,-3,-7
177347,1,2,-1,0,-1,-1,-1,-6
177408,0,-6,0,0,1,0,1,3
177468,7,2,-1,1,-1,-1,2,4
177522,-4,-5,-4,-2,1,0,-4,-4
177572,-5,-4,-2,-1,0,0,-1,2
177625,-2,-4,-1,-1,-1,-1,-4,-2
177684,-9,7,7,2,-1,2,10,17
177733,4,-1,-2,1,0,-3,-11,-5
177791,-13,-1,0,0,-2,-1,2,-3
177852,-5,-6,0,-2,-1,1,-1,-1
177905,1,-5,-3,-1,3,3,8,-1
177955,5,6,4,-1,-2,-2,-4,3
178008,7,7,2,-2,-2,-4,-7,-5
178062,1,3,0,0,0,-2,-7,0
178114,2,-5,-4,-1,-2,0,3,0
178167,-1,3,2,0,1,-2,5,0
178219,2,3,0,0,0,2,4,12
178273,10,13,1,-1,-4,-1,-1,2
178333,2,6,-3,-1,-2,0,-1,-1
178391,-1,4,4,-1,2,3,4,16
178453,2,0,-2,0,1,0,0,-6
178508,-1,-3,0,1,-1,0,0,1
178556,-3,-10,-9,-4,-1,0,0,-15
178608,5,-2,0,-1,-1,-2,-5,-5
178662,7,-3,-3,0,2,-2,-4,-2
178719,0,-2,-2,-4,-2,-1,-2,2
178778,0,-1,-1,-2,0,-3,-3,0
178836,2,3,-5,-1,-2,-2,-6,-6
178895,-4,0,1,0,-3,-4,-5,-10
178946,5,1,-6,-2,-1,0,-3,-10
178998,3,-1,-4,-2,-2,-2,-2,-10
179053,-5,2,4,0,0,-1,-6,-10
179106,4,3,-6,-1,-1,-1,2,-3
179157,0,2,-1,-1,-3,-3,3,-18
179207,-3,-7,-3,-1,-1,-1,-3,0
179263,4,4,0,-1,-3,-4,1,-9
179314,5,8,3,-2,-3,-5,-2,0
179374,-9,-4,-1,1,-1,0,-2,0
179434,-6,-5,-3,-1,2,0,-3,2
179494,0,-3,-4,-1,-1,-3,-7,-21
179550,1,-1,-1,-2,-1,0,2,9
179598,7,-6,-4,-2,-2,0,0,2
179650,2,-1,-3,0,1,1,1,9
179704,9,0,-4,-1,-1,-1,-1,5
179757,1,-1,-2,-1,-2,0,4,1
179815,-7,-2,-4,-2,-1,-1,-1,-7
179877,3,0,1,-1,0,2,3,7
179937,-2,-3,-2,-1,0,1,-4,-4
179988,-5,-3,-3,0,0,0,2,1
180052,0,2,0,-3,-4,-4,-4,-16
180113,1,-2,-2,-1,0,-2,-1,-1
180176,2,6,1,0,0,0,2,-4
180237,2,0,-1,1,-4,-7,-15,-1
180290,-2,0,0,0,0,-2,0,1
180354,3,1,1,0,-2,-2,1,4
180416,-8,-6,-2,-2,-2,-2,-1,-13
180476,-11,5,6,0,1,-2,0,-4
180529,-8,0,1,-1,0,-1,5,-27
180580,-1,-5,-3,-2,0,-2,-5,-12
180633,-4,-3,-5,-2,-3,-5,-9,-16
180687,4,6,0,-1,0,-2,-1,-2
180746,4,0,-2,0,-1,-1,-3,-1
180800,9,-1,-3,-2,1,-1,6,13
180860,-8,-5,3,2,-2,2,10,10
180919,1,-1,-2,0,3,1,8,4
180976,-7,-5,-2,-1,1,-1,3,-6
181035,-4,-3,-1,0,4,0,-2,-2
181099,-5,4,4,0,0,2,2,6
181161,4,6,0,1,2,0,-2,3
181221,0,-2,0,0,-1,-1,-1,3
181279,1,3,2,2,1,2,7,6
181333,10,2,0,0,-3,1,0,3
181396,-4,-15,-6,-1,-3,-3,3,-8
181458,-2,-8,-2,0,1,-4,-13,-23
181519,-11,7,2,1,-2,1,6,1
181579,8,7,3,2,-1,-1,4,1
181632,5,4,-9,-5,-3,-2,-6,-3
181683,1,-3,0,-4,-4,-5,-3,5
181735,-12,-10,-1,-1,3,-1,-9,-3
181791,-5,-7,-6,-1,-3,-1,1,-6
181843,-9,1,0,-2,-2,-2,-13,-5
181902,2,5,1,-2,1,-3,-4,-7
181965,-3,-1,1,-2,-2,-1,0,-5
182023,9,6,-3,-1,3,3,7,18
182080,9,5,-1,-1,-4,-3,-3,1
182140,25,3,-9,-4,-9,-6,2,-7
182202,-5,-7,-4,0,-6,1,3,-1
182261,-2,-4,0,0,14,-1,0,1
182316,-26,-7,-1,2,3,0,9,5
182378,-8,-3,-2,2,9,-1,-3,-10
182441,13,-4,-4,-2,-5,-1,-2,2
182503,16,-1,-1,1,24,4,-4,-4
182563,-7,-5,-2,4,16,0,8,0
182617,1,2,-1,-3,6,-3,1,5
182667,2,-3,0,-2,-32,-4,-3,-2
182718,-4,3,-3,1,34,4,-5,-5
182772,-1,-2,-3,0,-17,-3,3,2
182824,-8,1,3,1,-2,0,0,-6
182882,9,0,-2,0,25,-3,5,8
182945,-2,-3,-3,-3,3,0,2,-1
183005,-8,-1,-2,-1,12,0,3,-3
183064,-12,0,3,1,12,-2,-5,-3
183119,-13,-4,2,0,19,0,-2,-2
183183,4,-1,-1,4,48,2,-3,10
183244,15,-2,-4,-2,-15,-2,-2,-3
183304,-1,-4,-7,-3,17,-1,-2,-3
183356,-11,-7,4,-1,-9,0,2,-9
183410,17,17,4,2,14,-1,-2,3
183462,0,-1,-2,-1,-14,-2,-3,0
183519,2,0,0,-1,10,1,0,-1
183567,0,-3,1,0,5,-3,1,-10
183627,0,-5,-5,-2,-6,-3,-5,2
183687,-12,-7,-4,-2,0,1,5,12
183747,-5,0,-1,2,-2,1,-2,-2
183798,-11,-3,1,-1,12,4,3,-8
183864,6,1,-3,-1,15,-3,0,2
183914,2,-2,-4,-4,-5,1,2,1
183971,-4,-8,-2,-2,-5,-1,-8,-3
184020,-1,-4,0,0,15,-1,-3,1
184081,-10,0,0,0,0,0,-3,-7
184146,-7,-5,-1,-1,1,-4,-5,-12
184196,2,0,-1,-1,0,-2,-4,-1
184248,-1,-1,-1,1,3,-1,-2,-1
184303,4,5,1,1,0,0,4,0
184367,0,1,-1,-2,-1,-2,-2,-3
184429,-10,10,3,2,1,-1,-2,-13
184489,-1,3,0,0,-1,-1,-10,-4
184541,0,0,-1,1,1,-1,1,0
184593,1,-9,-6,-3,-2,0,3,-2
184646,-4,4,6,1,0,1,-6,-1
184700,-6,0,2,0,0,0,3,-5
184754,1,-5,-3,-3,-1,-1,1,-2
184803,1,2,-3,0,1,-1,3,-1
184857,-2,-4,-4,-2,0,-1,5,-1
184908,0,-2,-1,-2,-1,2,5,-1
184971,4,1,-1,-1,1,0,-1,0
185030,-10,-6,-1,-2,0,-1,3,-2
185081,-4,-4,-1,-2,-1,2,-2,-1
185143,-7,-5,-5,-1,0,0,-1,-3
185191,2,2,-1,-2,0,-1,0,2
185246,8,-7,-1,1,-1,0,1,13
185302,-8,-2,-1,-3,-2,1,-2,-3
185353,-6,0,-2,-2,1,-3,-6,-1
185412,3,0,0,-2,-1,-3,-3,-1
185472,-3,1,2,1,1,-1,-1,-3
185524,1,-1,-2,-1,0,-1,-3,-5
185576,-8,-3,6,0,-1,-4,-5,-3
185629,2,-8,-8,-1,2,0,0,3
185680,-8,-3,0,-1,-1,0,0,6
185736,-6,-10,-2,-3,0,-3,-19,-11
185791,-1,1,1,2,2,-3,-7,0
185838,-6,-2,-2,-2,-2,-2,-4,-21
185893,-1,-2,-4,-2,0,-1,3,-4
185949,-3,-2,-2,-1,-2,-3,-3,-3
186012,-6,-4,2,2,-1,-3,1,-1
186072,-7,3,2,-1,-3,2,2,-4
186125,-2,-2,0,0,1,1,-3,5
186176,0,0,0,1,4,-2,-7,-4
186231,-6,-5,-4,-1,-1,1,2,6
186283,0,0,-3,-1,1,0,0,1
186335,-1,3,-2,-1,-2,1,5,2
186395,0,-3,0,0,0,0,-2,5
186455,-8,-1,-1,-3,-2,1,-2,-4
186508,-4,6,-3,1,-3,-4,-1,-4
186568,3,1,-2,-1,-2,-2,-2,-4
186635,-6,-3,1,-2,0,2,6,-1
186699,0,-1,-5,-2,-4,0,7,-4
186755,0,-4,-3,0,1,5,4,-1
186806,0,2,0,1,1,5,8,-2
186868,3,1,1,0,-3,1,3,4
186932,2,-3,-6,-3,-1,-2,-2,-6
186996,10,1,1,1,-2,-1,9,4
187055,5,-2,-5,-1,-1,-1,0,5
187110,3,1,0,0,-1,1,-1,-3
187160,1,7,-1,-2,-3,1,0,0
187212,3,-1,-6,-4,-1,2,5,2
187264,-4,-4,2,1,1,-1,0,0
187317,-1,6,1,-1,-1,-2,-6,3
187374,5,1,-4,-2,0,0,1,6
187442,0,-1,0,0,2,0,-5,-2
187501,-4,-5,-3,0,-4,1,1,2
187549,-2,-1,-1,0,-1,-2,-3,-4
187603,-7,-2,-3,-1,1,-1,2,-6
187655,4,-3,-3,-1,-2,-1,-1,0
187707,-10,-2,2,0,-2,1,6,-3
187760,1,2,-1,-1,-2,-4,2,1
187811,1,2,-1,1,1,0,-3,-1
187867,-14,-3,-3,-2,-3,0,-4,5
187917,-6,1,0,1,-1,1,-3,-4
187977,-15,-4,-3,-3,-2,-2,-3,-5
188038,-1,-3,-2,-1,0,2,5,6
188098,0,-1,-4,-3,-1,-1,1,1
188152,-1,-7,-3,-2,-2,1,1,-2
188201,3,-4,-2,-3,-1,0,3,1
188254,-8,-10,-6,-1,-1,0,-2,-4
188310,-3,-5,-6,0,-1,0,3,3
188362,2,14,6,0,1,0,1,-3
188420,-4,-1,-2,-3,-2,-1,1,-16
188480,-5,1,0,-3,2,0,0,1
188533,0,2,1,-2,-3,-1,-7,-2
188596,-3,-3,2,-1,0,-2,-5,2
188660,4,10,1,-3,-3,0,3,5
188720,2,-5,-2,1,0,1,4,-4
188770,0,7,3,1,-1,0,-6,-4
188834,-2,0,1,-1,0,-1,1,7
188886,5,0,-3,-2,-4,-2,0,0
188941,2,4,3,2,0,1,4,1
188995,2,1,-5,-2,0,-1,-2,2
189049,1,8,2,-2,-1,-2,-4,-2
189108,5,5,1,-2,0,1,-1,3
189154,-6,1,-2,-3,-2,-1,-4,0
189217,-2,6,-1,0,-1,0,-1,0
189281,-2,-12,-4,-2,-4,-4,-11,-4
189344,-6,-1,1,0,1,-3,-2,-2
189406,1,2,1,-2,-1,-1,-1,-1
189455,-8,0,2,0,-1,0,0,4
189518,-4,-1,0,-2,-2,1,0,3
189583,-1,-2,-2,-2,0,-1,-4,1
189642,-8,-6,1,0,0,1,0,0
189705,-3,-2,1,-1,-2,-1,-2,-3
189759,2,2,-2,-2,-2,1,-1,-3
189819,6,4,-2,-1,-3,1,9,7
189882,5,-4,-3,-1,0,0,0,7
189943,3,4,-1,-1,-2,-2,0,0
190003,2,0,-2,-1,3,-1,-1,1
190057,0,1,-2,1,-1,2,1,1
190110,-1,-4,-4,1,2,-2,-1,4
190160,-12,-13,-4,-1,1,-3,-5,-3
190215,0,-4,-3,-3,1,-2,0,-6
190268,0,1,0,-2,-2,-1,3,0
190325,-1,-3,-1,-1,-3,-2,8,7
190385,0,-5,-3,-3,-2,-2,-1,-2
190438,-2,3,4,1,-2,1,1,0
190500,-3,3,0,1,-1,0,1,-1
190561,0,1,1,-5,-1,-4,3,1
190623,0,-5,-4,-3,-1,-1,-1,-4
190687,1,0,-4,0,0,0,3,0
190747,0,1,3,1,0,-3,-3,-1
190797,-2,2,-2,-1,-3,-5,-12,-2
190860,1,-2,-4,-1,-6,-1,-2,0
190911,-4,-10,-6,0,1,1,10,1
190963,4,0,-3,-2,-3,1,-2,2
191018,-9,-14,-7,-2,1,0,-2,-1
191067,-2,4,4,1,0,2,1,12
191126,0,0,-3,-1,2,0,9,0
191188,-9,-11,-5,1,-2,0,-3,-3
191254,9,-13,-7,0,8,0,0,-3
191302,0,-12,-8,-2,-4,-3,0,-9
191363,8,12,8,-3,-15,2,5,8
191429,11,-18,-8,4,-24,-5,-2,5
191489,2,-8,1,0,21,2,2,6
191549,37,-3,-5,14,97,15,-3,11
191600,32,4,0,-2,-8,-5,-3,9
191666,9,-4,-4,-4,-28,-8,1,-12
191729,40,-7,-4,1,80,4,-3,11
191788,-25,12,11,1,-31,-2,5,-7
191849,11,-5,-9,-4,23,-8,-2,0
191902,9,-3,-2,-1,-48,-10,-2,4
191951,12,3,9,-3,-44,-1,-1,-1
192005,-1,2,-1,-3,-4,-1,-4,-6
192060,-6,0,-3,0,2,1,-1,-12
192111,10,0,0,2,-11,-1,-1,1
192167,1,2,0,-1,-3,-2,0,7
192229,-2,4,1,-4,-14,-5,1,8
192292,-87,-10,-3,-5,-34,-5,-5,-19
192351,21,3,0,-1,-12,-2,4,5
192401,-6,-3,-2,0,4,2,3,-2
192455,13,5,-2,-1,-8,-3,0,14
192512,-3,-8,-6,1,4,5,0,7
192567,28,-4,-3,-2,-3,-2,1,-1
192619,-1,-5,1,4,2,2,9,0
192673,-1,-7,-5,-2,1,-4,1,-13
192731,-3,-6,-8,-3,0,-2,-5,7
192793,19,2,1,-1,4,1,2,-5
192853,-23,-2,-4,-3,-1,12,-2,-9
192908,43,14,5,0,2,-3,5,31
192958,-7,-6,1,-2,-2,-8,-10,1
193011,4,-3,-1,-1,1,1,2,-2
193064,2,-3,-3,-1,-5,4,10,17
193115,-6,-2,-4,-1,3,-1,-3,3
193170,13,-5,-3,0,-4,3,3,6
193219,1,-3,-4,-2,0,1,1,0
193274,22,4,0,4,4,0,0,1
193336,6,-4,-2,-2,1,-2,4,6
193396,-10,-1,-1,0,-3,-4,-5,-7
193456,31,0,5,1,0,-2,-3,0
193506,11,-3,2,2,1,-1,-1,5
193558,-5,1,1,1,0,0,-1,3
193612,23,2,-6,1,-2,-1,2,15
193665,4,-2,1,0,1,0,2,15
193722,15,8,4,2,-1,2,0,-1
193777,11,4,1,0,3,-1,-5,-5
193838,7,0,-4,-3,-3,-2,-4,-6
193888,13,-3,-2,-3,-3,-4,-5,0
193941,-7,2,1,-1,0,-2,-3,-4
193998,13,-1,0,-1,-2,-4,-14,-9
194046,3,1,-8,-6,-2,-4,-6,-8
194097,-1,-2,-2,-1,-1,-1,-2,1
194151,-9,-3,-2,-1,-2,-1,1,3
194204,12,1,-2,-2,-2,-5,-11,-26
194263,0,2,1,-2,-2,-4,-2,-6
194321,-22,-7,-2,-2,-1,-3,-10,-17
194380,-27,6,1,2,-1,-1,-1,-2
194426,-7,-1,-1,-1,0,-2,-4,-4
194480,3,1,-3,-1,-1,1,3,9
194533,-7,5,4,-1,1,-2,-4,3
194590,14,-2,-1,-1,-2,-2,-1,-5
194638,0,0,-3,-2,-3,0,2,13
194694,8,1,-1,-4,-1,-2,-3,0
194757,-5,-6,-2,0,1,-2,-5,5
194823,14,-4,-1,-1,-2,-2,-1,0
194882,12,4,0,2,0,1,0,10
194930,-16,1,4,-3,-2,-1,-1,-6
195002,6,3,-1,0,0,-1,-2,0
195058,-4,0,-2,-1,0,0,-1,1
195118,8,0,-1,-3,-4,-2,-8,-3
195179,21,-2,-3,-4,0,0,-1,4
195238,-17,-9,-3,-2,-1,1,0,1
195298,-29,-2,-1,-3,-1,-2,-1,-6
195362,3,0,-2,-6,-5,-4,-8,-10
195422,3,-2,-1,-1,-1,0,4,-2
195478,10,-6,-6,-1,-3,0,0,-1
195538,0,0,1,-1,-1,0,1,1
195601,8,-7,-3,0,1,0,-2,4
195661,-2,-4,-2,0,-2,-1,1,-3
195710,-27,1,2,-1,-1,1,8,16
195762,12,0,0,-2,0,-1,-1,-2
195816,3,-3,0,-1,-3,-2,0,1
195869,11,2,5,2,2,2,0,6
195922,9,0,-5,-4,-4,0,1,-4
195979,-16,0,-2,-2,-2,-1,-3,-6
196042,1,1,2,0,-1,0,4,22
196101,8,3,1,1,1,0,2,2
196158,0,-2,1,0,-1,0,0,1
196210,6,3,-3,1,1,-1,1,-5
196261,3,2,1,-2,0,-2,-2,1
196313,0,-2,2,-1,0,-1,2,3
196366,9,3,1,-1,-3,-2,3,14
196415,4,1,0,-1,0,-3,-8,-9
196470,5,1,-1,1,1,1,-2,6
196521,1,1,-1,-2,-3,0,-1,3
196581,-1,-2,-1,-4,-5,-6,-16,-19
196641,6,2,-2,-1,1,0,1,2
196701,2,-1,0,0,0,0,4,10
196756,5,1,1,-1,-4,-2,-2,-2
196805,-6,-7,-3,0,-1,0,1,4
196858,4,-4,-3,0,1,0,1,4
196913,1,-2,-3,-1,-1,1,-2,-5
196965,6,0,1,-3,0,-2,-1,2
197025,1,-3,-3,0,1,2,2,9
197085,-10,-1,-4,-4,1,-2,-8,-13
197139,-3,1,4,3,2,1,1,4
197201,-4,1,-3,-2,-3,-2,-1,0
197262,-1,2,0,-1,-4,-2,1,0
197324,3,-5,-4,-3,1,2,1,0
197374,0,-2,-2,0,-1,-2,-4,-9
197438,2,3,0,0,0,-1,-2,-9
197502,-2,2,-1,-1,-1,0,-4,-5
197564,4,-4,-2,-1,-1,1,-2,2
197625,-3,5,1,-3,-3,-1,8,8
197678,-13,-2,-1,-1,1,-1,-2,-11
197728,-8,-1,-3,-1,-4,-4,-1,-7
197781,1,-1,-1,1,3,1,0,-6
197833,-6,-3,-1,-2,-1,1,-1,-3
197886,0,-2,-3,-1,0,0,0,4
197946,2,-4,-3,-1,2,0,2,4
198006,4,2,-3,-1,-1,-2,0,3
198067,7,4,3,2,1,1,-3,-5
198119,6,6,3,-3,1,-1,-1,-6
198181,9,0,-1,-1,-1,-1,-5,-12
198245,2,2,-5,0,-2,-1,3,4
198307,1,0,0,-2,0,-1,-2,-5
198366,11,2,-1,0,-3,-1,1,3
198420,4,7,-1,0,1,4,13,20
198484,-2,-4,-4,-1,1,1,0,-1
198550,6,5,1,1,0,-2,2,7
198609,0,-2,-2,-1,0,-1,-1,-2
198658,-14,1,-1,-1,0,-1,0,-3
198718,8,0,1,-2,0,0,-1,-1
198769,15,-1,-1,-1,0,-1,-2,-1
198824,-3,-1,-3,-3,-2,1,-1,-4
198879,2,-1,-2,-3,-2,0,0,-1
198930,1,-7,-1,-2,0,0,0,-3
198990,1,-2,-3,-2,-2,1,-3,0
199048,4,0,1,0,1,-1,-4,-2
199101,-9,-4,-4,-2,-1,-1,-2,-1
199166,1,0,-1,-3,-1,-2,0,-2
199227,-3,-3,-3,0,-1,0,1,-3
199291,-13,0,-1,-3,-1,-1,0,-3
199349,13,4,-4,-1,0,-3,-4,-4
199405,0,-4,0,0,0,1,0,-2
199454,-9,-4,-4,-1,-3,1,-5,-3
199507,-4,-1,1,0,2,-2,-1,-4
199561,2,-3,-1,-3,-2,-1,-3,-6
199617,7,-2,-2,-2,-2,0,0,1
199668,4,-4,-1,-1,0,1,1,-1
199736,9,-3,-1,-2,-2,-2,1,4
199792,-2,-4,-2,-1,-1,0,2,-12
199842,5,0,-5,-3,-5,-1,-3,-1
199905,2,4,1,-1,-2,1,-1,-2
199973,-3,1,1,-1,-3,-3,-3,-3
200033,1,1,-2,-2,-3,0,-4,-3
200092,-12,-4,-2,-1,1,1,0,-8
200143,8,-2,-4,-4,-2,-3,1,3
200208,0,0,-1,-1,-1,-2,-4,-6
200270,5,0,-4,-2,0,-4,-4,-5
200331,3,-2,-1,-2,0,0,-1,4
200384,-12,-3,-3,1,1,-2,0,2
200436,13,4,1,1,-3,1,-1,-1
200489,-7,-4,-2,-3,-1,-3,-6,-11
200540,-7,-7,-3,0,0,1,-2,-3
200594,4,2,-2,-1,-1,-2,2,3
200649,-22,-5,-2,0,0,-1,0,-8
200712,-9,-3,-1,-2,1,2,4,-4
200774,-11,-2,-3,-2,-1,0,2,8
200834,-2,1,-1,-3,1,0,-2,-1
200887,5,-4,-1,-4,-4,-2,-2,-5
200937,3,2,-2,0,2,-2,-1,-5
200991,-1,2,-4,-4,-3,-1,0,1
201047,-2,-2,0,0,0,0,0,-5
201112,7,-3,-4,1,-1,1,-1,1
201172,-9,0,1,1,1,-1,-6,4
201224,-1,0,-1,-2,0,-2,1,5
201278,0,-2,-2,-1,1,1,-1,-1
201333,-6,-3,-1,1,0,1,-1,-8
201396,-5,1,2,2,0,0,-3,-3
201457,-1,-3,-1,-4,-2,-1,-2,0
201518,-2,-3,-5,-2,1,0,-2,-3
201569,2,0,0,0,-1,-1,0,0
201622,3,-6,-3,-2,-1,-2,-1,1
201674,-1,1,0,-2,0,-1,-1,-1
201726,-14,2,2,-2,1,-2,1,2
201779,10,0,-1,1,0,0,0,4
201837,4,-1,-1,-3,-2,-3,-1,1
201891,1,-1,-2,-1,0,-1,0,0
201948,-3,-1,-4,-3,0,-1,-4,-3
202011,6,2,1,-1,-2,-2,-1,2
202071,2,4,-2,-1,2,0,0,-7
202124,-6,-3,-1,0,0,0,1,-1
202177,1,1,1,1,-2,0,-1,-10
202242,3,2,1,-1,-3,-2,0,0
202301,-18,-5,-4,-2,-2,-3,0,3
202348,-2,1,-2,-1,0,-3,-1,-10
202403,-6,2,-4,-3,-3,-2,-4,-4
202455,6,-3,-4,1,-2,-2,-2,-11
202507,-6,2,2,1,1,1,-2,-1
202560,0,1,-1,-2,-2,-3,-2,-7
202616,1,-1,-1,-1,4,-1,-2,0
202678,-4,0,3,0,-1,0,-2,3
202748,-3,4,2,-2,-1,-1,5,1
202800,1,-4,-6,-2,-3,-2,-1,-4
202852,-7,4,4,-1,-1,-4,-8,-18
202904,-42,-7,-6,-1,3,-2,-2,-7
202957,-12,3,2,0,-1,-8,-3,-4
203013,-6,1,0,-1,0,-4,-1,3
203064,0,-4,1,1,-1,1,-4,-2
203123,19,-3,0,1,-1,-2,1,4
203182,3,2,0,1,-1,-2,-1,4
203233,-17,-6,-3,2,2,1,-2,-3
203296,-9,5,2,-1,-2,-4,-6,2
203361,1,0,2,-2,-4,2,3,0
203426,-20,-2,-2,0,2,-1,0,5
203486,-3,-2,0,0,-2,0,0,-6
203545,7,4,4,2,1,-2,0,-3
203599,-8,-4,0,-2,-3,-5,-6,-5
203665,2,4,-3,0,1,3,2,2
203724,12,-5,-3,-2,-2,0,4,12
203784,4,-5,-3,0,-1,1,-3,0
203834,-37,-5,-3,-5,-3,-1,-4,-12
203896,3,-2,-2,0,0,0,-3,3
203962,1,-2,-3,-2,0,-1,-3,-2
204022,-7,-4,0,2,2,-1,0,0
204082,1,-1,0,1,-1,1,6,8
204139,6,2,-3,-2,0,2,3,-1
204186,-2,-2,-1,-1,-1,-3,-2,-9
204240,-28,1,-3,-2,-1,-1,-1,-2
204293,1,0,-1,-1,0,1,2,3
204348,4,0,1,0,0,-2,-6,-10
204406,6,1,1,0,0,1,-1,4
204465,1,0,-2,-2,-2,-1,-1,-1
204526,1,-1,-4,-1,1,2,11,16
204580,-4,-1,-4,-4,-2,-3,-5,-4
204638,-2,-6,-6,-3,-2,-3,-2,-1
204702,-13,-10,1,2,0,2,4,2
204765,10,2,1,0,-1,-2,-7,1
204825,-33,-4,-2,0,-4,0,-1,-8
204885,4,-7,-3,-1,2,1,-1,-7
204943,5,-9,-4,1,-1,0,-2,-5
205004,-7,-3,-2,-1,0,-1,-2,-6
205065,-8,-1,-2,-1,0,1,0,2
205127,6,2,-5,-3,-4,-5,-2,-1
205177,-20,-14,0,0,1,0,-6,-7
205229,6,5,-2,-2,-1,-3,-2,-6
205281,-8,-3,0,-1,-3,-2,2,1
205337,-6,6,4,-1,-1,-1,-2,-2
205387,-3,-4,-1,-2,-2,2,4,-1
205445,11,-4,-1,-2,0,-6,-5,-8
205516,5,-2,-4,-2,-5,-1,2,-2
205571,22,4,3,2,-1,0,3,5
205620,-3,-5,0,-1,1,-1,2,6
205683,0,4,3,0,0,1,-1,-3
205747,6,1,-1,0,0,-1,-1,4
205807,-13,5,1,1,1,-1,-2,-7
205858,-5,-1,1,-1,2,-2,-1,2
205911,-10,-6,0,0,-1,-1,-3,-5
205966,-8,1,5,-1,-1,-1,-3,-4
206019,-5,-5,-4,2,-2,-2,-1,1
206079,-11,6,1,1,-1,1,1,14
206131,-17,0,4,1,2,-1,-2,0
206195,-12,-3,7,4,3,2,2,2
206253,-12,-4,0,0,1,0,-3,-4
206310,18,9,12,0,-2,-1,2,1
206363,6,3,0,-2,1,3,8,21
206426,5,-2,-1,-2,-2,-1,-2,2
206490,13,2,-1,1,1,-1,-1,-4
206550,-2,-3,-5,-4,-4,-1,-1,-6
206611,21,2,-2,-2,1,-1,-3,4
206662,5,-2,-2,1,4,0,-8,-11
206726,-12,-2,-5,-2,2,0,0,-2
206788,-5,-1,0,-1,-1,-1,-1,-4
206850,-6,0,2,0,-2,-3,-3,0
206910,-4,-1,1,-3,-1,1,-1,9
206963,0,-5,-4,-2,-5,-1,2,1
207027,2,0,-2,-1,0,1,-1,-2
207089,-12,3,0,-3,-3,0,-2,0
207151,-37,-3,0,-2,0,0,-1,-6
207201,7,-6,-4,0,3,1,-2,9
207254,1,1,-1,-3,-2,2,8,15
207308,-2,2,-2,0,0,-2,-3,-3
207360,7,-3,0,1,0,0,-3,7
207414,11,2,2,1,0,-1,0,7
207468,3,-4,0,0,-2,0,3,9
207531,4,3,4,1,1,-3,-3,4
207596,0,3,2,0,1,0,-2,-5
207653,-1,2,1,1,-1,-1,5,19
207707,7,-5,-2,1,2,-4,-6,-8
207756,8,3,2,0,-1,-3,-6,-9
207811,-3,9,2,0,-3,-3,-3,-7
207865,9,2,-2,0,1,-1,-1,-4
207915,10,4,1,0,-1,-3,-5,-6
207975,3,-1,1,0,2,4,21,38
208040,-10,-1,2,-1,0,-3,-9,-8
208086,2,-2,-1,-1,-1,-1,2,6
208150,-12,-2,-2,0,-2,-1,1,1
208220,13,1,-5,-2,-1,-3,2,-1
208278,-21,-2,2,-2,-3,-1,1,-6
208337,-11,-6,-2,-1,-2,-2,-1,-4
208389,3,2,-2,-1,0,-2,3,-7
208439,-4,-2,-4,1,1,-2,-2,1
208492,6,-2,-2,0,-1,-1,0,0
208543,0,1,-1,2,-1,1,5,-3
208598,-9,-1,-2,-1,-1,1,-2,-13
208655,-16,-8,-3,0,0,0,-3,-3
208717,-7,-4,1,0,2,-1,-3,-5
208777,0,-4,-1,-3,-3,-2,-2,0
208837,-14,1,2,-1,-1,2,-4,-4
208891,18,-5,-4,-1,0,-1,-2,-5
208943,17,1,-3,-1,-2,1,3,1
208994,-6,-6,-5,-2,0,-1,0,4
209053,-3,-3,-2,-1,-1,3,3,-4
209119,-4,0,2,2,2,-1,-2,-9
209180,-9,-6,-2,-2,-3,0,0,5
209226,-2,-2,-1,-2,-1,-1,-4,-9
209279,3,2,4,0,-3,-1,-4,-19
209331,-4,-2,-3,-4,-1,-1,3,4
209384,-19,-1,0,-1,4,-1,-2,-2
209437,-3,-3,-1,0,1,-2,0,-2
209495,5,0,0,0,0,0,1,5
209557,-8,2,0,-1,-1,-1,1,-8
209617,4,1,-1,-1,0,-2,-2,2
209669,8,5,0,1,1,-4,-3,-2
209724,8,-1,-1,0,-1,-1,-3,-2
209776,2,0,0,0,-1,0,-3,1
209827,0,-2,-2,-4,-5,-2,-3,-5
209882,-16,0,-2,-1,1,-3,-3,2
209938,-2,-4,-3,1,2,0,1,3
210000,4,-5,1,-1,0,1,-2,0
210060,2,1,1,1,-1,2,0,6
210123,-7,-3,-1,1,2,-1,-3,-10
210174,12,3,-1,-1,-1,-1,-1,9
210225,2,0,-2,-3,-3,-2,-3,-2
210278,4,1,0,2,-2,-1,-1,1
210337,-8,-3,1,-1,-1,-3,-2,0
210383,-6,-6,-2,-1,0,0,1,-5
210435,-2,-1,0,1,1,-2,-1,-15
210490,-7,0,0,-1,1,-1,-2,-4
210541,6,3,1,-1,-2,-1,-2,2
210599,-5,0,-1,-2,-1,-1,0,3
210661,-2,-2,-4,-6,-5,-4,-4,-1
210721,1,-3,-2,0,0,0,-3,-7
210774,1,2,0,-1,0,0,4,5
210825,-2,-5,0,-1,-1,0,0,1
210883,3,-2,-2,0,1,-2,-1,4
210934,2,1,0,1,2,1,4,5
210985,-1,3,-1,1,1,-1,-3,-3
211043,-1,0,1,-1,-4,-2,-6,-6
211103,-5,0,-1,-4,-9,-3,-2,-4
211155,-6,-8,-1,1,0,-3,-2,-4
211219,1,-1,1,-1,1,-3,-2,-9
211282,2,2,-2,-1,-2,-3,-1,0
211344,0,-2,-3,-1,-2,0,0,-1
211405,-4,-1,1,1,2,0,-2,-7
211456,-11,3,2,0,5,0,1,-3
211520,4,1,-3,-1,-2,2,8,11
211583,2,2,0,-2,-4,-2,-4,-7
211646,-4,-4,-1,-1,-1,0,1,-3
211695,-1,-6,-3,-1,0,-1,-3,-5
211759,-1,5,1,1,-1,-2,0,-1
211825,-3,-5,-2,-1,2,-1,0,3
211884,1,6,2,-3,-1,-2,-2,-3
211943,3,0,-4,-2,-1,1,3,7
211995,-6,-2,-2,-2,0,2,2,6
212047,-3,-2,1,0,-2,-3,-4,-11
212100,-12,-3,-1,-3,1,-1,-3,-1
212154,6,7,1,4,-2,0,4,8
212206,-1,-1,-4,-2,-3,1,0,3
212270,1,-3,-2,-3,-3,-2,-5,-4
212327,-3,0,-1,0,0,0,0,-3
212387,0,2,-2,0,1,0,1,5
212436,-6,-1,-2,-1,-2,-1,-1,3
212506,-2,-6,-3,-1,-3,-2,-1,-3
212563,-2,-1,-1,-1,-1,-1,1,1
212626,-3,-5,-4,0,-1,-1,6,13
212687,-10,-4,-2,-2,0,-1,-3,-3
212738,-9,-2,-1,1,-3,-3,3,-6
212791,7,-2,-5,-3,-2,-2,0,1
212850,5,3,4,-1,-3,0,-3,-6
212896,-19,-4,0,0,1,-1,1,-10
212949,11,1,-4,0,0,0,-4,-2
213008,-1,0,0,0,0,-1,-5,-2
213068,3,-2,-2,-4,-1,0,-1,0
213119,5,-2,-2,-3,-4,-1,-2,-6
213174,-7,-6,0,0,-4,-2,0,-1
213228,0,6,4,-1,-2,-2,0,-3
213286,3,1,0,-2,0,-2,-5,-10
213344,-5,-6,-2,-2,-4,-2,-2,0
213391,-8,0,2,-2,-1,0,-1,-5
213443,5,-1,0,0,-1,-1,-1,0
213496,-5,-3,2,0,-2,1,-4,-2
213548,-1,-3,-1,-1,-3,1,1,0
213606,6,6,-1,-1,-1,-1,0,7
213672,-1,-2,-4,-2,-2,1,-5,-11
213732,2,3,-3,-1,-1,1,2,2
213780,4,2,0,-3,0,-2,-1,0
213832,-9,-4,0,1,2,-1,0,1
213886,-1,-1,0,3,0,-3,-7,-3
213939,-1,0,-2,0,-1,-1,0,-2
213993,4,0,-1,0,0,1,2,6
214052,2,3,-2,-1,-3,-1,-1,2
214112,8,1,-4,0,-2,-2,-1,-2
214162,-14,-12,-3,-1,1,1,3,-8
214226,3,1,-2,-2,-1,-1,1,1
214289,-5,-5,-1,-1,2,0,3,-7
214352,-4,1,4,-1,-3,-1,-2,-3
214417,-13,-3,2,1,-2,-1,-2,-1
214472,-38,-3,-1,0,1,-2,-5,-13
214527,-7,1,-2,-1,1,0,0,-8
214589,-10,3,2,1,-2,1,5,18
214650,10,3,0,1,1,2,-1,2
214711,-14,-7,-4,0,2,0,-1,1
214763,-12,4,2,-2,-4,-5,-7,-18
214816,12,3,0,-1,-1,1,-2,1
214868,12,-2,-2,-1,-1,-3,-5,-2
214925,8,0,0,1,-2,0,2,-4
214975,7,2,-2,0,-2,-2,-8,-4
215036,6,2,2,-2,0,1,-1,2
215095,-11,0,0,1,-1,0,-2,0
215154,10,-4,-2,-2,-3,-4,-4,-12
215209,12,-4,-4,-1,1,0,-3,0
215272,-11,-6,0,-2,0,0,0,-4
215337,2,0,0,0,0,0,1,7
215395,1,-5,-5,0,-2,2,5,6
215448,25,1,-2,-1,0,1,2,-1
215513,0,0,1,0,-1,0,-2,-1
215571,7,1,1,0,-2,-2,2,1
215634,2,-1,0,0,-1,0,-3,2
215694,8,2,0,-2,-2,-1,-2,-2
215749,7,-2,0,-3,-3,-2,-1,3
215797,9,-3,0,-4,-3,0,-3,-6
215853,5,0,0,0,0,1,0,3
215904,-2,-2,0,-1,-2,0,-1,-1
215957,5,1,3,2,0,0,-1,8
216018,-13,-3,-2,-2,-2,-1,0,-2
216079,-5,-2,-4,0,-1,-1,0,-3
216136,4,1,0,-1,-2,0,0,-1
216192,-4,-2,-2,0,-2,0,1,-5
216253,-23,-1,-1,1,-1,-1,-2,-4
216313,-27,-3,-1,-1,-1,1,0,0
216377,11,2,-2,0,1,1,0,2
216437,6,-1,-1,-2,-3,-1,1,-2
216490,15,2,-1,1,1,-2,-2,1
216541,-1,3,-2,-3,-2,-1,4,-4
216597,4,4,2,1,1,0,-1,1
216644,-4,-3,0,0,1,-2,1,5
216698,2,2,-1,1,0,2,3,2
216755,-8,-3,-3,-1,2,-1,-2,-3
216818,-10,-1,-2,-2,2,0,2,-1
216886,2,2,-1,-1,1,2,-2,-6
216929,4,1,-1,-1,0,-1,-1,1
216982,-5,-4,0,0,1,-4,0,-3
217036,0,1,-1,-3,-1,-1,-1,-1
217086,10,4,-2,-2,-4,-3,0,-2
217146,-3,-2,0,0,0,-2,-1,-5
217193,0,-2,-1,-3,-4,-1,-2,-3
217248,5,1,-2,-1,-2,-2,-1,-1
217300,-15,-5,-1,-1,0,-2,-2,-2
217359,17,-3,0,1,0,-1,4,13
217420,2,1,0,-1,1,0,-5,-1
217478,-4,-3,-1,1,1,-1,0,-2
217532,0,-2,0,-2,-3,-5,-3,-1
217583,-10,-1,-2,0,-1,-1,0,0
217636,4,1,-2,-2,-2,1,-2,-7
217688,6,-1,0,-2,-1,-3,-2,-5
217749,12,2,0,-1,1,1,2,3
217802,10,1,-1,-1,-1,-2,-1,1
217862,-4,-4,-1,0,-1,0,-1,0
217921,8,-4,-1,0,-1,-3,-2,1
217972,9,-2,-2,-1,0,0,1,2
218028,3,1,-5,-3,-2,-2,-2,1
218079,-17,-3,1,0,-1,-1,-1,-2
218131,-6,2,3,1,-1,-1,6,9
218184,-7,0,0,-1,1,-3,2,0
218244,8,-1,-3,-3,0,-1,0,-1
218304,13,-3,-2,-2,-4,-1,-2,-2
218365,-3,-3,0,0,-1,-2,2,-1
218427,-8,0,2,-1,0,-1,-2,-3
218477,-7,-3,-2,-1,-1,0,-3,-6
218529,-11,-3,-1,0,-1,0,-2,-1
218581,2,-3,-2,1,-1,1,-1,1
218639,13,-1,-3,-1,-2,0,0,-3
218699,-4,-2,-2,0,0,0,0,-1
218764,-2,-1,0,0,-1,-1,1,-2
218822,5,0,1,-1,1,-3,1,0
218874,-4,-1,-1,0,0,-1,0,-3
218928,-4,-1,-3,-1,-3,-4,-1,-4
218978,-7,-3,1,-1,0,0,0,2
219033,-3,-3,-1,1,-1,-2,-4,-6
219084,-3,-2,-1,-2,-4,-1,0,-4
219143,5,0,3,0,2,0,1,6
219205,0,3,0,-2,0,0,-1,2
219265,-3,-1,0,1,-2,0,0,-2
219318,5,3,0,-1,-2,0,0,-1
219369,-16,-5,0,-1,-1,-2,-4,-2
219422,1,-4,-1,-2,-3,-3,0,-1
219480,-2,1,-1,0,1,0,1,-1
219528,1,-2,-3,-1,1,-2,0,2
219584,-9,-5,-2,-1,0,-3,0,-2
219650,2,1,1,-1,-3,-4,-3,-2
219707,-5,1,0,1,-1,2,3,5
219759,-1,-3,0,-3,-4,0,2,-3
219823,3,-3,-1,-1,-2,-1,0,4
219888,1,-1,1,0,-1,0,2,8
219952,-5,-4,-2,-1,0,0,-1,-1
220007,-1,-1,-4,0,3,0,0,-2
220059,2,3,2,-2,-1,-1,-4,-5
220127,2,3,-2,2,1,0,1,0
220184,4,7,-1,-4,-3,-1,-1,-8
220245,7,1,-1,1,-1,0,5,10
220308,7,0,-1,-1,3,0,-2,2
220368,1,-1,1,-1,-1,0,1,-1
220421,2,1,1,-1,1,0,1,2
220473,12,0,-2,0,0,-2,-1,0
220525,-6,-5,-3,-1,0,0,-2,-3
220577,1,-2,-2,-3,0,-1,0,3
220632,-8,-4,-2,-2,-1,-2,-8,-16
220687,-3,-2,-2,-2,0,-1,-2,1
220749,-2,0,-1,-2,-1,-1,0,-3
220812,10,1,-1,-1,0,-3,-4,-3
220861,2,-7,-1,-1,-2,-1,-3,-4
220926,-5,-3,-4,-3,-3,1,1,-12
220990,2,-2,-2,-2,-1,0,-1,-6
221050,1,-2,-1,-3,1,-2,2,-1
221111,-3,-1,-1,-3,-1,-2,-2,-3
221163,-2,-2,-3,0,-1,0,1,2
221228,5,1,-2,-1,1,0,2,4
221290,6,0,-4,-4,-4,-1,0,-6
221341,7,2,0,0,2,0,-4,5
221393,-4,1,-3,-4,0,-3,-12,-19
221448,-9,-1,-2,-1,-2,-1,2,4
221497,-5,-1,1,-2,-4,-1,-2,-1
221552,3,-1,-1,-1,0,-2,-3,0
221606,12,5,-1,-1,0,1,0,19
221670,-15,-3,-2,0,1,0,-3,0
221732,-14,-8,-3,-1,-2,-5,-6,-19
221793,1,5,1,-2,-2,-3,-7,-3
221844,0,-2,-3,0,-3,-2,-6,-13
221907,-1,2,1,1,0,-2,0,-1
221969,-3,-5,-1,-2,-1,-2,0,3
222032,1,0,-2,0,-3,-3,-5,-9
222093,-2,0,-1,1,-1,-1,-9,-6
222144,-2,1,0,-2,5,-4,-8,-22
222196,0,-2,-3,-4,-13,-4,-10,-15
222249,-20,-1,-1,-2,6,0,-2,-6
222301,1,2,3,0,-2,-2,-6,-2
222354,2,1,1,1,5,2,5,12
222410,-5,0,0,2,3,0,0,4
222476,9,-3,-2,-1,0,1,-1,2
222534,-4,1,-2,-2,4,-4,0,0
222595,-1,4,2,-1,0,-1,0,5
222649,-8,6,2,1,-1,1,-1,-4
222712,-3,1,1,-1,-4,-3,0,7
222774,-18,-4,0,-1,-1,0,-3,-4
222834,-7,2,4,-1,-2,1,-2,-4
222895,0,-2,-1,0,-2,1,4,6
222946,1,1,3,-3,-2,1,2,-2
223009,0,-8,-5,0,-1,0,1,4
223071,5,-2,0,-1,0,-1,-1,4
223135,1,0,-3,0,-1,0,6,8
223195,-3,2,3,0,-2,0,0,-6
223246,3,1,0,0,0,-1,-2,-11
223298,-3,5,2,-2,-2,-2,0,3
223358,0,0,0,-2,-2,2,-3,-3
223412,-1,-2,-3,-2,-1,0,4,0
223469,2,-1,-2,-3,-4,-6,-15,-29
223518,6,-3,-3,-1,1,0,1,5
223580,-1,-3,0,1,-1,-2,-3,-2
223638,-21,-3,2,1,1,0,-3,3
223689,7,-3,-1,-2,0,0,-1,-3
223752,-1,-3,0,1,-1,-1,-1,5
223817,6,-1,0,1,-1,-1,-1,-1
223881,11,4,0,-1,0,-1,-6,-8
223939,-2,0,1,0,0,-2,1,-3
223992,5,2,0,-2,-1,-1,1,0
224057,7,-1,-3,-1,-1,-4,-9,-17
224119,9,-1,-1,-3,-2,0,0,3
224178,-1,-3,-3,-1,-1,-4,-2,-4
224237,-7,7,2,-3,-2,0,-1,-1
224291,-4,4,-1,-1,-3,-4,-2,-8
224355,0,-1,-2,-1,-2,-2,0,0
224417,4,0,1,-2,0,-1,1,2
224478,-1,2,-3,0,-1,1,-1,-1
224538,-16,8,1,0,1,-1,0,-7
224592,4,1,0,-4,-4,-1,2,3
224642,-2,-1,-3,-2,0,2,0,0
224701,6,6,-2,1,-1,-1,-3,0
224751,0,1,-4,-2,0,-2,0,1
224807,-3,-2,1,0,2,-1,-1,-1
224860,5,-2,-5,0,-2,2,4,2
224913,-8,-1,1,1,2,1,-1,0
224965,-2,0,-1,-1,-2,0,0,-2
225022,-1,-3,-2,-2,-1,-3,3,1
225069,4,-5,-5,-3,-3,-3,-3,1
225122,-4,2,0,0,-2,-2,-2,-4
225181,-8,-2,-3,-1,0,1,0,-3
225242,12,2,-2,-1,-1,-1,-1,1
225294,2,1,0,0,-4,-2,-1,3
225347,0,0,-2,-2,-2,-1,0,-3
225400,0,0,-2,-2,-4,-3,-5,-18
225452,8,-2,-3,-2,2,-2,-3,-6
225507,0,-3,-5,-3,-2,0,-1,-1
225566,-7,-2,1,0,-1,0,-3,1
225617,-3,0,-2,-2,-1,1,1,-3
225671,6,-1,-1,0,0,1,-2,-2
225721,-7,-3,-3,0,-3,-1,0,-2
225782,-2,-7,-3,-1,-2,0,1,-3
225842,5,1,3,3,-2,-1,-1,-5
225894,11,1,2,-2,-3,-3,-3,0
225947,14,-1,-1,-1,-1,0,-1,-3
226001,-15,-6,1,-1,3,1,0,-5
226052,0,-3,-1,-1,2,1,0,-3
226110,2,0,-2,-2,0,-1,-3,2
226168,-6,-1,1,0,2,0,-3,0
226216,-1,2,0,0,0,0,1,3
226271,11,0,-3,-3,-6,-2,1,3
226323,-12,-1,-1,-1,-3,-2,-5,-5
226382,-5,-3,0,-1,0,-1,-1,0
226434,-12,-2,-3,-1,-2,0,-2,0
226487,-3,3,1,-1,-2,-1,-5,-2
226539,0,1,-1,1,-2,-3,-1,0
226592,0,-3,-2,0,0,-3,-4,-2
226646,-23,0,-1,-1,-1,-3,-4,1
226701,-1,0,-1,1,0,-1,1,-10
226752,9,-4,-2,-1,0,2,0,1
226805,-5,-5,0,-3,2,-1,-2,-3
226857,-1,0,-2,-2,-1,-4,-2,-3
226910,-7,-3,0,-2,0,-1,-1,-3
226969,0,-7,-1,-1,-2,0,3,9
227030,-4,2,1,0,0,-2,-1,2
227078,9,4,0,5,1,2,11,17
227131,1,-1,1,0,-1,1,3,2
227185,-1,1,0,-2,0,-2,-6,-7
227237,-12,-5,-2,-2,-2,-2,-1,-6
227291,12,-3,-5,-4,-5,-3,-1,2
227342,1,3,0,-1,0,-1,-2,0
227400,0,-4,-2,-2,-4,-1,3,-2
227448,-11,1,0,-2,-3,-3,-3,0
227507,-17,-7,-4,-1,1,1,6,8
227567,3,-5,0,-3,-1,-2,-1,1
227621,2,2,2,-1,-3,-1,2,8
227683,-1,0,-2,-1,-1,-3,0,-1
227733,4,-1,-1,0,0,-3,-2,-2
227789,-5,-1,-2,-1,-2,-3,2,3
227841,-2,2,0,1,-1,-2,-1,-1
227892,-3,5,-3,-2,-2,-3,-3,1
227951,-2,-1,-2,-3,-4,-1,-2,0
228010,1,-1,-2,-2,0,1,2,7
228063,4,-1,-3,-1,-1,1,0,7
228125,0,-4,-4,-1,-2,-1,2,-1
228189,0,0,2,0,1,-3,3,8
228251,-3,-1,-2,-1,-2,-2,-11,-24
228315,0,0,-1,-1,0,-2,-5,-2
228363,4,0,0,-1,-1,-1,-2,-2
228435,2,-1,-4,-2,-3,-4,-1,-5
228492,-12,-5,0,-4,-1,-2,-3,-2
228551,4,1,-1,-2,-2,-1,1,-3
228606,-8,0,-2,-3,1,-2,-1,-4
228667,0,3,0,2,-3,-2,1,6
228729,8,1,2,1,-1,-2,0,7
228792,-6,-6,-5,-4,-7,-3,-5,-28
228851,5,3,5,0,0,0,0,0
228901,8,-2,-1,-2,0,2,4,-1
228956,-5,-2,-1,-1,-1,-1,-3,1
229014,8,1,-1,1,2,4,8,27
229060,-3,-2,-1,-2,-1,0,-3,-5
229114,-4,-4,0,-3,-1,-2,-7,-12
229171,-1,-1,2,2,-1,-2,-1,-3
229232,-4,-3,0,-3,-3,-4,-1,7
229293,-4,-1,1,0,0,-1,0,6
229346,1,-1,-2,0,0,-2,-2,-13
229409,5,0,0,-1,0,0,1,-1
229472,6,0,-1,-2,-2,-4,-2,-3
229533,5,-2,-1,0,-1,-2,2,-2
229584,-17,0,3,2,-1,0,3,19
229647,-30,2,-2,0,-2,-2,0,-13
229709,8,5,-5,-2,-1,-2,-2,-2
229773,-7,-9,-4,0,1,0,-1,-3
229839,-10,-3,1,-2,-2,-2,-3,2
229898,3,-3,-4,-3,-1,-1,3,-7
229947,-7,-5,-1,0,1,1,-4,0
230009,-2,-3,-2,-2,-1,-2,-4,-10
230075,1,-1,-2,-2,-2,-1,-4,-5
230134,2,1,0,-1,-2,-1,4,8
230195,5,-2,3,0,1,-3,-5,-4
230249,-1,-4,-3,-1,-2,-1,-6,-16
230298,-10,0,0,-1,-1,1,-2,-10
230349,10,6,4,3,0,0,1,3
230406,4,-1,-3,-2,0,-1,0,3
230457,15,-9,-5,0,1,-1,-5,-33
230516,-7,-1,-2,-5,-1,-1,-4,-3
230566,20,1,-2,-1,-1,-1,-7,-6
230629,5,1,-4,-3,0,-2,-1,3
230691,4,1,-1,-1,-4,-3,-4,-10
230754,-13,-1,-2,-1,-3,-2,-1,-2
230816,6,-2,-5,-3,0,2,-1,-6
230876,2,0,-2,0,0,-3,3,3
230927,11,-1,-1,-1,-1,-1,2,-2
230980,-4,-2,-2,-2,-2,-2,2,-4
231032,2,3,-3,-3,1,-2,0,-5
231088,-5,-5,-5,0,-1,0,-5,-6
231140,12,1,-1,-4,-1,0,-2,0
231198,-14,-3,-2,-1,1,2,1,-2
231259,-18,-2,-5,-4,-5,-3,-5,-9
231320,6,-5,-2,-1,-1,0,-1,2
231369,-4,0,0,-3,-2,-3,-4,-4
231433,15,5,0,-2,1,1,0,0
231497,-2,-5,-3,-1,-3,-1,-3,-11
231559,3,-4,-3,-2,-2,0,0,-2
231619,10,1,0,-1,0,-3,-1,2
231670,-7,0,-3,0,1,-1,1,-1
231722,-9,-4,-4,1,1,-2,-1,1
231775,-3,-3,-1,-1,-3,0,-3,-2
231831,9,1,-2,-1,-1,0,1,7
231883,-2,-2,1,2,0,-3,-3,-1
231939,-5,6,0,-1,-2,-3,-5,-10
232001,-8,-5,-4,-1,-4,0,2,0
232061,4,-1,2,-1,-2,-2,-2,-6
232116,-5,-5,-4,-3,-3,-4,0,0
232177,19,-5,-3,-3,0,0,-2,-14
232240,-2,-4,-3,-2,-1,-1,3,-1
232301,-17,2,-1,-3,-3,-1,-2,-2
232365,-6,-4,-3,-3,-3,-2,-2,-5
232414,3,-1,-2,0,0,-2,0,-2
232475,-3,1,0,-2,0,-2,-8,-11
232539,0,-1,-4,-2,0,1,4,0
232603,6,3,1,-1,0,-1,-1,10
232661,-3,0,-1,-1,0,0,-1,-1
232713,4,3,2,0,0,1,1,-1
232766,-6,2,1,-1,-1,-3,0,-1
232819,-9,-2,0,1,-1,0,0,2
232872,8,3,1,0,0,1,1,7
232927,-1,1,-1,-1,-2,0,-2,1
232985,4,1,-1,-3,-4,0,-4,-5
233032,7,5,1,2,-1,2,5,22
233088,-19,0,2,0,0,0,0,-2
233141,5,4,2,0,-2,-1,2,13
233192,5,-1,0,0,-4,-2,-2,0
233245,7,0,-3,-3,-1,-2,-3,-5
233298,-8,3,-1,0,-1,-2,-2,-1
233350,-3,-5,-2,-1,-1,-1,0,1
233405,-24,-3,-3,-3,-2,-1,-1,-7
233459,2,-1,-2,-2,-3,-1,-4,-9
233523,5,8,3,0,0,-3,-1,-2
233584,-35,-1,1,-1,0,-2,-3,-4
233643,4,2,0,-3,0,-1,-1,-1
233695,2,1,-1,-1,-3,-3,-9,-13
233748,-17,-7,-2,-2,-2,0,4,-5
233801,8,5,2,0,0,-1,1,9
233853,6,2,1,-2,-2,-2,-8,-5
233906,-22,-4,-2,-3,-5,-3,-5,-18
233963,9,0,-3,-2,0,-2,1,1
234026,17,1,2,-1,-1,-2,3,4
234086,-1,0,1,1,1,-3,-3,1
234137,-3,-4,0,0,-1,2,2,2
234190,5,-2,-2,0,-1,-1,2,2
234244,5,3,0,-4,-2,-1,0,-8
234296,-23,-2,0,-1,-2,-1,-6,-11
234349,-6,0,-2,0,1,1,-2,1
234400,8,1,2,-1,0,-1,-2,-3
234455,-1,1,0,-2,-2,-3,-1,0
234510,10,-1,-2,0,-1,0,0,3
234568,1,-1,-1,0,-1,-1,5,7
234628,4,0,3,1,-1,0,-3,4
234680,8,-3,-4,-1,-2,-3,-8,-10
234730,-20,-2,-1,-2,-3,-6,-12,-23
234783,-13,-6,-1,-4,-1,3,2,7
234844,0,-2,-2,0,0,1,-3,-5
234896,7,4,0,1,-1,-3,-3,-1
234949,-11,-4,-3,-2,-1,0,-3,-6
235008,-7,-4,-3,-2,-1,-1,-2,-2
235069,20,0,2,0,-1,-1,-2,0
235130,-6,-3,-1,-3,0,1,9,9
235181,7,5,1,-1,-1,-3,-4,-3
235235,-4,-5,-4,-1,1,-3,-4,-11
235287,-11,2,1,-2,-2,0,1,2
235342,-11,-7,-4,-2,-1,-1,0,3
235393,19,2,-2,-1,-1,-1,-2,-2
235451,-1,-1,-2,-2,0,0,0,-6
235512,-8,-2,-2,1,1,-1,3,4
235564,-5,-7,-5,-2,-2,-4,-1,-9
235627,-26,-2,-2,-2,-3,-2,1,-1
235689,1,-1,-4,-3,-2,0,1,-1
235752,1,-9,-4,-1,-1,-1,0,-3
235813,-3,-6,-2,-1,-1,-1,-3,-6
235864,11,-1,-2,-3,-1,-1,-3,-2
235927,-12,-6,-3,0,-1,-2,-6,-13
235991,-3,-4,1,-1,-1,1,1,5
236052,-4,2,2,1,3,1,0,6
236112,-11,-9,-1,-1,-1,-1,0,1
236164,-3,-8,-6,-2,2,-2,-2,2
236217,6,4,4,-2,1,2,9,6
236271,3,-2,-3,0,-2,-1,-2,-4
236322,2,-3,-7,-3,-4,-3,-5,-10
236374,16,-1,-2,-1,0,0,7,21
236432,-5,-1,3,0,0,-1,0,-1
236494,10,-6,0,-2,0,1,-1,-3
236555,-4,-1,-4,-2,-2,-3,-5,-19
236607,-8,1,-1,1,0,0,4,11
236671,2,1,-2,4,-1,-1,-3,2
236734,-3,0,2,0,-3,-2,-1,-1
236795,4,5,1,1,-1,-4,-14,-6
236854,11,-4,-1,1,0,-2,-5,-6
236908,2,-2,-1,-2,-3,-1,0,-4
236972,6,7,1,-2,-2,-3,-1,-9
237036,2,3,-1,0,0,0,3,6
237096,-12,-2,0,-1,2,-1,-2,-3
237148,-6,-2,-2,-6,-4,-7,-8,-34
237202,-6,-5,-2,-1,2,1,5,10
237251,4,2,2,1,2,1,0,15
237303,8,-2,-1,-2,-3,-4,-10,-16
237356,-6,-2,-1,-3,1,-2,-9,-13
237413,-14,-5,0,5,1,0,-4,13
237477,6,-3,-4,-4,-3,-2,-2,-11
237537,-2,-6,0,1,1,0,-2,-20
237588,3,-1,-1,-1,-3,-1,-8,-15
237653,-19,-2,-1,-1,-1,0,3,12
237715,-5,-2,2,0,-2,3,6,36
237776,-8,-8,1,0,0,0,-9,-40
237837,1,3,2,4,0,-1,-6,-5
237889,7,0,0,0,2,5,10,28
237952,-2,4,4,4,0,0,4,15
238014,-12,-3,-2,0,3,-1,-7,-9
238077,-1,0,-3,-4,-4,-3,-8,-35
238137,11,7,0,3,-1,-3,1,6
238190,7,2,6,2,-1,1,3,14
238252,1,-1,1,0,-4,0,2,6
238316,17,5,0,0,-1,-1,2,31
238381,-5,-3,-4,-3,-1,1,5,17
238439,-2,3,3,-4,-1,1,-1,-6
238488,-1,-2,0,1,0,-1,2,13
238541,0,-1,-1,0,0,2,7,14
238594,-10,-3,-1,-5,-4,-3,-5,-26
238648,-8,0,0,-2,-5,-6,-11,-51
238707,-4,-2,0,1,1,2,-4,0
238758,-17,2,2,-1,1,0,-2,-3
238820,0,2,0,-2,-1,0,2,7
238880,-2,-1,-1,-1,-2,1,2,-14
238933,4,-2,-7,-8,0,2,7,20
238995,-1,2,-3,-3,-2,-5,-4,-15
239058,-2,-5,-2,3,-2,-3,-1,-8
239120,-6,-3,4,2,-1,1,6,19
239180,-14,1,-2,-1,-4,-3,-1,-20
239232,-2,-7,-3,-3,-2,-2,-2,-14
239286,-19,-5,-4,-1,0,-1,-6,-22
239336,7,0,-2,3,1,-1,-3,-4
239390,-6,2,-1,-3,-1,0,0,1
239443,10,2,1,-1,0,0,1,5
239498,-10,0,-1,-2,0,-3,-3,1
239562,-6,-3,-2,-2,-2,1,7,3
239622,10,3,1,0,0,3,13,22
239675,4,-1,-1,-3,-2,-1,0,13
239738,10,-1,-5,-3,-1,0,4,12
239800,-1,4,3,-1,-2,-2,-2,-6
239863,-10,-6,0,-2,0,-2,-2,6
239922,-5,-2,-2,-1,-2,0,-6,-14
239977,-16,-1,-2,-2,3,0,-1,6
240037,9,2,-2,0,-1,0,-1,4
240101,-4,-7,-6,-3,-2,1,1,-3
240162,5,2,1,-1,-4,0,0,1
240222,-6,-4,-2,-1,0,-1,1,-7
240275,-10,-1,0,1,1,1,2,-1
240328,-1,1,0,1,0,-2,-4,-1
240384,-2,0,0,0,1,1,7,13
240434,7,0,0,0,-1,0,-1,4
240484,-2,-1,-4,-1,-5,-1,1,7
240543,-1,2,1,1,-1,-2,-3,-1
240606,3,-9,-5,-4,-4,-3,-3,-6
240655,-2,1,-14,-4,0,0,-1,-9
240717,3,-3,0,-1,2,3,8,10
240781,8,3,-4,-1,2,-3,0,10
240845,11,4,1,-6,-3,-1,2,3
240899,0,0,0,1,-1,-1,0,7
240953,0,0,-5,-2,0,0,1,2
241001,2,-4,-5,-1,-1,-2,-5,-7
241053,-8,-6,-5,-3,0,-1,-2,-8
241107,-17,-3,-3,-5,-2,-1,-2,-16
241160,-4,2,0,-1,-2,-1,6,-2
241212,3,-2,3,-2,-2,-2,-5,-14
241268,-15,-3,-4,-4,-1,0,-1,4
241318,11,-4,-1,4,1,0,-1,-2
241381,0,-1,0,-1,-2,-3,0,-3
241444,-5,-2,1,2,1,1,-2,-14
241504,3,4,2,-2,-1,-1,0,11
241555,3,-4,0,0,-1,0,1,5
241609,22,0,-1,-2,-1,0,-1,0
241661,11,0,-3,-1,-3,0,-4,-4
241715,-4,-2,0,-2,-3,1,2,-2
241766,5,8,1,-2,0,1,2,5
241823,-19,-2,-2,-3,-3,0,2,3
241878,-8,-6,-2,-1,-1,-1,-3,-5
241934,-10,1,-2,-7,-5,-3,-10,-34
241983,-6,-3,-7,-7,-1,0,-4,-8
242046,-24,-4,-3,-2,4,-1,-7,-21
242105,11,-3,-2,-1,-4,0,0,4
242157,3,-4,0,-9,1,-3,1,11
242212,-11,-7,-3,-5,-7,-3,-2,7
242269,17,0,1,0,7,2,-1,-5
242330,-16,5,2,2,37,3,2,-3
242394,21,2,-3,-2,0,0,1,5
242452,-12,0,4,0,7,-1,1,-5
242505,7,-3,-3,4,-1,-5,-5,-16
242569,5,3,-3,0,2,2,3,7
242629,-7,-7,-3,0,8,1,-1,-8
242681,-20,1,-1,0,2,2,3,4
242733,4,-1,-2,1,-1,11,3,9
242789,-4,-5,-7,-1,3,-1,0,8
242838,-1,-3,2,0,-2,-3,-4,0
242893,-2,-3,-4,-2,1,-2,1,11
242949,2,1,0,-1,0,2,-2,-4
243013,-2,-5,-2,-1,0,1,-3,-3
243072,-1,-1,-2,-2,3,0,-2,-9
243137,10,-5,-7,1,2,1,-1,-6
243193,3,1,-2,0,-1,0,0,8
243249,4,-3,-1,1,1,-1,-2,-1
243313,12,-3,-6,-1,0,-7,-1,4
243372,9,-4,-4,-2,-2,-2,-3,-1
243424,1,-4,-2,-2,-2,-3,6,3
243478,2,-4,-4,-1,-2,-1,-2,0
243533,-4,1,2,-6,-3,1,2,2
243582,-10,2,0,-3,-2,-1,1,-4
243634,-12,-5,1,-2,-2,-1,-2,-4
243686,10,-3,-5,-1,-1,0,-2,3
243742,-3,7,4,4,4,2,2,6
243793,4,2,0,3,2,-3,-3,6
243853,-5,-6,0,3,-2,-4,-4,1
243914,8,7,1,1,2,-1,-2,2
243964,-5,-5,-1,-1,-1,0,0,-2
244017,-7,-6,-4,0,-1,1,-7,-8
244069,17,8,0,1,-2,-8,-3,7
244123,19,2,-1,-5,-4,2,5,8
244178,2,-2,-1,-5,-5,-2,-1,3
244236,3,4,2,-2,-2,-2,1,3
244295,-17,-3,-5,-2,-1,-5,-6,-16
244356,0,-4,2,2,0,-2,-4,4
244407,3,-1,1,0,1,-1,1,5
244469,-10,6,6,-3,0,0,2,5
244532,0,0,-4,0,4,1,7,12
244594,-21,1,0,2,0,2,0,-3
244655,10,5,2,-1,-1,0,2,0
244706,-5,-4,-2,-2,1,-1,-4,-11
244769,9,6,7,0,-2,-1,-4,-5
244833,-8,-2,-3,-3,-2,0,3,-4
244895,-8,-1,1,0,-1,-3,-2,-5
244955,15,-2,-1,2,2,-2,0,5
245011,7,4,-2,-1,-1,-3,-5,-1
245059,-14,1,-4,-2,0,0,-1,-5
245113,-20,-7,-5,0,1,0,-2,-8
245165,-5,1,0,1,1,-1,2,4
245218,3,9,2,1,0,-2,-3,-1
245274,8,3,1,-2,-2,1,2,0
245338,-16,-2,-1,0,-2,-4,-4,-12
245398,11,0,0,-2,0,1,3,4
245449,9,1,-3,-3,-2,1,1,2
245512,6,-3,0,-2,-1,-1,2,1
245569,-1,-2,-3,-1,-1,0,3,-2
245628,8,6,0,-2,-4,1,-4,-4
245675,11,3,-1,0,-1,1,2,9
245734,17,2,0,-1,1,2,0,0
245795,-5,-1,-2,-1,0,-1,-3,-6
245856,2,-4,-3,-2,-2,1,1,1
245908,-11,0,0,-1,0,-3,-7,0
245960,7,-1,1,0,2,0,-2,-2
246021,6,8,0,-2,-2,-3,-4,-5
246080,-7,0,4,-1,-1,-2,-1,-4
246140,-5,-3,-5,-2,1,1,-2,-8
246191,10,3,1,-2,3,1,1,2
246255,8,-3,-5,-1,-2,-1,-3,-3
246318,-1,-7,-4,0,-1,-2,-3,-2
246380,0,-2,-3,-2,-1,-1,3,13
246440,-13,-2,-6,-2,-1,-1,-1,10
246494,-6,0,5,4,-2,1,-2,-2
246545,-20,-2,-2,-1,0,-2,-10,-16
246597,8,-4,-4,-3,-1,-2,-6,-9
246653,-1,-3,-2,-1,2,0,-1,2
246704,-3,-2,-3,-2,0,-1,0,-8
246763,2,3,2,-1,-2,-5,-12,-15
246823,-2,-5,2,1,-1,0,-1,-5
