Timestamp_ms,Channel_0,Channel_1,Channel_2,Channel_3,Channel_4,Channel_5,Channel_6,Channel_7
161,0,0,0,0,0,0,0,0
198,0,0,0,0,0,0,0,0
253,20,9,3,-2,-9,1,0,4
303,-24,-17,-4,-1,-9,-7,-4,-18
355,-7,-11,-2,3,-1,-4,1,-1
410,23,-4,-5,-2,-7,5,2,-15
462,0,-12,-5,5,11,5,-4,3
523,-7,-15,-5,-3,-7,5,4,2
581,23,14,9,4,1,0,1,35
641,-6,-1,-1,1,3,4,4,-6
701,-16,-5,-11,-4,-17,-1,-2,-8
754,3,-11,2,0,-4,0,5,9
807,-3,-16,-5,-1,0,-6,0,0
864,-41,-18,-7,-6,1,-10,-4,-51
925,-25,-8,-4,-2,-3,-1,0,-11
986,20,-6,-2,-4,-6,-8,-2,7
1047,5,2,-7,2,12,-11,-6,18
1097,-11,-23,-9,-9,-15,1,7,29
1160,-11,-4,-4,-6,1,-4,0,-5
1222,14,17,9,-3,-1,-7,-6,20
1285,-24,-2,-6,12,-3,9,-4,-20
1347,-15,-7,0,-4,-4,0,-1,-13
1398,-3,0,0,7,6,-2,-10,12
1450,-7,-23,-12,1,0,0,-4,-4
1506,0,-8,-8,0,2,22,1,-18
1555,-20,-15,-4,-1,-3,-8,-9,-32
1608,2,-6,-6,-6,-1,3,2,4
1661,-8,-1,1,-1,1,3,6,3
1717,-13,-12,-3,7,4,-14,-7,-17
1766,13,1,1,2,-1,-5,1,7
1818,35,7,-1,2,2,3,2,8
1871,24,-7,6,4,1,9,3,37
1928,-17,-18,-8,-6,-9,-5,-1,-6
1993,16,1,-2,-1,-5,-6,3,2
2050,-5,-12,6,5,3,-1,0,-13
2105,5,1,0,1,12,-4,-1,11
2155,36,11,11,4,-13,-4,-4,10
2208,-27,-1,3,1,6,5,-1,-13
2263,-13,1,-2,-2,-1,-6,-6,-25
2314,-22,6,-5,-1,-1,-4,-2,-26
2374,-12,-8,-10,-8,-2,1,0,-3
2435,48,8,2,-5,-2,-7,-6,-11
2495,4,-12,-2,-1,-4,3,0,6
2547,5,-4,-4,-8,-9,-7,0,3
2613,29,6,6,-3,-1,2,1,42
2674,-16,5,-1,-4,-4,4,3,6
2733,5,28,6,-1,3,-2,-1,6
2788,-1,2,1,8,0,-4,-2,-8
2838,3,-4,-2,0,2,0,0,-11
2892,4,0,-1,-5,5,-2,-1,-11
2944,7,9,-2,0,1,9,-5,2
2998,-2,-7,3,8,17,-1,0,24
3047,19,4,-5,-1,2,1,-4,6
3101,-8,-5,3,-5,-13,-3,-7,-11
3154,-8,-3,-9,-5,-7,0,2,-2
3211,-1,-8,4,1,2,3,-8,23
3274,14,2,3,-3,-3,-10,-4,1
3333,3,-14,-5,-4,-1,5,-1,13
3385,28,15,5,1,-4,2,-2,25
3437,15,3,0,-1,-8,-6,-7,-8
3490,4,0,-1,-3,-2,-1,1,-3
3544,2,3,3,0,-7,1,2,-19
3598,11,-7,-2,-5,-3,-5,2,-1
3653,1,0,-4,0,16,-3,3,12
3716,2,4,2,0,11,3,-3,-5
3779,-13,8,1,3,3,-2,1,-5
3838,-3,-9,-6,-2,-13,-8,1,-18
3893,-1,-1,5,7,-6,-2,1,-20
3956,8,-1,3,7,0,0,1,6
4015,-13,-7,-3,-5,-2,-6,-5,-7
4076,12,10,-3,-2,3,0,-3,-15
4136,-8,-4,0,0,-3,-4,-11,-28
4196,-2,-4,3,1,4,4,-6,11
4249,-26,-9,2,10,0,-3,-7,-14
4300,16,-8,-2,2,5,-7,1,3
4352,4,-16,-4,-3,1,-8,-10,-25
4404,28,6,-2,-3,-2,-7,-3,6
4459,14,5,8,-2,1,-3,-8,-1
4515,-9,1,0,-2,-4,7,3,13
4578,-18,-28,-10,-7,-5,-12,5,1
4638,-5,11,5,0,-2,-8,-3,-1
4700,-29,-7,-5,-5,-4,-1,0,-6
4752,-22,-7,-4,-3,-9,-13,-8,-23
4816,11,3,-1,1,-1,-2,5,18
4878,17,-12,-4,0,-10,-2,-2,2
4938,34,1,1,1,-7,-5,0,22
5001,-14,-4,2,-1,-4,3,-10,9
5049,-18,2,-5,-6,-2,0,-9,-23
5102,-2,-1,-5,1,-15,-20,1,15
5156,-5,-5,4,1,-6,-4,-3,5
5216,-59,-2,-4,2,14,9,3,-32
5275,3,1,3,-1,1,1,-5,1
5329,3,-9,-5,-1,1,13,1,-3
5386,-6,-2,-5,-7,-3,0,-3,-15
5439,11,0,-3,0,0,-3,3,-3
5501,-11,-8,-4,1,1,-2,-10,3
5561,11,2,-1,1,-3,2,2,-4
5613,23,13,5,-2,-12,-5,-5,10
5677,-4,-9,-2,-3,-5,-2,-1,-11
5741,28,5,-1,-5,-3,-1,-6,-1
5802,-36,-11,-8,-3,1,3,4,0
5863,3,-4,-3,-3,-9,4,-4,1
5919,2,-6,2,-1,-4,-6,-1,-12
5979,21,6,1,-4,-7,-9,-8,23
6045,-9,17,5,0,3,-4,-3,3
6101,-18,-11,0,-1,-5,-4,1,-29
6161,12,-9,-3,-9,-8,0,-1,20
6214,9,-8,-6,-13,-71,2,0,-9
6265,30,16,4,-7,-8,-9,-6,4
6321,-33,3,2,4,56,-5,1,-8
6372,9,-5,2,-5,0,-2,0,6
6424,16,2,-6,-1,-5,17,8,16
6483,15,-1,-6,-6,-1,1,-3,1
6546,2,5,-4,2,-1,-6,-1,-9
6605,5,1,2,1,19,0,-1,26
6664,5,3,0,-2,-10,10,5,5
6717,32,-15,3,1,-12,4,-2,-20
6783,25,4,-2,-8,-15,-7,3,14
6845,-2,18,0,4,-14,-3,-1,-16
6905,8,-1,-3,3,-1,2,-7,15
6955,-18,-2,-3,-2,-8,1,-6,3
7016,-6,-3,-3,-1,-8,-11,-4,-21
7078,-16,8,2,3,4,7,2,-6
7140,14,0,-1,6,29,-1,-5,-9
7203,19,31,5,-6,-25,-2,-5,-6
7264,4,-14,-3,-1,-7,-4,-1,22
7324,23,5,1,-5,1,13,-1,10
7378,-27,-7,-1,5,11,-2,1,0
7428,11,-8,-4,1,16,1,5,20
7479,0,11,4,0,0,-6,7,34
7535,-5,-4,-2,-2,-10,-3,3,8
7590,-11,-14,-4,-2,-3,2,-3,-2
7651,18,-11,-4,5,4,-2,-1,-4
7706,-16,-1,-2,-5,-9,-8,-4,-6
7760,12,-6,-2,3,9,1,0,-4
7821,-11,-10,-1,-1,3,0,-3,-11
7885,-3,-3,2,3,-2,6,-5,-29
7949,-10,26,-1,-4,9,-6,-1,-1
8007,-8,-24,-10,-8,-4,3,5,23
8060,-5,0,-1,2,5,3,-1,-14
8115,18,-18,-4,0,-2,8,1,-11
8163,14,-7,-4,-6,-11,-4,-1,-6
8218,10,-2,1,1,4,-2,4,4
8268,-12,-1,-1,2,-2,-12,-2,-8
8329,21,5,3,1,9,-2,-2,-1
8388,-31,-7,-1,-5,-4,-7,-1,-24
8440,20,12,0,-7,-4,-1,3,6
8502,-18,1,-2,-10,-2,-3,1,-12
8565,14,-13,-3,5,3,4,-4,-1
8635,-3,-6,-6,-5,0,-3,-11,-35
8690,1,0,4,2,-9,6,3,4
8739,14,4,-1,5,-6,10,-7,-8
8806,-11,5,-2,-2,0,3,2,6
8869,18,-9,-5,-8,-7,-6,1,20
8928,1,-12,-6,-2,2,1,-4,-3
8989,-5,-8,-4,-1,-15,-5,-5,-11
9043,19,1,-4,-6,6,-6,0,15
9092,-17,-3,-5,-5,8,6,0,-5
9145,10,1,7,2,-1,6,-2,15
9199,24,15,4,1,2,5,-3,22
9252,-8,-8,-1,-5,-6,-6,-6,9
9312,-16,-14,-2,2,-3,1,-9,-31
9370,6,-10,-4,-4,-1,-4,-9,-14
9422,16,10,4,1,-1,1,8,15
9480,-11,-3,-3,-1,2,-7,-1,5
9532,10,-1,-5,-10,-4,4,12,0
9582,-3,2,-2,-2,-12,-4,-2,2
9634,16,7,0,3,7,1,-2,15
9690,-3,-5,-4,-14,-7,-10,0,-17
9754,10,-8,-2,2,-3,-2,-3,-1
9813,-14,13,5,3,-5,-7,-9,4
9874,-13,-13,-3,-2,8,-4,-4,5
9930,21,-2,-1,4,-1,5,2,-10
9977,0,20,-1,1,1,-3,-6,-22
10031,-4,1,1,-5,12,-1,0,-8
10083,-8,-5,-6,-8,-11,-13,-17,-6
10135,6,0,0,-6,-4,-3,-2,6
10192,15,10,2,5,5,-4,-1,9
10240,13,15,7,7,-3,1,2,14
10295,-1,1,1,-1,-3,-9,3,15
10352,6,-16,-5,3,4,6,-2,4
10414,13,8,-2,-1,-6,9,3,22
10473,4,-5,-5,-8,-6,-3,2,5
10525,9,-6,-5,2,-11,10,3,-2
10580,-6,1,1,2,-5,-2,3,-5
10630,18,-2,-4,0,-2,-5,-3,-3
10690,13,3,4,3,1,-1,2,0
10744,-4,24,-1,-5,2,0,-5,23
10797,-2,0,0,13,13,3,-6,-7
10856,0,2,5,3,2,0,0,12
10918,6,6,-5,-3,6,-2,0,-18
10976,7,-1,-4,-3,5,-4,2,13
11032,-38,-6,-1,2,-5,-6,-3,-6
11092,1,-3,4,5,-2,-8,-10,-13
11156,5,11,1,0,-5,0,-2,12
11217,2,-6,-3,1,5,-1,6,8
11276,5,-1,3,2,8,-11,1,0
11327,16,-15,-6,-7,-7,-5,2,14
11387,19,-7,-4,3,1,1,3,0
11433,-10,-5,-3,-2,-6,-6,-3,-35
11483,-21,-10,-3,-1,1,4,2,-10
11539,10,0,2,1,-5,2,-1,30
11590,-2,-3,2,-3,-10,-6,0,-9
11649,10,11,-2,-7,-7,-1,-2,-1
11704,-5,-14,-1,-2,-3,3,3,-11
11756,-30,-7,-2,-1,4,4,2,-5
11814,7,10,-2,14,5,-9,-4,-8
11877,-7,2,-1,2,-1,0,6,6
11936,1,-1,-1,-1,4,5,2,-7
11996,-1,-5,0,1,-6,15,-3,-1
12048,-15,-11,-1,-1,-8,-6,2,3
12105,-8,6,2,1,-3,-3,3,10
12153,16,2,0,-2,-1,1,9,9
12208,13,32,11,6,2,1,-1,10
12260,14,27,5,3,-4,4,1,13
12318,26,1,2,-2,3,-4,-2,2
12378,-9,-5,-2,-1,3,2,2,-16
12434,5,-10,-5,1,0,7,-3,-6
12493,-13,-10,-3,-4,0,-7,-3,1
12557,-7,-2,5,3,1,3,4,8
12620,-21,5,6,5,-2,3,3,-22
12679,6,-9,-9,-5,1,3,-2,-1
12733,2,-7,4,4,-1,-4,-4,-5
12782,-3,-2,-1,-4,-1,6,-4,4
12835,-11,-20,-7,-7,3,-7,-4,-28
12889,-4,6,2,-4,0,0,0,4
12941,-30,-2,4,5,-2,-12,2,11
12999,11,-7,-1,-1,-3,-4,-2,6
13061,23,-6,0,2,0,1,3,26
13122,2,18,5,10,6,3,-5,-2
13174,7,-2,-2,-3,-3,1,-4,-22
13236,4,11,1,2,2,-3,-1,4
13300,-13,-2,0,3,3,0,-1,-13
13361,6,6,-6,-8,-8,-2,5,13
13421,10,3,0,-2,0,-1,-4,4
13476,-22,-22,-10,1,-7,-8,0,2
13538,3,5,3,-1,-2,-2,-3,-19
13600,-11,-6,3,2,9,2,-5,-2
13661,-30,-1,-2,6,1,-2,-3,-17
13718,-2,-4,-1,-2,-1,2,-2,11
13765,-66,-12,-5,1,-2,0,-1,1
13818,-7,3,-2,-6,-12,9,3,-8
13878,-27,-1,2,-1,-3,-5,3,3
13935,-23,-1,1,-1,-5,2,-5,-2
13984,14,-5,-2,-4,3,6,1,-7
14041,-3,-3,-2,0,-5,-5,-4,-1
14103,-4,-15,-7,-2,-2,0,2,-17
14164,-12,-12,-3,-1,-2,-6,-1,3
14215,-1,7,-1,-2,5,-1,-1,-8
14277,-5,7,7,5,1,0,0,-10
14328,-27,-12,-6,-4,-6,-2,-1,-3
14383,34,-8,-4,-3,-2,-10,1,27
14437,11,5,4,-1,-8,-12,-3,-9
14486,-5,0,2,0,-2,-3,7,7
14547,11,-14,-4,-3,-1,8,0,21
14608,-21,-9,0,2,-7,-8,6,-6
14672,0,-1,-3,3,4,3,-9,13
14719,-2,2,3,2,0,-3,-12,-3
14787,10,2,-4,-3,-2,-4,1,3
14846,-2,-8,-8,-8,-9,6,2,-14
14908,-13,-3,1,0,5,0,-5,-20
14969,16,-11,-3,2,13,5,-4,-2
15018,-9,5,1,0,5,-5,-3,10
15081,-9,-5,-2,-3,1,-2,-1,1
15150,25,19,10,5,1,-12,1,14
15210,4,-17,-6,-8,-11,8,2,12
15271,-3,14,2,2,2,2,2,11
15318,27,-1,-1,-1,3,7,-9,7
15380,9,3,-2,-2,-1,-3,-6,-13
15442,-17,-4,0,-3,-7,2,-4,-8
15504,10,4,-5,-4,-3,-1,-5,5
15567,-23,-1,-5,-1,-4,6,4,0
15626,-14,12,9,7,7,4,2,8
15680,-28,-18,-5,-5,-6,-3,-3,-9
15730,9,-6,-1,10,-3,0,8,8
15782,-10,0,-9,-2,-9,-3,-2,9
15837,-7,0,0,4,5,12,-2,17
15889,0,-3,-2,-3,-8,-1,0,-31
15948,10,-2,-2,-2,3,-2,-4,2
16009,-6,0,3,10,-1,2,-4,-14
16068,0,-2,1,3,-2,7,-7,-4
16124,-20,-5,5,7,-4,-1,-4,-9
16187,-1,-11,-4,0,1,-4,0,-3
16248,-3,-2,-4,-1,-5,3,-2,-9
16308,-3,0,1,-1,15,-8,-12,0
16363,-14,-20,-7,-5,-6,-3,8,-5
16423,-25,-3,-2,-4,4,-7,1,-27
16487,-3,3,4,4,15,6,3,-9
16549,26,-8,-4,-1,0,-2,-5,18
16608,8,5,1,7,27,9,0,17
16670,-5,16,1,-3,-6,2,-6,-11
16720,-17,-10,-6,-5,-8,-5,-5,-7
16773,11,1,3,2,-3,-1,-6,-13
16825,-6,-10,0,5,3,-3,-12,13
16877,-9,8,3,3,9,-4,2,10
16932,-34,-8,-2,-2,10,-5,1,-17
16991,-11,-7,-1,0,2,2,4,1
17051,-13,-20,-1,0,-6,-6,-7,-12
17112,13,12,7,1,-3,3,-7,-5
17174,-22,-4,2,3,1,-4,-1,-8
17224,9,-1,0,-2,4,2,-3,13
17291,1,1,1,-2,-5,-2,-2,3
17354,-5,-15,-2,2,3,-1,-4,2
17414,-9,-9,1,4,14,8,-2,-1
17473,-11,-11,-3,2,-3,-13,0,-18
17522,-12,-3,0,2,2,-7,-1,-20
17575,17,7,2,2,16,-3,-3,5
17629,-16,3,-2,-6,-11,-16,-2,-2
17685,4,14,3,3,1,-11,-2,-26
17733,11,-3,-3,-2,-1,-1,-4,1
17791,14,4,1,-4,-5,-2,3,1
17853,17,-9,-2,-1,-5,-8,0,1
17913,-24,-15,-4,-2,-5,-12,-2,-21
17965,9,1,-6,-3,7,7,-3,-4
18019,-10,-2,2,1,-1,1,-1,-8
18070,-3,5,-3,-5,-6,13,13,6
18124,19,12,2,4,-2,0,1,-5
18175,6,-5,-3,1,-7,-5,-8,-18
18228,27,3,3,7,1,7,1,-2
18280,-12,-3,-2,-3,-4,-4,2,-2
18333,8,-8,0,-1,-3,11,1,-4
18392,13,-2,1,1,-3,-7,-7,-4
18453,-37,-10,-2,-3,6,12,-8,-32
18504,31,0,1,-1,2,1,2,14
18561,5,7,4,-4,-8,-2,-4,13
18611,40,7,3,-1,-4,4,-1,32
18662,17,-4,1,3,-4,6,4,5
18716,-12,11,0,-4,-4,2,-6,2
18772,-33,-10,-1,2,4,-6,-3,-5
18836,7,3,2,1,-11,-1,-2,-6
18896,40,9,6,-1,-1,4,2,-7
18957,-14,-4,-4,3,0,-3,0,-4
19008,12,2,0,5,0,-7,1,9
19060,46,-2,1,2,11,1,-1,15
19113,15,2,3,4,-4,2,2,0
19166,12,-2,2,-4,11,0,-5,-4
19217,28,11,8,5,2,3,-1,-1
19278,-23,-5,-3,1,-2,2,-2,-12
19325,35,-1,-2,-2,-8,1,5,25
19376,-14,38,6,3,-2,-2,1,1
19432,18,0,-2,-6,-8,1,-4,3
19496,-2,-3,-4,9,18,4,-6,-20
19556,-7,-9,-2,-2,-12,-5,-7,-27
19616,-11,-5,-3,0,-4,3,0,-34
19668,-2,-6,-1,-2,3,-5,-6,-37
19722,10,0,-1,-2,-1,4,4,11
19773,-12,-10,-1,4,0,3,0,-6
19828,13,2,-2,-1,-4,2,1,0
19879,32,24,2,-1,-8,-3,-2,12
19939,19,3,0,0,6,-3,-5,13
19999,10,-13,-2,6,2,-17,-5,-25
20059,10,-2,-1,5,0,7,-3,-6
20110,25,16,5,0,-5,-21,-2,25
20173,5,14,5,2,1,0,1,8
20236,-5,-9,-5,-2,-5,1,-17,-20
20298,25,1,4,-1,-5,-4,3,8
20358,-34,3,2,3,-19,-6,-1,-9
20418,-8,2,4,-7,-8,-2,2,2
20471,20,-4,-4,-4,-7,1,-1,0
20522,28,-5,-1,-1,-10,-3,7,36
20576,-19,2,-1,-1,-11,8,5,8
20630,-2,-7,2,-6,-3,1,-4,4
20682,-1,-7,-3,-1,-5,-1,1,-2
20741,-9,0,-7,-3,-8,-10,1,29
20801,16,4,2,-1,-4,1,-2,6
20867,-17,-4,-1,1,2,-3,-3,-6
20911,-9,5,6,10,2,5,4,0
20978,-1,-2,4,3,-8,9,-1,-13
21042,2,-9,-7,-3,-6,4,-4,-13
21107,-10,2,0,-7,-15,-4,-3,2
21162,-34,5,-1,-2,-10,-4,-1,13
21214,-9,-4,-6,-7,-3,-5,-6,-1
21265,-13,-13,-9,-6,-5,-4,-5,-24
21320,-54,-3,-1,6,5,9,-5,-29
21371,-1,1,1,1,3,5,0,-18
21424,16,-7,-4,-2,2,8,-3,-3
21480,16,-4,1,-6,-13,-1,4,9
21541,-2,-2,-2,-1,-6,-8,9,3
21604,-13,-2,1,0,-2,3,1,15
21664,-17,-6,-3,-4,-5,-2,1,-20
21717,-11,4,5,-2,1,3,-4,-5
21781,-13,5,4,0,2,2,0,16
21844,-9,5,-5,-6,-2,9,0,6
21904,7,10,-2,-1,1,2,3,6
21955,-20,-10,-2,-6,-5,20,4,-30
22019,-2,-12,-3,-12,-4,4,0,-2
22083,18,-11,-4,1,-5,-6,4,14
22144,8,-4,-4,-4,-5,-2,5,5
22204,-3,1,1,-3,-1,1,-3,-14
22258,-4,-12,-5,-2,0,-10,2,-7
22322,-30,1,3,2,12,0,-7,-24
22375,-15,-5,-4,-5,-8,4,5,-13
22431,10,7,3,6,3,-5,-3,4
22480,-4,5,0,4,-1,-2,-2,-11
22542,4,0,-2,1,-2,10,10,-5
22591,-4,4,4,2,6,6,-4,-14
22645,-1,2,0,-2,-8,-1,-1,-9
22700,16,-12,-6,-6,-5,-2,0,16
22762,-3,12,6,-1,4,6,1,6
22825,1,3,4,0,-5,-7,-3,16
22887,-9,-1,0,-2,1,1,2,12
22938,5,19,2,-2,3,24,2,-37
22999,7,-8,-4,-2,1,-6,2,21
23064,2,-4,-4,-2,7,-1,-4,6
23127,22,10,0,-1,0,0,-3,-17
23186,10,1,0,2,-4,-5,-2,-27
23247,-7,-15,-3,-7,-8,-3,2,9
23307,13,6,0,-1,-1,-4,-3,-13
23360,24,6,3,0,-7,-5,-3,11
23424,-6,-3,-3,-2,3,3,0,-12
23487,14,0,-3,0,-6,-3,1,3
23547,-2,-11,-2,1,12,12,1,-11
23598,0,-2,0,0,0,0,0,17
23651,7,4,-1,1,1,-2,-3,-22
23702,16,-11,-3,-3,-5,3,-4,16
23755,-5,0,-4,2,-1,7,-1,-4
23809,-5,-3,-3,0,-4,-11,-4,16
23864,2,-7,0,-1,-1,1,2,2
23925,-7,-17,-6,-3,-1,13,1,-9
23989,-6,0,1,-1,-6,-2,2,-11
24048,-2,0,-2,-2,0,-5,-4,8
24103,-20,-13,-5,-5,-5,2,3,-13
24153,-11,-7,-3,0,-1,0,2,7
24207,1,2,-3,1,-1,-3,3,8
24257,37,12,0,-1,-4,2,2,13
24320,1,-6,-2,-2,-3,-10,-3,5
24371,5,-7,-2,-2,-2,-7,-2,-4
24429,6,0,-3,1,0,4,2,3
24496,-12,-9,-6,-2,-4,-8,-2,-14
24541,4,-8,-4,-4,1,-4,-1,10
24595,10,6,8,1,-1,0,4,-3
24649,-32,-1,0,-1,-1,-3,3,-3
24700,-5,-2,-2,-1,0,-3,-5,-2
24754,13,1,3,3,5,-2,-1,2
24807,2,-1,3,1,0,2,1,11
24857,11,1,0,-1,-3,-7,0,-7
24911,8,13,4,-2,-2,-2,2,1
24966,14,-6,-4,-1,-1,-4,1,-7
25029,-12,6,2,2,1,-1,-3,-5
25091,11,-5,-1,-1,-1,3,-7,-1
25151,4,0,2,-4,-4,-3,-2,10
25203,13,-10,-5,-1,0,8,0,-8
25255,12,3,-1,-3,4,12,3,15
25307,-10,-7,-3,-2,3,5,2,18
25360,-14,-10,-4,-1,-2,-6,3,0
25414,3,4,-2,0,-4,-5,-1,6
25471,7,-8,0,1,-1,-8,-4,21
25533,-1,-13,-4,-1,3,6,6,-17
25594,11,4,0,1,2,3,1,-5
25645,11,8,1,2,0,-1,-1,5
25700,-1,-9,-3,1,-3,-4,-3,2
25750,-17,-4,-1,1,1,-7,-6,-9
25801,0,7,-2,2,0,-3,3,1
25856,1,4,1,2,0,3,0,11
25912,-1,-1,-3,0,-3,-6,2,4
25975,-5,1,-3,1,2,1,0,6
26036,-2,0,-1,2,-3,-11,-5,9
26096,-13,0,0,1,-1,-4,-1,-10
26148,2,-5,-4,-2,-1,-2,2,9
26203,2,-3,-5,-5,-3,5,2,-19
26253,6,-6,-5,-4,-3,-5,2,13
26305,-5,1,-1,-3,-5,0,0,0
26358,1,-6,-1,-1,-9,-1,-2,1
26410,-1,0,-3,2,6,6,-5,-4
26461,3,4,-5,-9,-1,7,6,2
26516,6,6,-3,-3,-1,5,2,4
26572,2,-6,0,0,3,-9,2,14
26635,-13,-1,0,-2,-4,-1,2,18
26695,13,4,1,-5,-4,2,0,-9
26746,-5,-9,-2,0,1,-2,1,-6
26802,-1,-8,-2,-1,-4,-6,-4,8
26853,-12,-3,1,-1,-5,-10,-3,-7
26913,-17,-7,-4,-5,-3,-2,-4,-12
26966,-5,3,-2,-2,-4,0,2,-1
27018,13,5,-1,-1,-3,2,3,10
27076,2,2,-1,-3,-2,12,1,-1
27138,3,2,-1,-3,-4,-2,-6,-1
27199,3,-6,0,0,-2,7,-6,19
27249,5,9,-1,-1,0,15,3,-4
27304,23,-1,3,2,3,6,-1,-1
27355,1,29,2,3,3,2,3,-7
27407,-88,12,4,7,11,-6,-10,-18
27461,-50,-4,-2,1,16,2,3,0
27512,-10,-9,-5,-2,-1,-12,-4,12
27569,-5,3,-1,3,1,-9,-2,-10
27618,-28,-13,-2,1,1,6,5,1
27677,-18,-6,-6,-7,-2,-5,4,-31
27738,-16,37,18,10,14,-5,-3,-3
27801,-1,-1,-3,-1,-16,-14,-8,4
27861,39,12,6,-2,-12,-11,-3,13
27911,-41,-3,-6,-12,-9,-13,-13,-24
27962,-51,-19,-9,-15,-23,-6,-3,-46
28015,13,-22,-3,-4,-4,-4,5,39
28075,20,13,-5,-12,-20,-7,-3,12
28129,-78,-27,-11,-9,4,2,2,-56
28182,-7,3,-3,-3,10,-6,-10,-28
28239,-58,-34,-5,6,2,8,-14,-36
28301,35,6,-6,-5,-6,3,-14,-16
28362,-5,-1,1,-2,-5,-13,-4,19
28414,-36,-29,-10,-10,15,-2,-3,-27
28476,-2,-9,-3,-7,-10,-8,-3,-1
28538,-19,-3,-2,-2,-1,-8,5,-9
28600,19,-31,-11,-1,0,-3,-2,12
28661,32,14,-9,-17,-13,-21,-9,-2
28712,-9,-17,-8,1,-3,1,1,-20
28776,-23,2,0,-4,5,4,-4,-28
28831,0,-4,-12,-3,-6,-9,-3,-6
28882,9,-10,-2,1,-4,4,5,-6
28932,-3,-3,-5,-3,-2,0,-2,-1
28983,-3,-5,-1,3,27,5,6,-16
29043,-17,-3,-1,-3,-7,-14,-9,-14
29104,-2,-7,0,-2,-5,-4,-1,5
29164,31,0,1,7,6,3,1,24
29214,-23,-14,-5,1,-6,-2,0,4
29276,-21,-7,-1,-1,-5,-11,1,-8
29348,-4,-7,-9,-1,-1,-18,-2,-16
29405,2,-8,-3,-1,0,0,-4,18
29465,-19,-9,-4,-3,-6,-2,3,-3
29525,-28,-5,0,-1,-6,-1,2,15
29577,-36,7,3,0,5,-3,2,-9
29640,1,-13,0,2,1,-2,-7,-1
29708,22,-14,-3,-6,-4,9,6,17
29768,24,11,4,1,3,8,3,13
29814,35,-6,-8,-4,15,-2,5,5
29867,-19,-7,-3,2,10,-1,-3,-4
29920,-5,0,0,-1,9,3,-4,-12
29975,25,7,8,11,5,-4,-12,26
30027,14,-16,-3,7,-1,9,8,25
30080,5,18,10,7,-5,3,8,-5
30145,-48,16,7,-2,-4,-12,-7,-8
30213,5,-26,-13,-6,-16,0,0,33
30273,-3,-13,-4,2,-6,9,-4,9
30319,-51,-30,-10,9,38,4,7,20
30386,-14,-19,8,2,-20,-3,-4,-10
30453,-21,-23,-10,-5,5,6,4,32
30514,42,36,9,0,-1,4,-2,21
30571,-15,-22,-10,-11,-15,2,-2,-12
30620,6,-7,2,-3,4,2,1,12
30681,-12,5,0,2,7,2,-2,-12
30745,-8,28,5,1,-8,-4,-3,-9
30805,0,-12,-16,-7,7,8,4,-15
30866,-12,-3,6,-2,-1,-4,-7,18
30918,25,-13,-6,-2,-4,-2,2,29
30977,12,-9,2,8,-8,-6,1,6
31031,-19,-11,-8,6,10,-7,-2,-20
31088,18,-10,-4,1,-1,-5,2,14
31138,13,-7,-3,4,-7,-11,-11,6
31189,30,17,4,2,-5,-3,-1,5
31250,-5,-18,-14,-2,13,-13,4,31
31309,6,-5,-1,-3,-4,-3,-1,26
31364,-4,-11,-2,0,8,-2,-1,16
31425,10,-2,3,6,0,0,6,29
31486,-11,1,-1,-4,-5,3,-2,13
31549,-9,-8,-8,-2,-2,3,3,3
31609,2,-1,2,-4,7,6,6,-1
31669,25,-8,-5,-7,-3,0,0,27
31726,0,2,-7,-4,-1,-2,-2,-13
31789,10,-13,-5,-3,-2,-1,-3,7
31850,4,1,-1,6,3,-13,-10,-11
31910,-2,6,-6,-2,5,3,2,1
31970,-7,-3,-4,-4,-11,-7,7,35
32029,1,-11,-5,-5,-17,4,1,13
32083,1,5,2,1,4,-6,4,-3
32134,-19,11,2,2,-9,-11,-7,-10
32186,5,5,-3,-4,-2,-2,-4,-4
32244,33,52,5,-2,-5,-4,1,19
32291,-27,-13,2,4,8,-11,-5,-16
32349,3,11,9,7,2,0,-3,-28
32411,-16,10,6,6,-10,6,-3,4
32471,-37,8,6,-2,12,-2,-6,-21
32524,46,20,5,3,-5,4,2,15
32587,4,-18,-3,1,5,-6,2,-25
32650,-4,-8,4,7,-6,-12,-8,10
32711,-13,9,-4,-18,-7,3,-5,-12
32771,12,-10,5,10,-2,2,1,26
32823,0,32,2,-7,5,7,0,1
32874,-17,17,4,-11,-19,-3,-4,-9
32932,10,-2,3,-3,-13,-7,-1,-1
32984,4,-12,-12,-7,-1,6,7,5
33034,3,-10,-12,-6,-2,1,-2,-2
33091,11,-20,-4,7,-6,-6,3,-2
33155,-8,-5,-2,1,2,-2,3,-16
33216,43,46,15,-3,-3,7,-1,26
33267,10,1,-4,-1,7,1,4,-22
33317,3,4,-3,1,1,-5,12,22
33371,6,1,-4,-5,-7,-7,0,-4
33422,-12,11,-2,-7,3,6,6,13
33476,6,15,5,0,1,17,7,7
33533,23,-1,-8,2,2,7,-16,40
33598,12,23,4,3,7,12,13,0
33655,5,11,5,-1,-1,4,-11,48
33716,47,4,-6,-3,-3,7,22,-9
33767,16,15,4,-1,3,-8,-5,13
33825,-4,-12,-4,-1,1,-10,-5,1
33872,23,-22,-10,-2,-2,-2,6,39
33926,13,-2,2,6,-1,22,-4,-4
33978,-6,4,0,4,-1,3,-2,-21
34036,15,8,3,6,-7,-19,4,23
34082,20,30,8,2,-7,-4,-7,8
34135,-2,-12,-6,-2,-12,4,7,-1
34195,9,11,-2,-4,3,-3,0,30
34255,-22,2,5,1,4,-2,-7,-13
34316,11,11,0,4,2,0,-11,-7
34371,7,-16,-16,-14,5,8,10,9
34420,43,56,13,6,1,3,-4,13
34473,-18,-7,-9,-12,-3,-3,-2,-6
34526,4,-4,1,4,5,2,-1,31
34586,-12,9,-4,-8,-14,-9,-6,-15
34642,-27,-29,-7,-5,-3,0,-7,-15
34703,5,-7,-6,-2,-4,2,-1,9
34764,14,-10,9,11,-3,-13,-22,9
34824,0,-26,-4,5,-4,-3,-8,0
34870,1,-10,-2,3,4,2,3,5
34922,-18,-10,-4,-6,0,10,5,2
34978,3,2,-1,6,7,-2,-1,-20
35029,2,3,0,-7,-2,2,-2,3
35080,9,16,12,2,-16,-1,1,0
35132,17,-2,-4,-1,-5,5,-2,18
35190,-6,-2,5,1,0,1,0,-16
35240,11,-11,-5,-7,1,-1,-6,-6
35298,23,42,10,4,5,5,7,21
35360,-13,-3,1,0,-3,3,2,8
35419,-29,-10,-13,-5,-5,-5,-3,-11
35472,7,-5,2,-1,3,4,3,-3
35522,1,-6,-5,-6,-6,-2,-2,5
35575,4,15,-1,-3,0,1,5,-9
35627,-3,-17,-5,-3,1,3,2,3
35681,-6,0,3,-1,-10,-2,-4,17
35745,0,1,-5,-2,-7,-2,-4,-18
35800,3,4,0,4,12,1,2,7
35863,3,12,5,1,-4,-3,0,-14
35922,2,-5,-6,-4,-4,3,-13,5
35976,6,11,6,6,13,3,7,14
36038,-21,-7,-2,0,-4,-6,-2,-6
36101,-11,-16,-3,1,0,0,-1,-1
36161,1,19,3,1,-7,-6,-4,-13
36223,8,22,6,-1,1,-3,5,19
36274,-8,-6,-6,-1,-6,3,2,8
36324,-2,0,1,-1,-3,0,4,-27
36379,0,-1,-2,1,-1,1,0,9
36432,-2,-8,-7,-5,-6,0,-10,26
36484,-1,-2,-3,-2,-1,-3,-4,-2
36545,-10,-8,-4,2,-1,2,-1,-4
36607,-10,1,0,-3,1,-2,0,-5
36665,-36,-12,3,0,-6,-2,1,8
36714,5,0,1,-2,10,-3,3,11
36779,-9,10,0,4,-10,-8,-5,-7
36848,-34,-4,0,-1,-37,-9,-4,-15
36910,10,-3,1,-4,14,3,2,-4
36970,59,8,4,5,-53,-12,4,18
37027,94,26,7,6,16,5,9,82
37077,15,-12,-2,13,-4,5,-8,3
37138,39,20,5,2,-5,4,12,49
37201,3,-13,-1,33,34,2,2,10
37263,-13,-3,-4,-4,3,8,-8,-3
37324,-3,-17,-4,4,-6,-10,-3,-17
37377,-7,-4,-3,1,2,5,-9,-65
37427,0,13,0,-7,4,0,4,-32
37480,12,-10,-1,-1,14,-1,1,-7
37534,-5,7,2,2,2,2,0,-7
37588,18,16,6,4,10,2,-9,-7
37649,9,0,2,6,34,1,-5,-5
37710,-28,-13,-5,-3,-15,10,-4,-5
37758,-3,-3,0,-1,-4,0,-1,-2
37820,21,0,-1,1,2,12,6,-7
37883,-41,-3,1,2,17,1,1,-8
37949,-6,3,5,6,1,-1,1,1
38007,11,1,1,0,-10,7,14,23
38057,18,2,-3,-8,1,2,-5,27
38115,4,-6,-3,1,2,16,8,12
38163,-3,1,-1,1,3,-4,-2,-8
38213,-6,-1,3,3,2,4,-1,2
38269,18,4,1,1,-2,0,6,40
38325,-1,-10,-5,-1,0,-9,-3,4
38391,3,27,4,-2,-4,-16,-4,-3
38450,10,-5,-3,-3,3,18,0,-2
38508,5,10,3,5,-3,4,-2,1
38560,13,-1,0,-3,-11,3,2,3
38631,3,3,-3,-1,8,0,2,-1
38691,-3,-4,1,4,12,-3,-7,-6
38751,-30,-10,-4,2,6,-7,-4,-11
38812,3,3,3,-3,-2,-6,-4,-10
38859,-21,-7,-8,-4,-7,-4,-4,-39
38922,-20,-6,-4,-3,-3,4,-4,-1
38984,-8,-13,-4,-1,-1,-6,-2,4
39048,3,-4,-2,-3,-5,-3,-9,-28
39110,2,0,-4,-8,-2,-15,0,21
39169,-19,2,-2,-2,-4,-4,-2,-4
39222,-16,3,2,-1,-1,4,-4,-9
39285,2,10,5,2,-4,0,2,1
39349,4,8,-2,-1,2,-6,-1,-16
39409,4,-1,2,-3,-5,2,0,12
39471,0,12,2,0,2,-2,1,5
39521,-3,-3,-4,0,-2,-7,0,2
39580,15,7,1,-2,-1,-2,-2,6
39631,-17,4,1,1,-4,18,-2,-12
39684,-26,-1,-1,2,1,4,-2,-1
39745,-13,5,-2,2,3,3,-3,-15
39792,-1,-14,-6,-6,-12,-25,-8,17
39850,-20,-2,-4,0,-3,13,-5,-37
39911,-21,-16,-5,1,2,-5,-3,-6
39967,16,6,-2,-2,-10,8,5,6
40029,-31,-2,-2,-4,-7,-8,0,-16
40092,17,3,4,4,25,5,11,12
40152,3,-4,1,4,16,4,2,5
40202,-17,-9,5,-2,3,1,9,-7
40255,1,-7,2,0,-2,-2,0,19
40309,15,33,6,-1,-4,0,-4,-21
40368,15,1,3,2,11,9,-5,-16
40422,8,7,-1,-6,-9,-12,-3,-1
40474,-25,-10,-3,-5,-7,-11,-11,0
40533,28,-5,-2,0,-3,-3,1,24
40593,26,5,0,-2,6,-1,4,3
40653,-23,-15,-8,-2,-3,-5,-2,-10
40707,-13,-14,-5,-3,-1,4,-1,-9
40768,-8,-1,2,3,-6,-14,1,13
40832,7,-3,-3,-1,5,-2,-5,-11
40893,23,-6,-1,-1,-4,-10,5,-2
40954,25,5,-3,-1,0,13,0,9
41015,-7,10,-1,0,-4,-12,-12,-25
41073,-4,0,-3,2,-4,-3,-3,-4
41134,21,15,4,0,0,-9,-7,9
41196,3,6,5,3,1,-5,-3,-13
41245,-3,1,-1,0,3,-1,3,13
41298,-15,14,2,-1,9,2,-1,1
41350,2,-1,0,1,-1,-10,2,0
41403,-2,-16,-11,-7,-1,0,-3,9
41457,-19,-3,-4,-3,5,-2,0,-16
41507,-5,-1,2,-1,-12,-7,-2,-7
41560,-10,-7,-2,-1,3,-3,-4,-2
41613,-14,0,-1,-2,-7,-4,-3,5
41665,-43,-5,1,-2,-7,1,1,-19
41724,-29,-3,2,0,-3,-5,-3,-29
41769,-16,-1,-1,-6,2,9,-2,15
41822,22,2,-2,-2,-8,8,4,-19
41875,27,3,1,17,-3,3,1,-1
41929,-16,-5,-3,-6,-9,0,1,10
41980,-18,-9,-2,-1,1,-9,-2,-1
42036,16,0,-3,-3,1,4,-1,-2
42088,-27,-3,-5,2,7,-2,-4,-8
42139,-15,-4,-2,0,3,-5,0,14
42197,-15,-5,0,4,3,1,-5,3
42258,-1,9,-2,0,-4,-6,1,6
42318,5,-2,0,-1,3,1,0,-4
42373,1,1,2,2,-1,5,3,11
42422,11,-4,0,-1,-2,-3,3,-7
42476,5,3,-2,-6,-14,3,1,5
42526,-2,9,2,-4,0,5,9,-2
42583,-4,0,-2,-4,-6,3,3,-6
42632,-3,-3,-1,-1,-2,-3,-3,-15
42686,-5,-1,-4,-2,5,7,-1,-12
42740,-2,-1,-1,-1,1,-10,-5,-34
42799,-11,1,-1,2,-2,-10,-4,2
42859,3,15,0,-5,-5,-2,-2,2
42920,0,-4,-4,-5,0,-5,-4,-6
42969,4,2,2,-2,7,6,-9,-4
43022,10,15,4,7,-1,-5,4,6
43076,3,18,5,1,7,10,10,13
43135,2,10,1,2,4,2,2,0
43192,-2,3,1,-3,-1,0,-2,1
43242,5,-7,-1,-1,9,-2,2,-6
43299,-18,-6,-5,10,5,-1,-3,-14
43361,-1,4,2,0,3,14,0,-5
43421,5,0,0,1,-3,4,-2,8
43473,4,1,1,0,1,1,3,2
43525,-2,1,0,3,-3,-5,-5,-2
43578,5,-3,-1,1,-2,-4,1,12
43629,-4,-1,-3,-4,-1,3,-2,-5
43682,-3,2,-3,-2,-3,6,-6,-24
43735,10,-3,-2,-2,4,2,2,-1
43787,-8,-16,0,-6,3,4,-2,-10
43842,9,-7,2,1,1,1,-3,3
43900,-5,-5,-8,-7,-3,-8,0,-8
43960,-3,0,-2,-4,-4,-4,-5,-6
44021,-10,-2,-1,-4,-9,-17,-1,-1
44072,-1,7,1,1,1,-1,-6,6
44125,24,6,-1,-3,4,7,0,-12
44177,-3,-6,-2,-5,-3,-4,-3,-3
44238,9,5,5,4,8,1,2,15
44292,17,6,4,0,-1,1,-4,-7
44345,2,1,1,1,0,-3,2,2
44401,-9,0,-1,1,-1,0,0,-27
44464,-10,-6,-3,0,1,-1,2,-13
44523,-10,-6,-7,-4,4,-1,0,-8
44584,17,-10,-5,-6,-19,-13,-2,4
44635,0,4,6,2,3,-11,1,-4
44698,11,8,1,2,0,-4,4,15
44764,7,7,-1,-2,-6,-9,-7,10
44825,4,-3,0,-3,-4,-3,-3,-20
44883,-2,34,7,1,-4,1,-2,-27
44934,-4,3,-1,-5,-5,-2,-4,21
44987,9,6,-1,-4,-4,-1,7,18
45040,3,1,0,1,4,-1,-1,-14
45091,-4,-7,-5,-2,-4,7,3,-10
45146,18,5,0,0,-3,-2,0,-4
45204,0,5,-1,-2,-1,3,1,7
45265,11,2,-1,1,9,0,6,8
45332,2,-5,-2,-6,-9,6,-1,-14
45391,1,-1,-2,2,-6,-7,3,15
45437,3,-11,-5,1,-7,4,1,-17
45500,23,-7,-4,0,4,2,3,11
45562,30,-2,0,9,-3,-4,-4,-7
45626,-28,-6,0,-5,0,-4,-7,-14
45686,46,3,3,0,-8,-6,6,22
45747,-36,-9,-5,-4,-7,9,-1,10
45799,12,-2,0,-2,-5,19,-2,7
45861,-22,-8,-3,-5,-2,3,1,-6
45922,36,4,-2,-3,-1,-3,1,32
45986,1,-4,-3,1,3,0,-2,7
46047,-2,2,3,-3,0,0,-4,18
46106,10,3,2,3,-2,-2,-3,-4
46162,-66,-11,-6,1,-4,30,2,-36
46210,7,-4,-1,-1,0,-1,-1,4
46263,0,10,6,0,4,0,6,18
46317,-28,-4,-5,-2,4,-4,-4,13
46369,-20,-8,-2,5,5,1,-6,-25
46425,48,5,0,-1,-3,1,3,50
46488,30,-1,-3,-4,3,2,4,9
46550,-37,-6,-2,2,-5,-12,-10,-7
46603,-11,-3,-1,-1,3,5,4,-19
46663,4,-3,-3,-2,-3,-1,-8,-8
46724,-45,-15,-8,-6,-7,-2,1,-26
46793,-9,2,2,-1,0,0,-4,-26
46854,16,-7,-2,3,11,-2,3,20
46913,3,1,1,-2,2,0,-1,10
46960,-32,-12,-9,-5,0,-2,2,-11
47015,-3,2,2,1,0,12,3,-7
47071,13,7,3,2,4,4,4,-7
47127,9,2,0,-2,1,-1,-6,-16
47180,13,0,1,-1,-2,-2,2,17
47232,-3,-8,-1,-1,-5,3,-3,-8
47291,16,-3,-3,-3,1,1,0,-2
47352,22,-4,-2,0,-6,3,0,3
47411,-1,-1,0,1,4,-12,1,16
47463,-4,0,-2,-4,-3,-3,-2,19
47526,-6,-2,2,2,4,2,7,5
47587,19,4,2,1,3,14,1,6
47649,-5,3,0,-3,-8,-10,-5,11
47712,16,-1,-3,-5,1,2,3,14
47772,-3,3,0,0,-9,-2,2,-12
47827,25,9,4,3,16,8,-5,15
47875,12,0,-2,-1,0,-18,1,4
47927,46,-8,-2,0,1,-1,0,3
47982,21,-2,1,7,-5,-1,1,10
48034,8,-2,1,1,2,-2,-2,-1
48091,-3,4,4,1,0,1,-3,0
48153,-3,0,-3,-5,-1,-9,-6,-13
48213,-17,0,-1,-1,-3,6,-7,-8
48264,-2,5,-3,-1,3,6,-2,-6
48326,-20,-2,-1,-4,-5,1,-1,4
48378,7,2,0,3,15,-7,0,26
48431,-2,-3,0,-2,-3,-3,1,-1
48484,15,0,1,-3,-1,-2,3,4
48535,4,-5,3,-3,2,-3,-2,-1
48590,-10,-2,1,-4,-6,6,2,-12
48646,5,-8,-5,-4,-8,-1,4,10
48693,12,5,-2,8,3,4,2,1
48753,-3,-3,-1,1,3,-6,0,2
48813,-13,-5,-2,-4,1,-1,-4,-22
48873,-5,2,-1,-3,-4,-1,-2,0
48925,14,-6,-2,3,3,-12,-4,-2
48977,-7,-8,-1,4,10,-10,-4,-16
49031,-8,-1,-3,1,6,1,-1,20
49083,9,-1,-2,0,1,-3,2,4
49136,9,-8,-4,-2,-7,-3,0,14
49194,1,0,-2,1,-5,-11,-2,-10
49256,-6,-4,1,0,1,-6,-3,-10
49315,-40,0,-2,-5,-3,19,6,-24
49373,7,-7,-3,0,-6,5,2,8
49420,2,4,2,1,-6,5,-6,-15
49473,-27,-8,-8,-3,-2,-3,-7,-29
49526,-7,4,-1,-2,5,14,-1,-9
49582,22,-7,-3,-3,4,-4,-4,-10
49644,16,-3,0,-3,-3,-9,3,3
49698,14,-4,-3,-1,-6,4,-1,18
49749,-12,-3,-5,-2,-1,9,-3,-7
49802,3,-1,-1,-3,-4,1,4,-12
49855,-15,4,1,2,-6,-13,-6,-19
49905,-2,-7,-2,-5,2,2,-5,-15
49959,14,4,2,0,2,16,1,7
50012,-25,7,1,-3,-2,2,1,-1
50064,12,1,-2,-4,-8,-1,3,4
50132,15,-6,1,0,-7,3,3,-4
50178,-26,-4,-3,-2,-1,-20,-7,-25
50238,24,11,6,-4,-1,13,4,19
50299,-3,0,0,-1,-3,5,-2,-4
50358,16,4,-2,0,0,-5,0,5
50418,23,-10,-4,-3,-6,-6,-3,0
50472,0,-3,-5,-2,-3,0,-1,2
50536,6,0,4,5,0,5,-1,1
50596,-10,-1,-2,0,4,2,-3,-12
50659,-10,-7,-4,4,-1,-9,-5,-9
50711,-12,9,2,1,2,-1,-3,-12
50762,-13,-13,-3,0,-1,11,0,-8
50815,-17,-2,-3,-3,-6,-8,-3,-4
50876,7,-5,-4,1,7,-13,-2,4
50926,1,6,4,2,2,1,0,5
50981,0,-5,-3,0,-2,-4,0,-2
51041,5,-4,3,-2,1,0,2,9
51102,-2,-4,-5,-3,3,-4,1,3
51162,12,-4,0,2,4,2,1,26
51211,-4,3,2,0,1,-14,-3,-17
51265,-20,-2,-3,2,1,-1,-1,-9
51320,-2,9,0,2,-4,-1,-2,-11
51371,2,-4,-1,-1,-6,2,-1,14
51422,1,9,1,0,-3,-1,-4,-3
51478,-3,-7,-2,-1,-3,-6,1,-11
51542,1,-17,-4,3,0,0,-1,3
51604,0,-5,-1,-3,-1,-3,-2,8
51663,-22,-1,2,-1,1,6,0,-15
51717,-7,6,3,0,2,6,4,0
51779,12,0,-3,-1,-1,7,1,-1
51843,12,12,9,2,1,-2,-2,2
51903,-19,-11,-3,1,-1,-9,-8,-19
51956,-20,-8,-1,-2,-1,-3,5,-13
52017,8,-3,1,0,-2,6,7,16
52069,15,2,0,4,2,3,1,41
52121,-10,8,-1,-3,-6,2,-1,-3
52175,-1,-6,1,3,3,9,-2,-2
52226,12,2,1,1,10,-1,7,3
52277,-39,3,-1,-3,-5,-1,-6,-8
52332,1,3,0,0,-3,-2,-1,-6
52385,-13,0,5,5,-2,-1,0,-5
52443,23,-2,-3,-1,1,-5,1,9
52503,-24,-12,-9,-6,-12,-17,0,-9
52563,2,0,3,0,-2,1,1,22
52620,9,-4,-1,-2,-4,24,1,-6
52680,6,-4,-2,1,-6,-4,-4,2
52743,-6,-9,-7,-2,-1,2,2,17
52805,2,-2,-3,-2,1,4,2,29
52864,1,-6,0,2,3,-2,-2,7
52922,-2,9,4,-1,-1,1,-1,1
52970,0,-5,1,3,-3,0,-1,6
53019,-8,5,-2,-5,0,15,2,-2
53076,16,-5,0,1,7,1,2,-7
53126,1,-3,-2,-3,0,1,0,-13
53184,-5,1,1,-1,-1,-6,-5,-11
53246,21,1,-1,6,2,-4,-2,-1
53306,1,-2,-6,-4,-2,-2,-6,-7
53359,4,7,2,-4,-4,-6,4,11
53423,9,-3,-2,-2,3,11,-3,-2
53486,6,-4,-3,-2,-2,2,0,-17
53546,-2,0,-1,1,5,0,0,4
53598,-26,-2,1,2,4,21,6,15
53650,3,-2,-3,0,-8,-6,-3,-1
53704,9,-1,2,2,-4,1,5,7
53756,5,2,4,3,-1,-1,5,27
53808,-63,-6,-1,-1,-5,-9,-6,-31
53868,-3,-6,-2,-2,3,4,2,-7
53932,23,3,-1,-1,-4,14,-3,11
53988,-21,3,1,0,1,7,2,2
54038,30,7,5,1,-3,-5,0,13
54101,2,11,9,0,-6,-12,-4,-11
54167,18,4,2,-1,5,-4,-2,5
54230,-3,-3,-2,-1,-3,3,-5,-18
54290,1,1,3,2,1,0,2,15
54349,0,0,-1,-3,-2,-17,2,9
54406,-5,-13,-7,1,1,0,-2,2
54466,6,7,3,1,0,-3,-3,-6
54529,-12,-1,-1,-1,-2,-2,-1,-15
54588,7,5,-1,1,14,-5,-7,-10
54649,-22,-1,-1,1,3,3,1,-13
54706,-13,23,6,4,5,-4,-5,11
54752,6,-1,3,4,-4,-1,-6,1
54804,12,4,-1,0,-3,2,-5,-1
54856,8,-2,0,0,-6,1,0,-4
54912,-2,-1,-1,-1,-1,3,1,-11
54965,-18,-13,-3,4,7,11,-1,-24
55031,1,-9,0,5,2,2,-3,15
55094,-18,-3,1,4,-2,-15,-4,-12
55155,10,7,4,0,-1,2,-1,-6
55215,7,-2,-4,-1,1,-3,0,-8
55261,-4,0,0,0,-3,17,1,-2
55328,0,9,5,-2,-2,-1,3,-1
55396,7,-6,0,1,9,0,-2,-26
55456,4,-1,-3,-2,-2,2,-4,-5
55517,9,11,3,-2,0,-5,-2,-17
55563,1,-4,-2,-3,-4,-4,-1,-4
55615,0,-9,-5,-2,-4,-2,2,12
55675,5,19,1,-1,-6,-7,-1,1
55732,12,4,1,2,-2,-9,-2,8
55784,-4,0,-3,-2,-6,0,-2,-17
55836,-16,-2,0,-2,-2,4,0,-8
55894,-8,-5,-3,2,11,-11,-2,-2
55953,-10,3,1,2,5,7,1,24
56007,19,5,-3,-2,-1,3,-2,14
56068,-19,-6,0,0,-2,3,0,6
56130,-62,-9,-2,-1,-6,-1,-3,-14
56193,9,0,-2,1,-3,3,0,-16
56252,6,-6,0,-2,4,5,-1,2
56304,26,6,3,-4,4,-3,3,5
56359,9,1,0,0,-3,2,0,2
56412,6,3,-1,-3,-12,-15,-2,-1
56462,-9,5,1,0,-3,-2,-3,-10
56516,-14,-13,-4,0,2,-1,-1,-9
56574,-8,7,3,0,1,8,6,0
56641,-25,6,0,-4,-3,1,-2,-14
56700,-1,-2,-2,-4,6,2,0,-5
56748,-13,-3,-1,1,-1,10,-3,-4
56822,5,0,-2,1,6,-1,-1,-6
56878,-23,-1,-2,0,-8,-4,-2,-7
56937,-6,-3,-2,-2,-1,4,1,-2
56987,0,0,-3,-1,1,0,-5,-1
57050,15,-2,-3,-1,1,1,4,-6
57114,-12,-8,-3,0,1,-11,-4,20
57181,4,-7,-1,0,2,-2,0,-10
57236,20,4,1,1,0,5,-1,-12
57288,-7,6,5,3,2,5,-3,0
57340,-3,-6,-1,-1,-9,-4,-5,-15
57393,7,0,1,-2,-6,-2,-2,-4
57445,-10,4,0,-1,-9,-17,-5,-1
57499,-20,-10,-2,-2,-2,-1,-5,-22
57557,-4,-10,-1,4,5,5,4,22
57620,12,2,-5,-5,-6,-1,-1,0
57678,-14,-6,-4,-2,-1,2,-3,0
57730,6,14,3,0,1,2,2,1
57781,-14,2,-1,1,-1,-1,-6,-10
57835,9,4,0,-1,14,19,0,4
57887,20,18,2,-5,-6,-6,-5,-5
57942,-1,-26,-4,-2,-9,-9,-5,1
57992,2,7,4,7,17,0,3,-8
58045,10,24,4,2,3,4,3,0
58100,4,4,-3,-2,-9,11,5,6
58161,-3,1,0,-2,-3,-2,-1,-12
58220,-1,0,1,1,4,2,-2,-3
58268,-7,-6,-3,2,6,-3,-5,-2
58322,-3,5,2,-1,-2,3,3,11
58375,5,0,-1,-2,-2,-1,1,3
58435,-7,-3,0,0,-3,1,-3,18
58487,0,-2,1,0,3,6,-1,-9
58546,7,-2,1,1,-4,2,3,6
58599,6,12,5,2,3,-2,-1,0
58666,5,15,1,-2,0,-6,-5,2
58725,0,-3,4,-1,1,-3,1,-10
58771,8,15,4,-4,-13,-1,4,13
58825,5,-6,-7,-7,-7,-23,-3,26
58880,5,-2,1,1,6,7,6,26
58928,-2,-2,1,0,-4,-3,-4,7
58982,1,-6,-4,1,1,-1,-5,2
59039,-3,0,1,1,3,-4,-8,-19
59103,-1,-1,-1,0,1,-9,-9,-10
59163,5,7,4,3,8,0,4,0
59215,6,8,0,0,-1,2,0,4
59276,-1,3,3,4,2,-3,-3,-9
59341,-1,-1,0,0,-1,-10,0,23
59403,-1,-4,-5,-2,0,12,6,-2
59464,6,14,1,0,-9,0,0,-3
59515,3,-11,0,3,9,-5,1,-8
59578,1,-2,2,2,3,3,3,3
59640,-1,-12,0,1,4,2,6,13
59703,0,-2,0,-3,-9,-1,-3,2
59764,0,-4,-4,-2,-5,0,1,10
59815,-4,-3,2,-4,-3,8,-1,-5
59876,-2,0,1,0,3,-2,0,4
59938,4,1,2,2,1,-8,-5,4
59999,2,2,-1,2,-1,3,-6,-29
60061,-6,-3,-2,-2,-4,-1,2,4
60116,3,1,-1,1,0,0,5,23
60168,-1,0,-4,-4,-3,-27,-4,10
60218,2,6,0,1,2,2,-14,-12
60280,-6,-7,1,1,-5,2,2,-7
60342,1,6,1,0,-11,-8,-4,5
60391,-3,-1,-2,-2,1,4,-5,-5
60447,5,24,10,3,-5,-7,-7,-17
60507,-1,3,-1,-1,-6,-5,-5,-8
60566,0,0,-1,3,2,0,-3,-3
60628,3,8,-2,-3,-1,2,0,5
60676,5,-4,-6,-5,-4,-4,2,15
60738,0,-1,-2,1,0,7,1,5
60800,-9,-20,-9,1,2,2,3,-1
60866,-2,-1,-2,-6,-12,0,-3,-15
60926,1,1,0,2,3,-1,-3,11
60986,-6,-9,-2,-1,-5,10,-4,-16
61047,1,-6,-8,-1,4,4,0,-8
61106,-7,4,1,3,0,3,0,-8
61158,-3,11,2,-4,-3,-6,1,13
61209,-4,-1,-3,0,-1,3,4,-10
61263,1,3,2,-2,-3,-4,3,-7
61317,-5,-3,-3,-5,1,3,4,-7
61369,3,-2,-3,-1,0,-14,1,-1
61425,1,-3,-2,-1,-2,-3,3,9
61493,-3,-6,0,2,3,-5,2,-12
61551,-1,1,-3,1,0,7,3,4
61600,-5,-13,-5,-2,-2,-9,-2,-2
61666,-5,3,3,1,-2,1,-1,-8
61725,-1,-6,-3,0,0,-1,1,6
61793,-9,-10,-2,-3,0,-5,-7,-20
61853,2,-4,0,-2,1,5,1,6
61902,-4,-8,-6,-2,-5,-6,-7,4
61965,-2,3,2,-1,1,-5,6,19
62030,-2,-7,-7,-6,-7,-15,-2,-15
62093,-13,3,-1,-1,-5,-2,0,-17
62139,1,2,2,4,1,1,-6,3
62191,0,0,-4,1,-1,-10,-2,-5
62246,-16,-18,-7,-2,-4,-5,-2,-6
62297,3,-12,-6,-5,-3,-2,-5,3
62351,3,-8,-3,-4,-4,-6,0,1
62406,-8,-3,-3,-6,16,11,4,9
62469,-4,-12,-1,-1,1,-1,2,20
62531,-7,4,3,2,-4,-4,-9,-20
62591,-3,4,5,2,5,9,0,6
62645,1,-4,-2,-3,3,-3,0,-3
62706,1,-9,-9,-8,-10,-2,2,7
62769,-1,2,-1,1,0,-2,2,-6
62830,-1,2,3,-4,0,-3,-7,-13
62891,8,14,-1,-5,-11,1,14,-1
62951,-1,-1,0,-2,-3,-9,-1,9
63005,5,8,2,-3,1,5,-5,-6
63068,-1,5,-4,-2,-6,-2,-6,-3
63131,5,10,2,-1,-5,5,0,0
63191,-2,-6,-5,1,3,2,0,-11
63242,-2,10,5,-1,1,6,1,-10
63294,1,6,4,-5,-5,-4,5,-2
63349,1,0,2,-2,2,-1,1,5
63402,-6,-21,-3,1,-2,-2,-4,7
63456,7,15,20,21,5,5,-2,-5
63510,-2,9,-5,-3,-2,-5,0,-10
63573,0,5,2,3,-1,-1,-3,-28
63633,-4,-5,-3,-2,-1,4,-1,-14
63695,-5,-2,-5,-4,-4,-1,-2,-9
63748,0,2,2,1,-3,-1,0,-4
63811,-2,-11,2,-7,-3,-7,-5,-2
63874,6,15,-7,-9,0,-5,8,7
63934,-8,4,-3,-10,-12,-23,-5,7
63985,-6,9,14,1,14,5,5,-32
64037,-3,-6,3,-3,-1,-2,5,10
64090,10,2,-1,-4,0,2,0,35
64142,1,-7,9,10,-5,3,2,10
64197,-5,-3,3,-3,-5,8,-4,-4
64249,3,-1,-7,-6,-5,-2,3,2
64313,1,1,1,0,-3,8,7,7
64374,2,0,-5,-5,6,11,6,16
64436,2,-6,-1,-5,-6,2,1,-3
64496,6,12,6,-5,-5,-4,-2,8
64556,-9,-6,-4,0,5,5,2,-15
64609,-10,-7,1,2,-3,-17,-4,5
64673,4,-8,-3,1,3,2,-4,12
64735,-1,3,1,1,3,-3,-5,-5
64795,-3,-10,-1,-2,1,8,0,6
64857,11,17,6,-1,-2,-1,7,23
64909,-4,-2,-7,-7,-4,0,-1,-4
64961,0,1,2,4,-9,-19,-5,-2
65015,1,10,8,2,0,-9,-1,-5
65066,-4,-6,-2,-5,18,2,0,5
65117,2,0,1,-2,2,7,2,2
65177,5,10,6,7,11,7,1,-2
65239,2,2,0,-2,-7,-2,-1,-9
65300,-6,-1,-3,-3,1,-5,-6,-17
65351,14,23,6,0,-2,3,6,9
65419,5,4,3,2,-1,0,3,14
65480,-11,-4,-2,-5,-6,-2,-6,-11
65539,0,-4,-1,-2,-12,2,1,-20
65599,3,-1,-1,-15,-8,11,-2,1
65651,53,10,1,-18,-25,-2,-5,15
65703,-36,-6,-4,5,-32,-10,0,-13
65755,-48,-13,-1,9,1,11,10,10
65808,-14,-12,-4,-11,1,3,-7,-23
65860,14,2,4,-4,-30,-2,4,11
65919,13,-5,2,5,43,3,-13,7
65981,38,0,-4,-9,2,-3,-3,-10
66041,4,-9,-4,-4,-10,1,-5,-24
66094,1,16,9,4,-14,4,5,16
66147,4,1,1,2,-1,-2,-7,4
66198,6,-1,-4,-7,-15,6,1,12
66253,30,3,-2,-3,-9,-2,-5,13
66303,8,10,2,-3,-9,-4,-2,8
66354,4,-9,-1,-5,-20,-5,0,-2
66408,12,8,-5,0,-3,-3,-6,30
66460,15,-1,-2,3,5,-1,-1,6
66519,11,4,0,-3,10,-6,2,-1
66583,7,1,6,-11,-8,-7,-1,15
66643,-5,-9,-6,-10,-10,-6,-1,19
66694,-2,11,3,1,-1,0,3,17
66747,13,6,1,-3,-7,-1,-4,17
66802,-22,-1,-1,-2,-3,-3,-3,-13
66850,-7,0,-1,-4,-3,-2,0,-4
66903,-3,-8,-5,-5,-4,-3,5,0
66960,-5,-7,-7,1,3,1,5,-3
67023,-2,-10,-2,1,6,-5,-6,-10
67084,-2,-3,-3,-1,1,-5,-11,1
67135,0,-4,1,-1,-4,0,5,36
67189,5,5,1,4,-5,-5,-3,-3
67240,4,-2,0,-2,-5,0,-5,9
67293,3,3,3,3,0,-4,-5,7
67346,-11,-6,-7,-4,0,-3,-2,-13
67402,-4,4,2,4,-3,-3,-3,1
67449,1,3,9,-2,-13,0,1,5
67504,-1,-3,-3,-4,18,-4,-3,-6
67559,8,1,0,-7,0,0,-1,5
67622,-32,6,7,4,5,4,9,17
67683,-9,-1,-2,-4,4,3,-9,-35
67743,4,-2,6,-3,-13,0,8,25
67796,-2,8,3,6,-2,8,3,-5
67852,3,8,-12,2,-4,-1,-4,-7
67902,-4,-3,-3,1,19,2,2,-7
67954,-1,0,-1,-1,-6,-4,-8,-4
68005,-2,4,2,20,-26,4,-2,-24
68067,-7,-15,-19,-1,-5,-4,1,-4
68126,0,5,-30,-21,-2,-1,-8,38
68185,-10,-41,-5,10,23,6,1,9
68238,4,12,38,75,14,22,1,-1
68299,-8,-39,-9,17,6,2,-15,6
68363,5,-21,-6,1,13,7,4,7
68426,-6,-24,2,-18,-1,-7,-7,-6
68488,-5,-9,-34,-10,1,2,2,-22
68549,-1,-25,25,10,-17,-16,7,17
68599,5,-13,5,-4,6,16,4,24
68664,2,-21,24,32,6,2,-1,-3
68717,4,4,9,4,-13,12,0,12
68770,9,-7,-9,-4,3,3,-1,28
68823,4,11,-7,13,21,7,-3,-6
68883,-10,-4,3,-1,-19,-4,-7,-34
68943,-5,-5,-4,-1,-2,-6,-6,-5
68993,1,13,7,10,17,5,6,1
69048,-4,-2,1,0,-3,11,-4,4
69106,-1,-20,-11,-4,4,5,-5,-1
69166,-3,-36,-22,-3,-2,-1,-4,1
69228,2,-7,17,34,14,1,-9,-11
69289,2,-36,-39,-12,-9,-7,-9,10
69350,-4,-29,18,8,1,-1,1,1
69401,-4,16,22,26,8,6,2,17
69452,1,-5,-14,-6,-28,1,-5,19
69506,-8,7,4,-21,-11,-3,3,-12
69560,-3,11,-32,-29,22,-19,9,14
69618,-6,-2,-5,0,11,1,-1,-4
69670,7,6,9,32,-5,-2,-1,21
69732,-24,8,-5,-5,4,13,4,8
69792,-55,10,-11,-8,-5,4,-5,-19
69845,-11,-13,-11,-6,-4,-9,-9,-4
69907,-8,26,2,-8,0,-10,-4,-12
69971,-1,4,9,14,-2,-6,-2,-17
70030,-26,-7,-9,-16,-13,-6,-7,-28
70083,-3,-1,21,24,-8,-8,-4,0
70146,24,34,0,-24,2,10,6,26
70210,11,-3,-10,18,-9,-10,-14,-4
70271,10,-10,-2,-6,-8,-4,-5,5
70331,9,4,2,2,-3,-3,-3,1
70384,1,-3,-6,-8,-8,-41,-5,-22
70445,3,-1,-6,-6,-8,-14,-6,-12
70509,-2,-19,-12,14,2,-4,-2,-3
70570,2,3,2,-2,-5,-7,-10,-9
70632,-2,8,17,13,5,10,-8,-1
70692,2,5,6,1,-5,-2,-1,7
70752,0,-8,-1,-1,6,-1,0,5
70804,2,-3,-4,-5,-6,-1,-2,-7
70869,3,-3,-3,-1,-4,-4,-5,-10
70916,-6,5,-1,-2,1,-2,6,2
70967,-3,3,2,8,-3,0,-6,-16
71020,-13,-6,-4,-8,-4,-1,-10,-54
71077,1,3,1,-1,-1,1,-1,1
71128,3,3,5,2,2,2,2,10
71194,-1,-17,-8,9,4,5,-11,7
71254,2,0,-2,-4,-9,-3,3,7
71316,-5,-1,-6,-6,-3,1,6,18
71374,-2,-3,1,-2,2,-3,-8,-30
71425,-2,9,5,-2,3,-3,-8,-12
71490,4,5,-2,3,8,1,-5,-13
71552,-4,-3,3,0,-3,1,-12,-12
71615,-8,-5,-8,-5,-4,-2,6,-12
71676,-7,-12,-7,3,-9,-3,-6,-12
71726,-5,-15,-11,9,-3,-4,-6,-10
71777,5,-11,-16,5,-2,0,10,37
71830,-1,-23,-14,-2,17,2,1,13
71882,-3,7,4,9,-8,-3,-2,-3
71937,-4,-13,-19,-4,0,3,6,2
71999,-3,-4,-11,12,-7,3,-9,-9
72060,-7,-2,-4,-1,-9,-6,-7,-11
72120,-2,1,-53,-33,-9,-1,-23,-14
72181,1,-1,-5,-9,-5,0,-6,-9
72227,-9,-31,-30,-15,3,-9,-14,-14
72293,5,-9,-16,-8,-8,5,8,22
72352,-1,18,9,3,-6,-1,-3,-3
72416,5,15,0,-5,0,-1,-7,-21
72481,2,-7,14,14,-22,-4,-6,-10
72527,-4,-2,-4,3,0,-3,-5,-40
72580,-7,-6,11,4,-4,-1,1,-7
72635,-3,-4,1,5,-2,-2,-1,-5
72685,2,3,-4,-4,0,-2,4,15
72738,-10,0,14,3,4,-1,3,-1
72797,-5,-5,-9,-5,-1,-6,-4,5
72858,-2,-1,-12,-8,-7,-1,0,-2
72918,-3,4,11,-2,-1,0,0,-10
72971,-6,-26,-4,-7,1,-1,1,-6
73024,0,2,7,5,2,1,-1,7
73075,1,-6,-8,-3,-9,-6,-1,7
73127,-4,-6,3,-1,1,1,4,15
73180,-2,-10,-8,-2,-1,3,0,-1
73239,4,-14,8,-3,1,3,3,15
73300,7,16,-4,-16,2,3,4,32
73351,4,-9,-20,-4,4,1,-3,-13
73412,4,-5,-29,-14,2,0,-1,17
73466,4,0,7,-6,7,0,-2,13
73524,-7,-19,-11,-6,25,0,-2,-8
73572,-3,-4,-11,1,-1,1,4,-14
73637,6,-2,10,1,-7,1,-2,14
73700,-4,-3,-1,-5,-18,-6,-8,12
73758,10,13,2,-2,-2,0,6,29
73807,1,6,0,8,0,-1,1,7
73866,1,4,-2,2,-5,-3,-2,4
73918,0,5,3,2,-4,-4,-1,15
73975,0,-3,0,5,11,3,3,10
74028,-2,-5,-3,5,-4,1,2,1
74077,-7,-8,-7,-2,-9,-1,-2,-4
74141,-1,-7,-1,-5,13,0,4,25
74201,-3,-4,-1,-3,-7,-5,-1,-3
74252,3,-1,3,-7,-9,1,-1,-6
74306,0,0,-1,3,-1,1,3,-15
74358,2,-2,-12,-3,11,1,5,18
74419,-4,11,6,7,2,-1,-3,-6
74471,-1,-6,-9,-5,-5,-1,0,-4
74523,1,-10,-12,-7,-3,-2,0,16
74582,6,11,6,-3,4,-4,-2,6
74644,2,14,12,-4,2,-7,9,8
74703,-6,0,2,0,-15,-4,-13,-22
74755,-2,3,3,1,1,-9,-5,1
74807,-1,-4,-2,-3,-4,-4,-7,-9
74867,-5,-7,-7,2,-7,0,-1,-4
74915,4,-12,-6,-6,3,2,1,-1
74965,-5,-4,5,7,13,2,4,16
75017,-7,-2,-2,1,-6,-6,-14,-38
75072,-2,2,-6,-7,-2,0,-12,-35
75124,-7,1,2,-2,-8,-7,-15,-11
75183,2,-3,-3,0,-1,-3,1,14
75244,6,8,4,1,-3,-2,1,9
75303,-5,-6,-4,-2,-4,2,1,-16
75355,0,3,-7,-8,-7,-5,-4,-3
75408,-1,0,-8,-4,-2,3,-1,-32
75460,-1,10,3,-9,-2,-1,0,3
75514,-4,2,5,-1,-6,-1,-3,-20
75565,0,-6,-8,-6,0,0,-5,1
75625,0,6,4,2,2,1,-2,-14
75685,-3,0,-2,2,-7,-5,-4,5
75747,2,-7,-1,-4,-2,-4,-3,3
75805,-11,-18,-8,-3,0,1,1,-6
75859,4,5,-2,-8,-8,-3,-2,-14
75923,8,13,14,11,1,2,1,-1
75985,-4,2,13,1,-2,-2,-3,-25
76046,-4,0,-10,-7,-3,-5,-1,-4
76102,1,-1,-2,-7,0,2,1,-9
76163,-1,-2,-1,3,2,-1,0,1
76211,-3,7,6,-1,-2,-2,-3,-13
76262,4,2,0,-6,-2,-2,6,40
76319,3,6,9,10,1,1,0,3
76378,4,-2,3,3,3,-1,3,-5
76428,-7,2,3,-3,-5,-2,-5,-20
76489,6,4,0,6,-1,1,-14,8
76538,-7,-5,-4,-2,1,0,-3,-24
76599,7,8,-1,2,4,1,6,21
76665,-2,-3,-3,-3,-2,1,-3,17
76726,-1,-3,2,8,-2,-2,0,1
76788,-2,-9,-5,0,-2,0,-5,-15
76848,-5,-3,-2,-6,-4,-3,-2,3
76908,-5,0,-3,0,-4,-2,-4,-28
76960,-1,-2,2,-5,-2,-2,-1,-11
77022,7,-3,1,-1,2,2,5,30
77084,-7,12,3,-4,-4,0,-1,0
77154,-8,-17,-10,-5,-4,2,-1,-17
77215,-1,2,6,2,-4,-5,-8,-18
77269,11,16,6,5,5,3,-3,14
77321,0,3,8,2,1,4,2,3
77374,-1,-16,-12,-3,-7,0,4,4
77425,-7,-10,-6,4,1,-2,5,10
77478,-10,-8,-11,-8,-3,-6,-11,-17
77532,-1,4,0,-2,-4,-3,2,3
77591,-3,5,12,14,1,2,0,-12
77651,-6,-7,-7,-9,-7,-5,-5,-14
77711,-2,5,2,0,-9,-3,-16,-16
77763,-2,8,-9,5,-3,0,3,-3
77828,-7,-17,11,-7,3,-1,-2,-29
77878,0,14,8,-4,2,1,3,-8
77930,-2,-3,-5,-1,-4,-2,0,2
77988,-1,-6,-17,-9,0,0,5,17
78034,-2,7,0,5,-2,3,2,7
78092,5,9,24,16,2,-2,2,24
78154,0,4,1,-1,-3,-1,11,3
78213,-3,17,3,-9,-1,2,2,-23
78265,-4,2,0,-1,-2,0,3,-5
78330,-2,1,-8,-1,4,0,0,-7
78391,-9,-4,-1,-4,-2,-6,-5,-3
78453,-4,-1,0,0,0,-2,-5,-8
78514,2,-7,3,-1,4,2,-4,20
78565,0,3,1,2,-2,-2,-2,-16
78628,-1,-5,1,2,3,0,3,-3
78691,-5,5,0,4,4,-1,4,-2
78753,-6,-12,-2,1,-2,-5,0,-10
78813,-1,-6,-3,2,-9,-2,-4,-15
78866,-10,2,0,-1,5,-2,-9,-9
78929,-3,-4,-4,-3,-3,-1,0,-4
78993,-2,-4,1,1,-13,-2,-1,3
79053,-2,-8,-6,-7,-6,-1,-7,3
79113,1,-4,1,5,3,-2,-5,-11
79173,-4,-3,-3,-2,-10,2,2,-1
79228,7,10,2,-2,-1,3,5,4
79289,3,1,2,1,-4,0,-5,-2
79353,4,11,2,-6,-9,-2,-6,11
79414,5,2,5,2,-4,1,11,25
79474,-1,3,8,0,1,-5,-16,1
79527,-2,2,-3,-4,-6,-3,1,-5
79578,4,12,8,3,-1,1,-4,2
79631,-1,-4,-1,0,13,3,-2,-13
79684,2,6,3,0,-2,-1,-3,3
79735,-4,-1,-3,-5,-8,-6,-11,-24
79794,3,0,-2,-2,-20,-3,-6,13
79856,-9,-8,-5,-5,-13,1,-3,2
79916,2,1,4,3,7,-2,7,31
79967,-3,-6,-7,-4,9,3,0,-8
80024,1,2,-1,-2,7,3,5,34
80073,-5,-6,-6,-5,1,2,2,-6
80129,-3,-2,-1,3,-2,-3,0,-14
80181,0,1,-2,1,-4,0,1,4
80240,-5,1,-4,-8,-12,-2,11,10
80302,1,3,0,4,2,-2,-3,8
80360,9,-9,-1,-2,-8,3,1,3
80410,-6,-15,-5,1,-3,0,-8,-1
80471,-3,-5,-1,-2,-4,-2,-3,-2
80536,-3,20,6,0,-4,-2,-6,-17
80600,3,-11,0,-4,-4,0,8,18
80659,-7,2,2,-10,-15,-12,-11,-19
80712,-1,4,-3,3,5,0,-3,-6
80778,-4,0,1,1,-4,-2,4,-2
80837,3,6,-11,-19,1,-1,-3,6
80898,-6,2,-1,7,-1,-4,-11,-38
80948,2,0,-1,-4,3,-2,-6,1
81002,-3,-4,0,6,0,-4,-3,-1
81054,-4,-9,-1,1,-4,-2,-4,1
81109,2,12,2,-1,-1,1,6,8
81160,6,-1,0,-2,-1,1,-4,32
81218,-5,-5,-3,-2,1,-1,-2,3
81280,-3,1,0,1,1,-1,-1,-7
81342,-7,-3,0,3,2,0,-1,2
81391,0,-12,-2,-1,-3,-4,-4,5
81449,-2,6,1,-1,-2,-1,-1,-2
81498,3,0,5,1,3,2,-4,8
81548,-2,-7,-3,0,2,2,-2,1
81602,-2,-7,1,5,-2,-3,-3,2
81658,-2,9,1,-5,2,0,-1,-5
81706,3,0,5,0,-1,0,0,-6
81760,1,-1,0,-1,1,0,5,6
81818,-2,4,0,-4,-2,0,5,-1
81880,-5,-14,-5,-5,-4,0,-1,-3
81943,2,7,4,3,-6,0,-2,2
81993,1,-6,-5,-3,-6,-2,2,4
82044,7,17,4,1,1,0,2,5
82098,-5,-7,-6,0,-2,0,1,-8
82149,4,2,2,0,-6,-2,2,11
82202,5,13,1,-4,0,-1,0,5
82261,-5,-5,-4,-2,-1,-2,-3,-13
82322,7,18,2,3,3,0,0,2
82382,-5,-9,-6,-2,-7,-5,-2,6
82443,2,22,1,3,-2,-2,-1,-4
82497,5,0,0,2,-1,0,0,9
82549,4,-5,-1,-1,5,2,2,12
82600,-1,4,-2,0,-4,1,-5,-8
82653,-8,-9,-4,0,-8,-8,-5,-12
82708,-4,-19,-3,3,5,-5,-6,-17
82762,-2,-9,0,1,2,0,-3,-8
82827,-5,1,5,-3,-4,-2,1,2
82886,1,2,3,0,-1,-2,-2,5
82946,1,5,-2,-4,1,2,7,-3
82998,0,-12,0,-5,-2,-4,0,20
83050,-5,-3,-3,-4,-6,-2,-4,1
83102,-5,-7,1,1,9,2,4,7
83155,-1,6,4,1,-4,-3,-6,6
83214,3,-3,4,7,1,-2,-6,-2
83265,-5,5,-3,-4,-5,-4,-1,-13
83320,0,-18,-1,3,0,3,2,21
83375,2,4,6,-2,-3,-3,-3,-14
83427,-8,1,10,-3,-4,-8,-9,-24
83492,9,12,-8,-5,-1,-3,0,-6
83553,1,-2,6,-16,-7,-4,-8,4
83598,1,-8,5,12,12,8,17,30
83649,-11,-3,6,4,-4,-10,-5,-2
83703,-2,2,4,8,-8,-1,0,-13
83756,-5,4,6,2,-5,-1,1,-9
83808,-9,-12,-6,-4,3,-3,2,-23
83868,-4,-2,-5,3,-1,-5,-10,-27
83929,-12,-9,8,5,-1,-10,8,-30
83990,-3,-13,-17,-8,-6,-5,-3,10
84042,2,-2,0,9,-2,-1,-7,-6
84102,4,0,2,-6,-1,2,8,-5
84166,-2,8,-1,-10,-2,-2,2,40
84229,1,-10,-9,-4,1,-1,-6,9
84289,4,-2,-9,-4,-6,1,-7,12
84340,-12,-15,-7,0,0,2,1,-19
84401,1,3,-15,-12,-7,0,10,2
84465,-1,-5,0,-1,-2,-2,0,34
84526,-4,20,6,-2,-7,-10,-2,-24
84588,-5,-15,-4,-1,6,3,-8,-3
84648,-1,4,-6,-9,-3,-1,3,-11
84699,-12,-20,-7,-1,-3,5,-5,12
84765,-6,-3,-1,-2,-6,5,5,22
84813,3,1,2,2,4,-1,12,48
84865,-5,1,11,7,-5,-11,-1,-6
84918,-2,-5,3,1,1,-3,1,-6
84970,-2,-8,-3,-4,-3,-2,-9,53
85027,-6,1,3,1,-2,-12,-3,-12
85090,-2,-4,0,4,0,-4,-1,13
85151,1,-10,-2,0,-1,2,-3,-34
85212,7,-5,-2,-1,0,-1,-4,3
85263,-7,-1,-1,-6,-2,-6,-6,-32
85323,-3,-3,0,2,-1,-2,-18,-24
85386,-1,-2,1,2,-1,-1,1,-10
85449,-4,1,-1,4,0,-2,-10,-10
85510,-5,0,0,0,-1,0,0,-9
85570,-5,-6,-6,-5,-5,-5,-4,2
85623,0,6,1,-2,-3,1,-2,-7
85686,2,7,1,-5,-11,-3,2,47
85748,3,-3,5,0,-2,1,3,-18
85811,2,-2,-1,-3,-6,-3,2,16
85870,7,-3,4,4,1,1,6,36
85922,-1,-6,-3,-4,-4,1,-4,-2
85975,-2,-6,-1,-3,-2,-2,-1,-8
86028,0,1,-2,1,-1,-5,-13,-22
86083,-4,1,-4,-4,-1,-5,-6,2
86133,6,10,5,3,-2,-1,0,-3
86192,2,2,-5,-7,2,4,3,1
86253,-1,-2,-3,-2,2,-1,-5,9
86319,-3,-3,-4,0,-2,-5,-6,-21
86379,1,-2,-4,-2,-4,-2,-1,-4
86425,0,0,1,1,4,0,1,-22
86478,1,-15,-5,-1,-2,-3,-1,-6
86531,-1,-2,-2,-2,2,-1,-9,-4
86590,-2,6,-1,-2,-3,-4,-8,-25
86647,-9,1,3,3,-3,-2,-5,-1
86697,4,1,-5,-2,-3,-1,0,17
86759,-3,0,-5,0,2,0,1,1
86816,-1,-2,-1,-1,-2,-1,4,6
86869,-2,7,-1,-2,2,-2,-2,-24
86930,-4,-4,-3,0,-1,-1,1,-11
86994,1,5,2,0,2,0,0,4
87062,-2,-3,-1,1,-1,-2,-2,4
87115,-3,20,4,0,-3,-3,-3,-8
87169,-1,-7,-3,-3,-1,-2,-1,5
87230,2,0,2,0,0,0,2,10
87293,1,-1,-1,-1,3,1,1,-11
87355,3,3,-1,0,1,2,3,3
87416,24,0,0,-1,-5,-5,-6,11
87470,0,-3,-3,-3,10,0,0,8
87531,-65,-10,-4,-4,7,23,-9,-10
87594,-7,10,7,-4,-30,-27,-4,-11
87657,18,-8,-6,-1,31,14,-3,2
87716,0,-8,-1,2,2,-14,-5,-22
87776,-26,-5,-2,0,10,7,2,-9
87828,-53,-7,-7,-4,-14,9,7,-22
87885,14,5,5,3,6,11,3,15
87932,10,2,-1,-5,-6,-13,3,14
87986,24,5,7,8,2,3,9,38
88039,4,-7,-7,-1,-4,-18,-4,-18
88095,6,-2,-1,0,14,23,0,7
88158,5,0,1,0,4,-1,-1,2
88219,16,-1,0,-1,-10,-1,4,0
88273,-6,-4,0,0,0,11,-2,-4
88333,-18,1,-2,-3,-2,3,0,-6
88397,4,-4,-1,-2,-5,2,0,46
88458,-20,0,0,-5,-15,-9,3,11
88508,-3,2,-1,0,4,16,-1,-6
88561,9,-1,-3,-3,-2,-19,-9,-10
88614,-28,-8,-3,-2,-8,0,-4,-24
88669,7,1,1,0,-10,-2,5,3
88726,0,-1,1,2,-3,-8,0,2
88786,-8,-5,0,0,-7,-4,0,13
88846,16,0,-1,3,0,-9,3,18
88905,-7,1,1,0,-1,-5,8,-1
88952,31,5,6,-1,-5,-3,3,14
89005,4,-2,4,7,18,18,-3,6
89058,0,1,-4,-5,-4,0,2,8
89112,-10,1,-1,-3,-1,-7,-4,-11
89162,-46,-6,-4,-2,-6,-2,-3,-19
89220,0,-3,-1,2,-3,5,-7,-4
89282,19,-1,2,-4,1,3,1,2
89343,21,4,-3,-2,10,2,1,-2
89392,11,-1,3,4,5,21,1,-6
89447,1,-4,1,6,-2,1,-3,17
89500,3,-2,-1,-6,-10,-2,-4,7
89560,-3,-3,0,-2,-3,2,3,10
89610,9,4,2,-7,-14,-15,-5,14
89664,12,-1,-1,-5,1,2,2,3
89723,16,2,0,2,-2,-1,4,13
89769,10,4,-1,0,8,-2,9,9
89822,2,-5,-2,2,-4,-11,0,-3
89882,-16,-5,-3,-3,-8,1,0,-5
89943,11,-4,-3,1,-3,10,6,1
90003,-6,-2,2,-3,-4,1,1,-16
90054,-20,-4,-1,3,-4,-3,-2,-18
90107,18,6,0,4,-3,3,3,15
90160,-2,-4,0,-3,-2,0,2,5
90219,-17,-2,0,-1,0,2,3,13
90273,-15,0,1,0,-1,-3,4,6
90326,-12,-5,-2,-3,3,-14,-3,-21
90380,25,-1,0,-3,-10,-8,-3,-3
90443,-50,-7,-3,-3,-11,-8,-5,-17
90504,6,0,3,3,-10,-19,3,18
90564,-15,-8,-5,-2,0,3,-2,-14
90626,42,7,0,7,7,6,0,16
90686,-7,-3,-1,2,-7,-4,0,2
90748,-7,-4,-2,-4,-4,-4,-6,-16
90808,-42,-5,-4,-4,-10,2,-3,-6
90865,20,0,2,-1,-8,10,-5,-7
90917,22,1,0,-2,3,6,-3,10
90969,-5,-2,-4,-4,1,-3,-1,-8
91022,1,3,1,2,17,-3,2,1
91080,-37,-3,1,0,1,-16,-5,-9
91140,18,1,2,3,4,-5,-2,9
91195,-43,-6,0,0,-5,-3,-8,-18
91247,2,-1,-3,-4,-8,-9,7,14
91308,-7,-6,-3,1,3,7,-3,-1
91368,-2,-2,-2,-5,-6,-5,1,-3
91429,-11,0,0,3,-5,-1,-1,-6
91488,-35,-6,-3,-6,-7,1,-2,1
91548,28,4,-1,1,-6,-3,0,2
91608,-21,-2,-3,-6,-9,-9,-3,-9
91669,-32,1,3,-5,-12,-16,2,0
91729,18,-1,-1,2,-5,-15,-7,-3
91788,-2,0,0,1,-4,-12,-1,10
91838,16,-1,0,-3,-2,-5,-2,4
91899,8,-2,-3,-7,1,-5,-1,17
91959,-38,-2,-3,-1,-5,0,6,3
92021,21,-1,1,-2,-5,-8,-1,10
92084,-3,3,0,-3,-3,3,0,0
92142,46,-3,-5,-5,4,6,7,16
92203,-13,0,-2,2,9,-2,-3,-16
92271,-20,0,3,-6,-3,-6,-4,-6
92330,-12,-6,0,-5,-11,-3,-2,7
92389,18,0,2,-2,-3,-4,-4,-11
92440,18,1,1,5,-2,2,0,6
92491,9,1,1,0,4,3,2,34
92548,-4,-3,-3,1,-1,1,1,-3
92597,9,0,-1,-5,0,1,-2,0
92651,27,0,-1,-4,4,-5,5,13
92704,0,-3,-1,-1,-3,4,-2,7
92765,8,-2,0,0,0,0,0,-1
92827,-74,-10,-5,-5,-8,1,-1,-10
92889,-4,-3,-1,0,0,-1,0,4
92949,11,-2,-7,-8,-12,-21,-5,4
93010,-3,-3,1,-1,-2,4,0,2
93071,-17,-7,-6,-3,-3,1,-6,-5
93124,6,2,-1,0,-2,-1,0,0
93185,1,2,2,2,-5,-14,-10,-4
93254,-14,0,2,-2,-5,-4,-1,3
93309,-20,3,-5,-5,-5,6,-1,3
93371,-6,-4,2,1,7,1,-3,6
93431,-4,0,-3,-5,3,3,-2,-9
93482,-13,3,-2,-3,-2,-3,-3,-24
93538,4,-4,-1,-1,-7,-9,-12,-12
93587,-16,-4,-3,-9,-1,2,0,-11
93647,-7,-1,-3,-3,-5,-5,-1,-8
93698,1,-3,0,0,2,-2,-10,-6
93755,26,0,-2,0,4,-3,-1,9
93806,3,0,0,-2,3,5,4,5
93869,-7,-5,-2,-3,-1,11,-1,-7
93933,-34,-6,-3,-2,-5,6,5,-10
93993,3,3,8,8,0,-9,-9,3
94054,14,-5,-1,-3,-2,-3,-4,4
94109,-16,5,-2,0,-1,-3,-5,-12
94169,10,5,4,3,8,9,3,0
94232,0,-1,-1,2,-1,-4,2,-1
94293,-2,-5,-2,2,-1,13,-2,-4
94354,-12,-2,-2,-5,-9,3,-6,-3
94415,-1,-3,-1,4,3,-2,-9,-10
94467,-6,8,12,1,0,-7,11,27
94526,-8,-4,1,7,17,-11,-1,-1
94577,-11,-4,-4,0,14,7,5,8
94629,10,3,-2,1,12,8,0,-1
94684,-29,-5,-7,-1,-4,1,-2,-13
94737,-30,-1,1,-7,-12,-8,-18,-19
94794,-5,-5,-4,-5,-6,5,-5,14
94856,16,5,2,3,-1,0,1,11
94916,-20,-4,-1,2,-4,-9,-3,-12
94972,5,1,2,1,2,5,-7,-1
95031,-1,0,-3,1,0,-3,-1,-18
95085,-5,-3,-3,-3,1,9,-2,-14
95135,9,2,-4,-6,-8,-8,-6,11
95189,5,0,-3,-2,4,22,4,-16
95238,15,0,-6,-6,0,-2,-4,-25
95296,-3,-2,-5,-4,-3,-6,-8,-1
95359,-71,-10,-1,-4,3,0,-4,-24
95418,8,2,2,-1,-11,4,2,-1
95470,17,1,2,4,5,1,-1,-10
95532,-24,-10,-3,-1,-1,6,-3,-6
95596,6,2,0,2,-12,18,-1,-6
95658,-30,1,-1,2,11,-4,-6,-4
95718,3,-1,-3,-4,0,-2,-3,7
95771,2,-2,-3,-4,2,-2,0,6
95835,13,3,-2,-5,0,0,5,-4
95898,-3,-5,-3,0,-1,-7,-13,-8
95958,-6,-3,-1,-3,0,26,-1,3
96009,11,4,7,6,3,-9,1,-5
96074,9,-2,-3,-5,0,31,1,2
96137,-8,-5,-4,1,2,-8,-7,-23
96195,1,-3,-5,-1,1,-2,-3,4
96242,-10,-1,-1,-2,-1,2,-3,-18
96292,11,-1,-1,-4,1,-2,-1,-28
96355,15,4,0,-1,-3,-19,-6,-7
96416,-6,1,3,3,5,2,2,-2
96468,-7,-3,1,-4,-7,-6,0,-8
96521,5,0,-2,-2,2,3,5,10
96575,-6,-4,-4,-3,-10,-3,-8,-27
96638,7,1,1,1,-7,-2,4,-6
96701,-35,-3,-4,-1,-1,3,1,32
96766,18,2,2,2,4,-7,-6,10
96812,-9,2,-1,-2,-2,-2,-3,0
96875,8,2,4,-1,-3,-5,-6,-14
96939,5,-2,0,-3,-3,-17,-3,-11
97005,-2,1,0,-5,4,4,0,9
97065,-2,3,3,4,-2,1,-2,14
97114,-21,0,3,1,-3,8,10,17
97178,-1,-3,-5,-3,-4,7,2,6
97246,-2,-4,2,3,0,-5,-6,-30
97300,7,1,-1,-3,-7,-6,-4,-16
97352,12,-1,0,3,0,3,-1,4
97404,21,0,-3,-1,-2,-10,0,19
97457,4,0,4,2,0,-4,-3,4
97516,-16,-2,-3,-7,-15,4,2,20
97563,-21,0,-1,-1,-8,-1,4,13
97623,-23,1,-2,1,3,-2,-1,-27
97683,-35,0,0,0,-2,-9,-6,-12
97743,9,1,-4,-4,0,-5,-1,-10
97797,-10,-1,0,-1,2,-9,-4,-2
97857,-7,-11,-5,-2,-4,-3,-2,-2
97906,-38,2,3,-2,-1,1,-4,-18
97960,-17,-5,-2,-2,-8,3,5,-10
98017,-45,-5,-1,-1,-4,-7,-2,-6
98066,11,2,3,0,-2,-1,-3,-8
98125,-32,0,-1,-1,9,-13,-14,-26
98176,-16,-6,-3,-6,-5,4,-3,3
98229,1,0,-4,-3,-4,7,-1,8
98282,3,3,3,2,-2,-5,-5,-6
98332,7,-3,-2,0,0,-2,-3,13
98387,-5,4,1,1,-1,-2,-5,-6
98440,25,1,-2,-1,-6,-2,8,2
98491,13,1,-1,-2,-8,0,-3,-33
98552,18,-4,-3,0,-4,1,-2,-17
98603,25,2,1,-2,-12,-6,3,19
98663,-4,2,5,4,0,2,1,2
98727,5,-1,-4,-2,6,-8,-3,-6
98775,8,0,0,-5,5,6,5,6
98831,-4,6,1,1,0,20,8,21
98882,-41,-6,-5,-3,1,-4,0,-3
98933,13,1,1,-4,-10,-7,-1,5
98988,40,2,3,1,4,4,0,17
99040,-1,-4,-4,-3,2,14,-3,-15
99104,5,0,1,2,-3,2,5,19
99167,-20,0,4,1,-1,8,-4,6
99229,-21,-4,0,-2,-2,6,2,-6
99279,-11,1,-2,1,0,-1,-4,-18
99339,-5,-6,-4,-4,-1,1,3,-6
99401,-38,-5,-6,-4,1,-10,-11,-17
99462,0,-6,-1,-2,4,-4,-3,-14
99523,13,10,4,-1,-4,-4,-1,-14
99586,0,-3,-1,1,-2,-8,-9,-25
99648,9,-1,1,-1,13,11,4,4
99708,-15,-5,-1,1,-6,1,-4,-18
99769,-7,-2,3,-3,-2,2,7,-1
99821,2,1,-1,2,4,1,-1,-17
99873,8,0,-3,-3,6,-3,-2,14
99925,31,4,3,1,-3,1,2,3
99981,5,0,-1,0,1,0,6,22
100030,41,2,0,-5,-4,-4,-5,-7
100087,7,-1,-1,-2,-4,0,0,7
100149,12,-2,-2,-3,-4,-4,-2,10
100210,4,0,-3,-1,1,29,4,-4
100261,-26,-8,-6,-6,2,2,-1,-5
100325,6,-2,2,1,5,2,0,18
100389,29,-6,-5,0,-2,7,2,20
100451,-30,-3,1,-2,-2,-11,-1,-4
100510,-14,-7,-5,-7,-7,-8,0,-3
100570,12,3,1,4,1,-2,-2,5
100622,-2,-2,0,-6,-7,-16,0,10
100683,-3,-5,-3,-3,5,-1,0,-20
100745,-23,-2,-3,-2,5,5,-6,5
100809,-6,7,2,-2,-7,1,-4,-1
100869,5,-3,-1,0,-3,-12,1,15
100930,3,-6,1,2,-2,-2,-3,-21
100991,10,0,-1,-5,-8,-6,0,14
101042,1,-5,-4,-2,-8,-6,0,-8
101095,-26,1,5,0,-12,-3,0,1
101149,30,8,1,-6,2,-2,-4,34
101206,13,6,2,5,-4,-16,-4,6
101253,-14,-1,-4,1,-1,-2,-5,-16
101314,10,-4,-4,-9,-7,-21,-10,-7
101373,-4,1,1,0,10,-3,-4,-9
101433,-15,-5,-3,1,0,2,0,11
101486,-1,4,-2,-7,-9,0,-5,-8
101547,7,-3,-3,-4,-1,3,5,5
101611,-12,3,2,3,3,-3,-2,0
101674,-2,-1,-1,-3,4,-6,-1,-7
101737,-5,2,-1,-1,14,0,4,-10
101794,-4,-2,-2,2,12,1,8,-3
101850,2,8,7,1,0,-4,-3,-1
101896,20,1,-1,4,5,0,-9,-4
101949,-21,3,-3,-6,-1,4,4,-17
102004,-11,-2,-1,-1,9,-11,-8,-6
102059,-25,-7,-2,-6,13,3,-6,-30
102118,-16,-5,-3,-4,-7,-25,-5,-11
102176,1,0,2,0,0,1,1,19
102236,-2,5,5,2,-1,-1,0,-8
102290,-64,-5,-4,-6,-7,5,-2,-4
102350,-33,-4,-6,-4,1,1,-1,-12
102418,22,5,-4,-2,-3,5,-1,-6
102477,-48,-2,-4,-4,-6,0,5,-6
102537,-50,5,2,-2,-1,-3,0,-15
102588,-18,1,2,3,-7,4,-5,-19
102639,2,-2,-1,-3,0,6,12,8
102694,4,-5,1,1,12,4,3,-26
102751,-20,-13,-6,-9,-12,-3,0,3
102798,-26,-13,-3,0,-9,21,-2,-2
102856,-11,11,4,-3,-5,4,8,8
102918,-20,1,5,4,-4,0,-2,-5
102978,16,-1,2,1,0,-8,-5,7
103032,-3,1,-2,-6,2,-35,-5,0
103093,10,3,1,2,-4,-23,-5,-5
103157,50,-6,-1,6,13,7,4,1
103218,1,-6,0,-5,-2,-4,3,1
103278,14,0,0,-5,-7,-14,0,-11
103329,-10,-2,-2,-2,0,-8,1,-2
103392,6,-3,-1,-1,-1,1,-2,11
103455,-16,-4,-4,0,-5,1,-2,-9
103518,-42,-8,-2,-4,4,4,4,15
103579,-26,4,-1,-1,-2,3,5,-12
103629,28,-2,-3,-1,5,12,2,9
103685,15,-5,-1,-1,3,2,-3,9
103735,-4,-1,0,0,-4,-11,0,-1
103787,-11,-1,-4,0,16,-3,-1,-1
103842,1,2,1,-7,-6,-8,-7,-10
103903,-4,-8,-1,-1,2,14,-1,6
103959,16,0,-2,-1,-1,19,-3,-6
104026,-2,-1,1,2,-3,-15,2,8
104087,-11,-2,-2,-2,-1,1,12,19
104133,-1,1,0,-2,0,0,-2,3
104197,-5,0,1,2,-1,-3,-4,-14
104259,20,1,0,0,0,-2,1,7
104325,-10,-9,-7,0,2,0,-4,-5
104380,8,-2,-2,-1,-5,-5,-4,-3
104447,25,4,1,-4,-7,3,2,22
104494,-1,-2,-2,0,15,6,-3,4
104558,10,4,3,3,-5,-4,-8,-7
104620,5,-3,-4,-2,-7,-6,-5,0
104686,-27,-4,-1,4,10,-4,-3,-26
104746,0,-1,2,-1,-5,-13,7,29
104794,13,-5,-3,1,4,9,-1,-5
104864,14,-3,-4,-1,2,-5,-1,-5
104912,-7,-7,-5,-1,-4,0,6,3
104963,6,1,-2,-5,-4,-20,-1,-1
105018,3,-4,-2,-5,-10,0,-5,-6
105072,7,-3,0,1,0,2,4,23
105124,-15,4,0,-3,1,0,-1,-7
105177,-32,-1,1,-1,1,0,-3,-10
105227,-29,-4,0,2,9,1,-1,-4
105280,-2,-2,-2,0,-1,5,-2,-4
105332,4,2,1,3,-3,-4,-3,-12
105382,5,2,1,-2,2,-1,-4,4
105444,2,5,-1,-2,-1,-6,4,16
105507,3,-4,0,0,-2,-13,-5,-14
105565,5,6,1,2,-2,-5,-10,1
105620,12,1,-1,-2,-1,-12,-5,-8
105670,7,3,5,-1,-1,-1,3,14
105722,-1,-8,-5,-4,3,-2,-2,-15
105777,-1,-4,-1,-1,-5,-11,-3,-3
105827,-5,-4,-4,-5,2,4,6,-5
105879,11,-6,-2,1,-4,0,2,-5
105932,10,0,3,-3,-3,-5,-6,-5
105986,5,0,0,-1,0,-6,-1,7
106045,12,3,3,3,0,1,2,9
106108,6,-6,-2,1,-1,-2,6,8
106168,9,2,1,3,-4,-13,-2,13
106219,17,-2,2,3,-1,-2,1,2
106284,8,2,0,-6,-2,-6,3,-1
106349,18,3,-1,-2,1,-2,-1,15
106409,-15,0,0,1,-2,-7,-11,-8
106457,42,5,1,0,1,-5,16,34
106509,20,-1,-1,-1,0,-6,-2,-10
106562,-25,-2,-2,-1,-3,11,-1,0
106627,-34,0,1,1,3,5,-1,-3
106673,-3,2,-1,1,0,-2,-3,-5
106735,9,1,-1,0,-2,-7,-6,-10
106788,11,4,0,4,3,-10,-7,-10
106847,9,0,-2,-4,1,2,3,-4
106908,2,6,-1,1,2,4,-2,-4
106967,0,-3,-5,1,-4,5,0,0
107019,16,-2,3,1,-1,-6,-6,-15
107077,13,0,2,2,3,0,-3,-9
107125,16,-4,-1,-2,-2,-7,-2,7
107185,-13,-5,-1,1,4,-21,-5,-3
107238,-4,-4,2,4,8,11,13,27
107293,12,1,1,-4,-8,13,1,7
107349,-3,-1,2,-3,-2,8,-1,2
107411,10,1,2,1,-1,1,-1,10
107472,-7,-4,0,3,-2,-14,-12,-20
107530,-27,-1,1,1,2,-9,-9,-4
107585,7,-1,-2,1,2,4,2,9
107647,4,-3,0,-2,-7,12,3,10
107710,0,2,4,4,1,-5,-5,-8
107770,10,5,4,0,-3,-8,3,22
107830,25,-4,-1,-1,5,1,15,25
107884,-30,-3,-5,1,-8,-12,-12,-39
107946,8,-1,-2,1,-2,-10,-2,-10
108009,-4,0,0,-1,14,-5,-1,12
108071,-19,-1,-1,-5,4,3,3,2
108132,-4,-8,-4,1,-1,-2,-8,9
108184,6,2,-3,-3,1,2,-2,-27
108247,-50,-3,-1,-4,1,7,1,0
108309,15,-2,1,3,-2,-8,-10,-10
108371,25,1,-3,1,0,-5,0,14
108423,6,-5,-2,-1,-4,-3,-1,2
108480,14,4,0,1,2,4,-1,-7
108527,-24,3,-1,1,-5,-6,4,-9
108579,4,-2,-2,0,-4,3,-7,-7
108633,-10,-2,1,1,-3,-4,-1,-6
108689,-22,-5,-2,1,-4,7,5,17
108753,5,-3,2,1,-6,-5,-13,-7
108813,-30,-8,-6,-6,-5,18,2,1
108873,-12,-6,-4,0,2,2,1,8
108934,-14,-4,-5,-5,3,-2,1,6
108987,-9,2,-1,2,2,3,7,1
109049,9,0,-1,-1,1,2,-3,3
109113,-10,-2,-2,-4,1,-1,3,1
109173,-18,-4,-1,-2,-6,-2,-3,-13
109230,6,-2,-1,-2,-7,-1,-4,-14
109289,30,-2,-3,-2,-2,-2,-2,-8
109351,-11,-3,1,-7,-8,-3,-7,1
109413,6,9,4,4,6,-5,5,3
109473,7,2,0,-1,-1,-18,-3,0
109532,-28,-7,-2,3,3,15,4,16
109591,5,2,0,0,3,2,-2,-9
109639,-8,-4,-2,1,-2,-9,1,5
109690,-12,1,1,3,-2,1,-5,-10
109745,15,-3,-4,-2,-4,-10,-9,-7
109796,-7,0,2,-2,-2,-4,-4,-8
109853,-9,-1,-2,-1,1,1,-3,-8
109915,-1,-3,0,1,2,3,8,18
109976,-6,-4,-2,-1,-3,0,0,2
110027,15,-3,-3,0,0,6,2,-7
110090,-18,-4,0,7,2,-11,-9,4
110154,-1,0,-2,7,0,-8,3,-3
110216,-6,2,-1,-3,0,-11,-4,-6
110276,0,0,-2,-1,-1,7,-9,-9
110328,-23,5,7,-2,-2,-4,9,23
110382,43,-1,-4,-1,0,-8,0,5
110434,13,2,-2,-3,1,27,6,22
110487,-12,-4,-2,-1,-2,-1,0,-2
110538,19,-4,-2,2,-5,-3,-2,6
110598,7,2,-1,-1,-1,-3,-2,-11
110659,5,0,0,-5,-3,-5,-2,-5
110708,-1,-1,2,3,2,4,5,4
110775,-10,0,-2,0,0,-2,7,53
110838,-1,-3,-3,-2,-2,-6,-6,-6
110898,-39,-8,-1,-2,-1,-10,-13,-38
110959,15,-3,-1,-2,-1,-8,-3,6
111009,-31,3,2,0,2,-1,0,8
111072,-55,-4,-2,-2,-4,-2,-5,-19
111140,8,-5,-4,-3,1,5,2,5
111201,16,0,-1,1,3,1,-3,4
111263,-12,0,-2,-3,-1,2,-2,-19
111309,6,3,-3,-1,1,-1,0,2
111362,0,2,1,0,-2,-4,-10,-6
111415,-25,-6,-7,-4,2,3,3,4
111475,-28,-1,1,1,-4,-4,-9,-18
111527,9,-9,0,1,0,4,0,8
111580,1,-3,-3,-3,0,2,-1,-1
111641,-25,-10,-5,1,-1,-3,1,-16
111702,-17,-4,-1,1,0,-5,-1,-1
111763,-3,0,0,3,-1,-5,-4,-3
111814,2,1,-1,-3,0,-16,1,13
111878,-6,-5,-4,-6,2,4,-3,1
111940,-3,3,-1,0,-2,1,0,4
112004,22,-5,0,1,1,-6,0,-3
112060,6,-3,-3,-3,-2,-3,1,2
112117,-5,6,3,-1,-2,-5,-3,2
112176,8,-5,-1,-1,4,-3,-2,0
112240,0,4,-4,-4,-2,0,-2,-13
112301,-7,-1,-1,-1,-4,-11,-5,-5
112360,13,3,1,-5,1,-14,0,-3
112416,0,-7,-5,-2,1,2,-4,-16
112464,-15,-5,0,-1,2,5,6,3
112518,-6,-1,-1,-2,-1,-7,0,3
112571,0,5,5,2,-1,5,3,0
112623,-24,1,0,1,2,5,-1,-3
112684,-10,-2,0,0,-7,5,0,7
112743,-27,-2,-2,-1,-1,13,0,-8
112795,-18,-3,-1,-4,0,-1,-1,0
112848,9,13,1,0,-2,-5,1,10
112900,15,-3,-4,-2,-1,-3,0,1
112955,-10,-12,-2,-2,-6,-1,4,-1
113005,2,2,3,1,3,12,4,14
113063,-4,-1,-1,-2,-4,1,3,-13
113117,-24,-7,-3,0,3,-9,4,8
113169,6,0,1,-1,3,5,0,-3
113221,-12,-3,1,-2,3,3,-5,-12
113283,0,2,-2,-2,-3,1,3,6
113343,-11,-6,-2,-4,-2,0,0,-16
113396,8,3,2,-2,1,2,0,-1
113448,7,-7,-2,-1,-3,-1,-6,18
113499,0,-4,-3,-3,-4,-8,2,6
113552,13,-5,-1,0,-4,-15,-13,-2
113605,-24,6,8,3,-2,2,0,-4
113663,-1,2,1,-2,-2,-4,1,7
113725,7,-8,-5,-4,-10,3,-1,7
113785,15,5,-3,-4,3,-2,-1,-1
113845,14,-4,-1,0,0,-2,2,1
113899,5,3,3,2,2,-5,-6,1
113950,-11,4,0,0,-1,-2,1,-2
114003,-2,6,4,-3,-1,-1,2,-6
114056,4,10,1,-3,0,2,3,3
114108,6,-3,-5,1,2,5,-1,-2
114167,-11,-2,-1,-1,-2,4,-4,-11
114228,5,-3,0,0,-2,0,4,10
114287,-4,0,-3,-3,-3,-7,6,5
114343,18,-4,-6,-4,-8,12,5,-2
114392,24,-1,-6,-4,-2,0,-2,-14
114445,-7,-2,0,0,-5,-8,-5,-13
114505,4,-3,0,4,0,-2,1,7
114559,9,4,2,2,-3,-6,-4,6
114610,-5,-3,-1,-3,-1,3,5,-3
114663,20,5,2,-3,-2,5,-3,9
114719,-14,-7,-4,-4,-1,-3,1,-6
114770,8,-6,-5,-4,-4,-10,-19,-23
114828,-10,-6,-4,-4,-4,15,0,-9
114890,12,1,-3,-1,-2,-12,-11,-8
114941,-5,-1,-1,-2,0,0,0,8
114992,-5,2,1,-1,0,-8,-6,-14
115045,-7,0,0,2,4,-6,-4,-3
115099,0,-3,1,0,-3,1,0,3
115152,7,-3,2,2,2,0,1,-10
115209,8,5,1,1,-4,-6,4,10
115269,2,1,-4,-5,-7,-17,-1,11
115331,6,2,2,1,1,7,2,-5
115382,11,-5,-1,0,-4,-2,-5,-5
115443,-1,-3,-2,-1,-7,-17,-7,-6
115509,-19,5,4,3,2,-2,-1,2
115572,7,-5,-2,-3,-2,18,-4,-1
115633,-1,8,1,2,-2,-3,8,36
115681,6,-5,-1,0,0,0,-6,-7
115745,7,1,0,0,-5,-5,9,0
115814,1,5,0,3,0,-7,0,8
115872,-6,2,-1,-1,-3,-5,-5,-5
115935,-5,2,-1,-1,3,7,-4,-3
115983,0,-1,-2,-2,0,-2,-2,-6
116034,2,8,5,0,0,-2,-3,-2
116090,-6,-7,-3,-2,2,16,8,13
116140,-11,-5,-2,-2,-4,-9,-2,10
116193,-2,-3,-1,-2,-2,-2,2,5
116248,15,2,2,4,1,-10,-2,-5
116309,1,-1,-6,-1,0,1,-1,-11
116375,-2,-8,-5,-2,-1,5,8,12
116434,12,2,1,-1,2,2,-1,-1
116493,13,1,-2,0,0,1,-2,13
116555,2,-4,-4,-4,-8,-2,8,14
116612,-9,-4,-3,-5,-1,12,-5,-23
116674,-2,-1,4,3,-1,-6,3,-7
116735,8,3,1,-1,3,-6,4,-2
116798,-2,8,6,4,3,-3,-4,2
116844,-17,-4,-5,-3,-3,-8,1,1
116907,15,1,-3,1,-2,2,-1,-3
116971,-2,4,-2,-3,-3,-3,3,-5
117033,-42,0,0,0,1,8,-8,-11
117093,5,-3,-2,-1,2,-1,-2,2
117152,19,0,0,-3,1,1,0,15
117207,-1,5,0,-1,-7,-5,-7,-7
117271,-43,-5,-4,-1,-1,1,-4,-17
117333,-1,6,-1,1,-2,-3,-3,-5
117393,12,2,-2,-3,0,3,4,22
117453,-9,-5,-4,-4,4,0,0,-17
117507,-18,-4,-1,-2,1,-2,2,-1
117558,-11,-4,-2,-1,2,2,-5,-5
117614,16,2,-1,-1,2,-1,-1,11
117664,14,1,0,-3,-2,-2,0,6
117718,12,-5,2,4,0,-4,-8,1
117775,7,0,0,-1,-2,-5,-3,-9
117835,0,1,-3,-2,3,2,-3,-6
117895,6,5,3,2,-2,-4,-1,15
117949,-6,1,-1,1,-4,-2,0,-8
118011,1,-1,0,-1,-5,0,-3,-1
118074,12,-3,-3,-1,0,5,2,-6
118135,-1,3,-2,-5,-2,-3,-3,5
118195,11,-5,-3,1,-2,-8,1,4
118256,-4,-9,-1,-2,-3,-7,-5,7
118309,-30,3,-2,2,4,-7,1,-3
118359,9,7,2,-3,0,23,-3,3
118412,4,-2,-3,0,-1,-13,-2,7
118465,-12,-5,-1,-3,1,11,-7,-8
118519,0,-4,3,2,-5,0,-1,5
118576,35,8,1,0,-1,11,-4,10
118639,6,12,3,1,2,9,-9,8
118699,-7,-1,-1,-1,1,-2,5,18
118751,-1,12,0,-3,1,2,-1,13
118812,-3,6,2,0,-2,-5,5,5
118863,-6,-7,-2,1,-1,-13,-3,-7
118915,-10,-7,0,2,-1,-5,11,15
118969,-12,0,0,-1,-2,2,-6,0
119025,-3,3,3,3,-2,-3,-6,-4
119080,-6,2,2,3,2,3,6,0
119141,-2,-2,5,3,0,-1,1,25
119202,7,5,-1,0,-3,-6,4,15
119261,-6,-6,-5,-2,-2,-6,-8,-8
119313,6,8,1,-2,-3,0,2,3
119375,5,1,-4,0,-5,-4,1,-4
119439,-3,-9,-4,-1,-3,-6,-3,-10
119501,-1,-3,-2,0,0,11,1,-12
119563,-2,5,-1,-3,0,17,3,17
119622,-9,3,-2,-1,-3,3,7,-2
119673,13,-1,0,-1,-5,15,-8,-14
119737,-7,-9,-1,2,0,0,-6,-4
119798,-12,-9,-3,-2,-2,5,4,7
119861,-1,7,-1,2,-1,-19,-2,-1
119921,-6,-7,-2,2,0,1,-4,-12
119977,-3,-11,-5,-9,-5,0,-3,18
120024,-14,0,0,-3,-6,14,-9,-7
120077,-9,-5,-4,1,0,5,1,-2
120131,1,-4,-3,-3,-3,7,2,19
120183,0,-5,-3,1,1,-3,0,-3
120243,18,-4,0,0,0,2,-5,16
120303,-10,-6,-4,-2,-1,-4,-3,-18
120354,-20,-4,1,0,-4,6,2,27
120421,0,-2,-1,-3,-10,-16,-2,2
120480,13,9,2,0,1,-4,0,23
120543,13,3,2,0,-4,-7,-9,17
120602,-5,-7,-3,-1,0,-9,-1,-15
120659,2,0,-4,-2,-5,-1,-3,-13
120719,-28,3,2,0,1,-3,4,1
120781,-14,-3,-5,-4,-3,1,-1,-1
120842,1,1,6,-1,0,-4,-12,-9
120904,-4,2,-4,-2,0,-4,6,18
120958,1,-3,-1,-7,-3,-5,7,-12
121008,14,6,5,4,-1,-2,-1,18
121059,-5,-2,-2,-2,-1,-2,-2,-14
121113,2,-6,0,0,2,-4,2,10
121166,0,-4,-1,-4,1,1,0,1
121225,0,-7,1,1,-1,1,5,0
121278,1,3,1,0,2,-3,3,-6
121330,2,-3,-2,-5,1,2,6,-4
121384,3,-9,-5,-2,-3,0,5,9
121441,-1,-3,-2,0,-2,5,4,16
121488,-4,4,0,-3,-2,-4,-2,-11
121541,-4,0,-4,1,-1,0,-2,-8
121606,-3,-5,3,-1,0,6,2,11
121668,3,8,1,-4,-8,-9,-4,25
121718,-4,1,-4,-2,0,3,-2,-11
121775,-4,-1,-1,0,3,-1,4,16
121824,-3,7,2,-2,1,-4,-4,-24
121884,8,4,-1,-1,-4,4,3,7
121936,-2,0,-5,-4,0,-6,-8,-18
121989,2,9,3,-3,0,5,-2,10
122043,-1,-5,-4,-2,-3,-8,-1,3
122095,-8,-9,-6,-1,-2,9,1,-2
122148,2,-4,-4,-3,-2,-10,1,-3
122205,0,-2,3,1,0,-17,-5,-6
122267,-3,-1,-3,-3,-5,-5,0,1
122328,-7,-2,3,-1,-3,-10,-5,-7
122387,2,-6,-5,-1,-2,-1,2,-11
122441,-1,6,2,-3,-3,-10,0,4
122505,-6,-1,-3,-5,-4,-1,3,10
122567,3,3,1,-2,-2,-4,1,8
122628,2,8,1,-1,-4,-7,-2,2
122678,3,2,0,-1,-4,0,-1,-2
122732,-7,5,-5,-10,-7,-7,-3,-8
122788,1,5,2,-3,1,-3,14,11
122846,-5,-4,-4,-2,-4,-1,-5,-8
122898,-3,-8,-3,-4,-2,-3,-2,11
122950,7,-9,1,1,1,0,4,18
123008,-3,-1,-2,-1,4,-6,-1,-8
123070,-5,-8,-3,-1,2,1,0,-5
123130,-5,-3,-1,2,-2,-6,-5,0
123183,3,9,8,1,-3,3,4,10
123234,-8,4,1,3,2,-2,0,1
123293,0,-1,-1,-6,-5,-1,5,-5
123341,-6,-8,-2,1,1,2,0,-28
123392,2,-1,2,1,-3,-4,-1,8
123450,1,-1,1,1,-1,-2,-1,0
123512,4,2,2,3,1,4,2,15
123573,-1,-2,-3,0,-2,1,-11,-50
123634,6,4,4,2,1,3,3,28
123687,2,-2,0,0,2,2,0,4
123751,-5,1,0,0,0,3,-6,-20
123812,-3,-6,-2,-1,1,3,-2,25
123874,3,-3,0,1,0,4,1,17
123930,2,3,0,1,3,-1,-2,8
123990,0,-3,-3,-5,2,2,-4,2
124050,-4,1,-1,0,-2,-3,-6,-13
124113,-1,-5,-4,-2,-4,3,3,-3
124173,-5,0,-1,3,0,-5,1,-3
124228,-4,2,-3,-3,-2,4,3,3
124287,2,11,1,1,-2,-4,3,7
124350,-1,-1,3,-1,-2,0,0,-8
124412,0,0,-5,-2,2,-2,-3,-3
124474,-3,-2,-1,-3,0,-1,-1,-5
124534,-3,0,-1,-2,3,1,-2,-15
124585,-3,12,6,-2,0,3,2,3
124637,1,2,2,-2,-2,4,4,7
124690,-2,3,-4,4,6,9,5,-9
124742,1,-3,-3,2,0,-2,3,0
124795,-5,0,2,1,0,2,-2,-9
124850,-3,-1,-5,-6,-3,-6,-4,-3
124913,-2,2,-2,-5,0,7,2,-6
124975,1,-1,-2,0,1,0,8,-1
125036,-4,-3,2,-3,-6,-9,-7,-8
125096,-2,1,0,-1,3,1,3,13
125148,3,7,1,0,3,3,-3,-11
125210,2,-4,-3,1,-2,-7,-4,12
125273,11,12,4,3,2,4,5,27
125336,-8,2,-4,-3,-1,-3,-10,-15
125396,-11,-14,-8,-3,4,4,-5,-13
125446,5,24,9,-1,-2,4,-2,-13
125499,3,-1,-2,-1,2,-5,-1,10
125554,0,5,1,-4,0,1,3,-8
125605,-1,5,3,1,-2,-4,-4,-1
125659,0,9,5,1,3,5,-1,-8
125717,-8,0,-5,0,-2,-2,-2,16
125778,-3,-1,-4,-2,-1,-6,-5,-8
125838,0,5,-4,-2,-1,-4,-4,-6
125889,2,4,-2,-3,-1,-3,0,12
125949,-1,-3,-7,-6,-1,2,-3,-16
126012,5,0,-3,-2,-2,-2,-3,-2
126076,-3,-3,2,-1,3,1,-3,-8
126138,-1,3,-1,1,6,2,7,6
126197,-1,5,2,0,-1,-1,0,2
126249,1,-1,2,-2,-3,-9,-7,12
126309,2,1,0,0,1,7,2,-1
126373,0,-7,-3,0,0,1,4,6
126434,0,5,4,1,1,-1,-10,-14
126501,-7,-5,-2,-1,0,-5,-1,-11
126561,-8,0,-5,-1,-1,-4,-12,-19
126609,-1,-3,0,-1,-5,-5,-4,-12
126662,1,2,4,-2,-1,-3,1,10
126715,-4,-3,0,3,1,2,-1,-4
126767,4,14,7,3,3,7,11,22
126821,-10,-1,-4,-4,-4,1,4,-7
126879,1,0,-1,-3,2,3,-1,6
126940,-4,-2,-1,2,0,-3,-6,-28
127002,-1,-6,-4,-3,1,5,3,2
127066,-5,-1,0,1,-3,-3,-3,-14
127114,7,4,0,2,1,-2,0,11
127180,0,2,0,0,0,-5,0,-7
127246,-1,-5,-1,1,0,1,4,4
127300,-4,0,-2,-1,1,-3,-10,-21
127366,0,0,2,-1,1,0,0,17
127414,-4,1,-4,-4,-1,-8,1,-35
127464,-1,0,-4,-3,-2,-3,-1,-3
127518,1,0,-1,0,6,1,-6,1
127571,4,2,2,0,0,-1,-3,10
127623,5,7,0,-2,-1,1,-10,0
127682,-1,-2,-3,-4,0,-1,-2,-2
127743,-2,-3,-2,-1,-6,1,-9,3
127802,-1,-2,-2,-1,-2,-4,-12,1
127854,2,1,-2,-3,2,0,5,11
127915,2,-3,0,3,2,-2,3,11
127977,-1,-6,-5,-5,-3,1,7,12
128040,1,1,0,-2,2,1,5,4
128102,-2,2,4,0,-3,-2,8,0
128163,-3,4,3,-1,-1,-3,-8,-14
128223,-3,-2,2,-3,-3,1,-2,0
128283,-1,-4,1,-6,0,0,-4,-1
128343,1,-2,-2,-9,-4,1,-1,1
128395,1,-6,-5,2,0,-3,-2,15
128447,0,-2,-3,-2,-2,1,5,0
128500,-3,0,4,1,-2,-2,-4,-4
128550,-5,-7,0,-1,1,6,-10,-5
128606,2,-6,-2,3,-1,0,6,14
128661,1,8,0,0,-8,-1,-5,-4
128727,0,-1,1,0,0,-2,-4,-6
128785,-1,-4,-3,6,-2,2,4,5
128836,-3,-5,-3,-3,-3,1,-3,-4
128890,-3,-3,1,-1,-3,0,1,-10
128943,-3,-2,-3,-2,-1,-12,-3,3
128994,0,0,-2,0,1,2,-1,1
129047,-1,-2,-3,0,-1,7,-3,-9
129100,-1,-6,-4,-1,4,-3,-2,0
129153,2,-1,0,-4,1,0,-4,17
129210,-2,0,-5,-2,0,0,-8,-11
129266,2,3,3,1,-5,-9,1,3
129321,-1,4,-2,-3,-8,2,-2,6
129390,-1,-1,2,-3,1,0,-3,-2
129449,-9,-2,5,2,-1,-9,-9,-13
129509,-2,-10,-1,3,-4,-22,-2,0
129556,-3,4,0,-1,-6,-3,-4,-9
129609,-1,4,-3,-6,13,1,6,2
129663,-3,-2,-6,-4,-6,-7,-7,-10
129714,0,6,3,1,-4,-5,-8,-9
129767,-4,-5,-6,-6,-6,0,-1,-5
129825,0,-5,-1,2,4,2,0,20
129887,6,10,1,0,2,0,2,3
129937,1,-7,-2,-3,0,-2,-1,-1
129992,1,-2,-1,0,-3,-5,-2,-11
130048,4,-3,-4,0,-5,-8,1,14
130095,2,7,7,3,3,-2,-8,12
130151,-1,1,-1,-2,-3,-2,6,-3
130209,5,2,0,-1,-4,0,3,8
130270,1,-2,-3,-1,-3,0,4,4
130322,-4,1,-3,-3,-2,2,-6,-4
130377,-1,1,-1,-3,-2,3,10,7
130428,-4,-4,-2,-2,-5,-16,-5,-17
130487,-11,-2,-3,-4,-12,-11,-3,-3
130539,-27,-13,1,-3,8,-5,-3,-10
130599,-1,0,0,0,-22,-7,-13,2
130652,24,7,1,-1,-9,-1,-2,9
130705,-2,2,-1,-9,-15,-10,-3,39
130762,-2,-13,-5,0,1,0,4,7
130810,-8,0,1,-2,28,5,-9,-3
130868,10,1,-2,-3,-4,-4,1,15
130930,9,17,4,-2,-13,0,-2,3
130990,22,0,1,-7,-14,-8,6,-3
131053,22,-3,-3,-5,-20,-7,-8,-8
131106,49,0,-6,-6,0,-3,-16,-13
131157,-55,-1,1,-3,-11,-4,0,-3
131207,19,5,1,-3,5,5,0,7
131262,-56,-10,-4,-3,1,8,-5,-10
131313,-34,-2,2,0,-8,-12,-3,-3
131371,7,-3,0,6,5,1,-2,-17
131433,-6,-5,-5,-5,-7,0,0,-11
131493,4,0,-1,1,-1,-8,8,-9
131553,-56,-16,-8,-3,-4,2,1,-7
131603,-6,-2,0,2,-4,-2,-6,-18
131667,-6,1,2,-3,3,7,0,5
131731,3,0,-3,-3,-15,-5,3,15
131793,21,-1,-3,-2,-2,1,-7,-10
131853,3,-1,-2,-4,-2,-4,-7,-16
131911,-2,-4,-3,-3,-6,-12,1,5
131968,-11,5,2,-2,-1,-2,-1,-5
132033,10,7,3,0,-7,-2,4,8
132094,13,-2,2,4,-3,-7,-9,-10
132152,-17,4,3,0,3,0,-3,-15
132204,1,1,1,5,15,7,0,-17
132258,-18,-1,-1,0,1,-5,1,2
132312,-8,-2,-2,0,-10,0,-6,-11
132370,-1,-1,1,-1,1,-5,-3,19
132423,-14,-7,-6,-4,-23,1,7,-6
132480,-8,8,4,-5,0,0,-6,0
132530,16,-1,0,-2,-20,-4,-10,-4
132600,-8,-8,-3,-1,1,4,-2,-2
132656,0,6,4,0,-1,-5,-6,-14
132716,0,3,-3,-2,-5,-7,-2,-2
132775,1,-5,-1,0,3,6,-7,-14
132834,-1,4,4,4,-4,-8,5,14
132893,8,-1,0,-1,0,-12,2,10
132957,-3,2,-2,-1,12,-1,-3,-27
133017,5,-1,3,-1,-4,1,2,-7
133075,-3,-3,0,0,-2,-11,-7,-3
133130,7,-2,-2,4,-3,-2,0,-6
133179,-4,3,-3,-7,-4,14,-1,-5
133232,9,-3,-4,-2,0,2,-2,-11
133287,-8,-3,0,-4,-3,-2,3,10
133340,14,0,-3,-3,-10,-6,-4,-15
133400,-4,1,0,-9,-22,-7,-5,5
133460,0,-3,-2,-2,-3,-11,0,0
133509,0,-3,0,2,3,0,1,7
133577,5,3,1,0,-6,3,1,13
133638,-2,-2,1,3,11,4,11,-2
133698,-5,-4,-3,-4,-4,3,-2,-5
133758,-9,-12,-1,1,3,3,-1,-29
133812,1,-2,-4,-3,-5,-3,7,29
133875,4,2,-1,-4,-7,2,-4,23
133936,0,-1,-3,1,-3,3,-7,6
133999,-4,-1,0,-1,7,-9,11,-5
134058,-2,-2,0,0,4,11,1,8
134117,-1,-3,-1,-2,3,-3,-4,-1
134173,-2,-1,3,1,0,-5,4,1
134224,-1,6,2,-4,-7,-3,2,-4
134276,-4,-12,-4,-3,2,7,-1,-10
134330,0,-3,-1,-1,1,-1,-3,13
134385,1,-5,-4,-4,5,8,6,20
134438,0,2,1,1,10,6,3,-12
134504,-3,-8,-3,-3,-2,4,-4,1
134563,-1,-1,-3,-5,-3,-1,-1,-18
134621,5,2,-1,-1,-4,13,-7,-3
134673,2,-1,-1,1,4,-4,-4,-2
134741,2,9,4,2,8,-3,-10,25
134800,-2,6,3,3,3,0,-6,-6
134860,-5,-5,-2,-4,-10,-2,-1,-10
134920,-6,-2,-3,-5,-6,2,-4,-6
134977,1,1,3,4,2,-2,4,-7
135024,-3,-3,-4,-2,-5,-15,-2,-4
135077,-4,-1,0,-6,-4,-4,0,-12
135129,1,-3,-3,2,-10,-1,3,17
135184,5,0,1,0,-8,-9,4,11
135243,0,2,2,2,6,1,-8,-28
135303,3,-5,-2,-1,-3,-3,2,-5
135363,-4,-4,-2,2,-4,1,2,6
135416,-2,-7,-3,-3,-6,-3,1,-8
135477,-1,2,2,-1,-4,-6,1,-22
135544,1,4,-2,-1,-5,-8,-1,3
135604,-1,2,2,-1,-5,-11,-1,-3
135664,0,-4,-2,-2,0,3,-9,-24
135724,-1,5,7,3,2,2,1,9
135777,-2,0,0,-1,-1,3,-3,-14
135844,-2,-3,2,1,2,1,-3,-2
135904,-2,-5,1,0,-4,-3,-4,-3
135964,1,1,1,0,15,-4,1,-4
136025,-6,-8,-1,-2,-2,1,-10,-14
136077,0,-5,-1,-1,-5,-5,4,6
136128,2,-1,-3,-6,1,3,4,9
136180,-2,-3,-3,0,0,-1,-2,10
136235,-1,0,-1,1,3,-5,-7,7
136285,-1,0,0,-4,-3,3,1,9
136344,-1,-4,-5,0,-2,-5,3,0
136406,-5,-2,-1,-1,0,4,9,3
136468,-1,-1,-3,-3,-2,6,5,15
136517,4,4,1,1,-1,-5,-10,0
136579,3,5,0,-3,1,1,6,37
136646,-4,-3,-2,-3,-3,-2,2,12
136704,-2,-3,1,-1,-5,-3,1,-12
136764,0,1,0,2,13,-1,-1,-6
136826,3,-3,-2,0,-1,-1,-6,7
136882,20,14,3,-1,-4,-6,4,2
136929,6,1,-2,1,-4,10,1,-2
136982,-2,-6,2,0,4,-9,-4,-1
137033,11,-2,1,-4,-9,-4,-4,-7
137088,-30,-7,-6,-5,-2,0,4,-4
137146,5,2,-3,2,11,5,-2,-4
137207,-10,0,0,1,10,5,-2,-12
137267,16,2,2,-2,2,-10,-6,6
137325,-18,3,0,2,10,3,-3,-9
137372,7,0,-3,-4,-6,-3,11,7
137425,17,3,3,-2,-3,-2,2,4
137481,27,0,-4,0,2,7,-2,-8
137541,49,13,5,1,4,3,12,48
137590,19,3,4,5,12,-10,2,14
137642,-23,1,2,5,25,-8,-11,3
137697,17,6,4,0,-3,-3,1,10
137750,16,-3,-6,-6,-5,7,-1,7
137803,23,2,2,5,1,-1,7,21
137867,7,2,2,0,18,8,-1,-1
137930,-52,-2,-1,0,-4,-2,-4,-27
137989,6,1,1,0,-3,2,6,-9
138038,7,3,4,3,1,-2,-1,-3
138092,-15,-2,-5,-5,0,0,-1,-5
138144,-36,-3,-1,-3,-4,-6,-8,-3
138196,4,-3,-5,-3,-6,1,3,2
138250,-1,-4,-3,-3,-5,-3,-1,-10
138307,-6,-3,-2,-5,-6,-6,-6,-6
138370,-6,0,0,2,1,-9,-3,-16
138430,-2,-4,-2,0,1,7,-2,-23
138491,0,-3,-3,-2,-4,0,-1,-5
138544,1,-1,-1,-1,-1,-3,-3,-2
138607,7,2,1,-3,4,3,-1,15
138670,-5,-2,1,-1,0,0,0,3
138730,8,3,5,2,3,7,6,2
138781,-2,-1,0,-2,-1,-10,-3,2
138834,-1,-5,-4,0,6,1,-3,-22
138890,2,0,0,2,7,0,1,1
138940,4,-1,-2,-3,-2,-7,-3,-1
138993,-1,-1,-3,-3,-2,-6,-1,-5
139048,-2,0,2,2,2,10,-6,-9
139113,-3,-2,0,-2,-1,2,-3,1
139174,14,-1,-4,-3,-2,-1,4,3
139234,-6,-1,1,2,-4,0,-3,8
139288,-4,0,-4,-2,-4,-2,3,11
139350,-2,0,-2,-3,1,-2,-1,-1
139410,9,-2,-1,0,2,0,1,2
139472,-12,-5,-8,-11,-6,1,-6,4
139533,0,1,1,0,-7,-4,-7,-3
139594,-6,-1,1,-3,-8,1,-1,-3
139648,0,4,4,-2,-1,-3,-12,6
139697,0,-1,0,-3,-2,-3,-2,-8
139757,6,1,-2,-3,-6,-2,-2,-11
139810,-5,-2,-1,-2,-2,14,-4,-10
139869,1,3,-2,0,0,-3,-2,1
139930,-1,1,0,0,1,4,-1,-8
139990,-1,-1,1,3,4,-8,-6,3
140043,-1,-2,-1,-3,-1,-1,-2,1
140096,-2,-4,-3,-4,-2,-3,1,12
140153,1,13,3,2,-1,1,0,5
140215,-3,-3,0,1,0,2,-4,-16
140276,-9,-3,-2,0,0,1,1,-13
140329,-2,4,-1,-2,1,-5,3,17
140392,-3,-4,0,-1,-4,3,-4,-1
140453,-5,-8,-5,-2,0,-3,-6,-4
140517,-1,-1,-1,-3,-3,-7,0,-2
140575,1,9,1,2,-2,-2,-5,-10
140628,-2,2,1,0,0,-6,-6,-18
140680,-1,-4,-1,-2,-10,-1,-2,-6
140733,-7,-4,-2,-4,-3,-4,-1,-2
140783,-10,-12,-4,0,-4,-1,-1,4
140839,1,-4,1,4,-1,-11,-4,-8
140892,4,4,2,1,-1,-1,4,2
140958,-2,4,5,2,3,4,-1,-11
141019,-3,-7,-4,-4,1,0,0,-5
141080,1,-4,-2,-1,-1,8,-6,-7
141130,-5,5,0,-2,-3,-6,-3,-1
141193,-2,2,3,0,0,-1,-3,-5
141260,0,5,1,-4,0,1,3,8
141320,0,-6,-6,-3,-3,-1,1,0
141380,2,-2,-2,-3,-9,-3,2,11
141441,-5,0,0,-1,2,0,-4,-18
141490,-3,0,1,0,-8,-6,-3,6
141553,-2,-4,-4,-4,-5,-3,-4,-15
141618,0,1,-1,-2,-5,20,-1,14
141678,-6,-7,-3,-3,-3,-2,2,-3
141739,-2,-1,-1,0,0,0,-4,-15
141799,-4,-1,-3,-6,-2,-2,-4,2
141851,-3,-3,-1,2,0,-1,1,-2
141919,-4,-2,-1,1,-2,-9,-2,-11
141978,0,-1,-3,-2,3,-7,-2,-4
142039,-1,-2,-2,-4,-3,1,-2,-8
142089,0,-4,-4,-5,-6,-5,2,13
142142,-2,-3,3,1,0,3,3,3
142194,-3,1,-2,0,2,0,2,-1
142246,-5,1,-1,0,-1,-1,-7,-9
142300,-1,4,2,-2,-6,-2,-4,-4
142355,0,-3,4,3,3,1,-6,-7
142421,0,1,-3,-2,0,5,-1,1
142479,1,-2,0,2,-1,-1,7,5
142541,0,-2,0,4,2,-2,0,-1
142601,-4,0,2,3,-3,-4,-3,-5
142652,1,-5,-3,-4,-1,-1,2,2
142707,0,-6,-4,0,1,6,1,5
142759,-7,-2,-1,0,-1,7,3,-1
142809,-3,-10,-5,-5,-8,-3,1,-15
142866,-3,0,2,1,-4,-1,-2,-13
142918,1,-6,-3,-5,-1,3,-4,0
142983,2,-1,-2,0,0,-6,3,1
143046,0,0,-1,1,-5,-5,0,-1
143104,-9,-2,-1,-2,2,1,-7,-25
143162,-4,-1,-3,-5,-4,2,-3,-2
143217,-11,-18,-8,-4,-1,-2,-4,-5
143281,-5,9,-1,-4,1,-4,3,-3
143343,2,4,1,0,12,-4,-5,-5
143406,5,-7,-5,-2,-3,0,3,3
143455,4,-2,-1,3,-5,-7,5,8
143507,-1,-9,-4,0,2,1,1,10
143561,0,3,-1,-1,-1,4,8,13
143612,0,-4,-4,0,-1,-3,-3,10
143669,1,2,-3,0,-4,-1,1,13
143728,-2,-4,-5,0,-3,-5,-1,-4
143788,1,-5,-2,-1,1,3,-2,-6
143836,-2,-10,0,0,-3,0,0,18
143897,-3,3,2,1,1,-1,-1,10
143960,2,8,2,2,-1,-1,-4,-2
144028,1,-9,0,-2,-2,-2,1,25
144086,0,3,0,-2,0,-2,-9,-6
144145,-8,-3,-5,-1,-2,-1,-8,-14
144198,-2,-3,0,-1,-4,-10,-3,7
144263,1,-4,-2,-2,-2,-6,-2,-5
144323,-3,-3,-1,0,-2,2,-2,10
144387,-7,-7,-3,-1,1,6,2,-9
144445,0,1,1,0,3,0,2,-5
144506,-7,-2,2,1,2,-9,-2,-13
144560,-6,-11,-8,-2,-2,-1,-1,-9
144610,-1,-13,-7,-1,0,2,2,3
144662,5,8,7,3,-3,-4,-3,3
144715,-3,0,2,-2,2,3,0,-6
144768,-4,2,1,-2,0,-4,-1,1
144828,-3,7,0,0,2,2,1,-6
144888,-3,-7,-2,-1,-6,-4,-1,-14
144943,-5,1,1,-1,1,-3,-5,3
144992,-6,-6,-6,0,2,0,-1,-11
145045,-4,17,1,-2,-3,-2,-3,-12
145096,-3,-11,-6,-4,-9,-9,-2,-9
145149,-7,-11,-8,-1,-3,4,-7,-27
145201,-4,-3,-3,-3,-3,-8,-6,-19
145254,-1,-1,-1,0,1,-21,-8,-15
145307,-5,-3,-2,0,-1,-5,-2,-14
145367,-7,-7,1,0,1,4,-3,7
145428,0,1,-3,-5,2,3,4,0
145487,-4,-11,-4,-1,-5,-3,-6,-29
145547,4,0,-2,0,0,0,-2,-7
145591,-1,-4,1,-4,-4,2,6,1
145645,4,5,4,0,1,1,-2,-3
145696,0,11,1,-5,-1,-1,3,-5
145752,3,1,-1,1,4,-7,-1,-4
145811,-1,-7,-4,0,7,8,-1,4
145870,-2,1,0,-1,-2,-1,-3,-3
145930,-2,-1,-1,-3,-2,-3,-1,-2
145982,2,3,-5,-5,-8,-10,5,2
146035,-2,-2,0,-1,-6,0,3,-2
146087,0,0,-2,-2,2,-16,-1,-1
146141,-3,-4,-1,-3,2,1,2,-11
146192,-6,-11,-3,-1,-2,-6,-6,-7
146251,-1,-7,-1,0,0,6,3,4
146317,3,7,0,-1,0,1,-1,-12
146375,1,-3,-4,-1,-3,-6,-3,14
146424,2,1,-1,0,0,19,-1,12
146477,-8,-1,2,0,0,4,-8,-17
146530,-8,-5,-4,-5,-6,-15,-4,-6
146582,-5,-3,-3,-3,-3,6,-3,-28
146634,2,2,-2,1,-4,0,4,-4
146694,-8,-18,-6,1,2,0,-6,-19
146748,3,0,0,2,2,-3,-1,18
146806,4,4,0,-1,-6,-2,0,-4
146868,10,13,5,-2,1,-2,4,18
146927,-4,-4,-1,-3,-3,-3,-1,-21
146986,-3,-3,0,0,0,6,0,4
147040,-2,-2,2,1,-2,-15,-5,9
147094,1,1,4,3,4,0,7,5
147150,-1,1,0,-1,0,1,-4,-1
147213,0,2,0,-1,9,-10,3,-4
147274,1,1,3,3,-1,-6,-9,1
147334,-1,3,0,1,2,13,4,-3
147386,0,1,-2,-2,-7,7,1,8
147436,-2,-5,-2,-2,-1,-3,-10,-5
147496,2,-1,-2,0,4,3,-1,3
147549,-2,-2,-3,-2,2,0,2,5
147602,-3,-2,-1,-1,1,13,0,-7
147656,0,-1,-2,1,7,1,-1,-3
147709,-4,1,0,-6,-5,-2,-4,3
147773,2,6,0,-3,-9,-3,7,-2
147835,0,-3,-2,1,4,5,3,9
147895,-11,2,2,-2,-11,-5,-2,1
147947,1,-4,-3,-5,3,-2,-3,8
148008,1,1,0,-4,-9,-3,-5,3
148070,-1,0,-1,-2,-8,0,0,8
148131,-2,-4,1,-1,-3,-17,-4,-18
148193,-1,0,-3,-3,-1,0,0,1
148255,-2,1,1,-1,2,4,0,-14
148315,0,-2,-2,-2,-4,1,-2,-6
148367,-2,-3,-1,-1,-2,-1,-12,-46
148419,0,-1,-1,3,13,6,-1,-12
148473,1,3,3,1,-2,-5,1,2
148524,-1,-2,-2,-1,2,4,-1,-1
148578,-2,-4,-1,-3,-7,0,-1,-2
148633,1,-2,-3,0,-5,-4,0,9
148696,-3,-5,-2,-3,-2,-1,-4,-5
148760,1,-2,-1,-1,-5,-2,-5,-20
148817,-2,-3,-1,0,0,2,5,2
148871,0,0,0,2,6,1,0,-2
148937,1,8,0,1,5,1,-1,10
149002,0,-3,-1,-3,-5,-1,1,-5
149061,0,0,1,2,2,0,-4,0
149108,-3,0,-2,-1,2,0,3,-3
149171,-1,2,0,5,12,-2,-8,0
149221,-3,-3,-1,-4,-11,-4,-3,-9
149275,-9,0,-1,-8,-7,2,1,-25
149335,1,-3,-1,4,-4,-15,-2,-6
149381,-4,0,0,-7,15,-6,0,4
149440,10,0,-3,-6,7,17,-1,-7
149500,6,1,1,20,2,8,0,13
149551,6,3,-1,-2,0,1,2,8
149613,-21,1,-1,1,-10,11,0,-7
149678,-8,-9,-4,-1,-19,-1,0,-4
149741,11,6,2,1,-20,5,6,-2
149800,1,1,0,7,14,1,-2,-3
149853,29,7,1,2,13,12,-2,-5
149914,5,-1,-1,4,0,1,3,11
149975,4,6,-2,-9,-8,-4,1,13
150026,-3,-8,-3,-2,3,0,-3,-12
150078,0,0,2,5,6,1,3,-7
150133,3,-1,1,-3,14,2,4,-12
150185,-2,5,1,5,10,1,-2,0
150240,-8,-2,-3,1,10,8,0,-17
150308,5,-5,1,-4,-7,-2,-4,-3
150363,-2,-4,0,-2,1,1,0,-7
150415,-8,3,-3,1,10,-3,-3,-9
150482,2,3,3,4,17,0,-2,0
150540,2,1,-2,-2,-13,3,2,8
150603,0,-7,-1,1,0,4,-3,-3
150662,-3,-3,-4,-1,4,-1,-7,-36
150715,-2,-4,-2,-1,8,-1,-5,1
150777,-2,0,2,-2,2,-3,-4,-8
150840,1,9,0,1,5,2,0,3
150903,2,2,3,-3,0,0,6,26
150963,0,1,-1,-1,-6,1,-3,-5
151023,5,-1,0,-1,5,0,-3,1
151076,-6,1,2,-1,0,0,-2,-9
151134,-9,4,-3,-3,-3,-1,-1,-8
151187,-2,3,0,-6,-15,-1,-3,6
151240,7,6,1,3,5,0,2,8
151295,3,0,0,9,3,-1,0,16
151346,-4,-4,-1,1,0,0,-2,-7
151403,1,8,-2,-11,-3,1,-4,-1
151465,-4,-4,-3,-6,-9,0,-3,-21
151518,-4,0,-4,-1,5,2,0,-9
151581,-3,0,-2,5,-2,-1,-5,-11
151641,-1,-3,-3,-6,2,-2,1,6
151706,3,-5,0,-1,6,1,-4,0
151767,3,2,-1,11,9,2,4,5
151816,-2,-2,-2,-4,-7,-2,4,9
151881,-1,-1,-3,-3,-7,-2,0,-8
151940,-1,2,-3,0,9,-3,-1,2
152003,3,1,2,2,-4,0,2,6
152065,-1,3,3,-5,5,0,-3,-10
152125,1,-1,-1,-1,5,1,2,17
152186,7,4,4,-2,6,2,4,15
152240,0,-3,-3,-4,1,-3,4,1
152288,0,1,1,-2,2,3,2,2
152342,1,-7,1,0,-2,-1,6,21
152395,1,-1,0,4,1,0,-4,-3
152448,0,-7,0,-5,-9,-1,2,11
152506,-4,-2,2,-1,-12,-2,-3,-6
152569,-2,-2,1,2,7,4,2,5
152627,-3,-3,-1,0,-10,-4,-6,4
152681,-1,-3,1,2,0,0,1,1
152744,-4,-6,-4,2,-4,0,5,1
152799,-1,-1,-3,-5,-7,-1,0,9
152853,0,-2,-3,-3,-7,-6,0,-5
152907,-1,-3,-5,1,1,2,-1,0
152957,3,-1,1,-1,-2,-2,0,21
153011,0,-3,-3,-6,-8,-2,-9,-1
153074,1,0,3,0,-7,-2,0,-3
153129,-2,0,-2,-1,2,-1,0,-4
153183,-7,2,2,-3,-6,-3,-4,13
153237,0,0,-2,1,-2,-4,-4,-4
153287,-7,-8,-4,-2,-6,-5,-12,-23
153340,2,-2,-2,-1,5,1,3,14
153392,3,-3,-1,-1,5,2,6,11
153444,-1,-1,-1,-1,-1,-3,1,11
153497,0,2,-8,-7,-7,-3,0,16
153550,1,2,-4,1,2,0,4,3
153610,-3,-2,-1,2,-4,1,1,-11
153672,-2,-2,1,3,-4,2,-3,14
153729,0,1,2,-1,0,-3,-5,-25
153784,-4,0,4,2,-2,1,-2,2
153835,-4,6,-1,-2,-4,0,-6,-2
153887,3,-3,0,-1,-2,-2,1,11
153941,1,2,0,2,0,1,-3,-11
153993,0,-3,0,-3,13,1,-1,-28
154052,-1,-1,2,-2,0,0,2,6
154113,2,1,2,1,2,3,-1,9
154173,-2,6,-1,1,1,0,2,-1
154225,-1,2,0,1,1,-1,2,-5
154277,-1,-1,-2,0,-2,2,-3,-10
154332,0,-1,0,1,-2,0,3,1
154384,0,5,1,0,3,1,0,6
154436,4,0,0,1,1,1,5,12
154486,-2,-2,-1,-1,0,-1,1,-13
154541,-8,-7,-1,-1,-3,-4,-2,1
154592,0,0,0,-2,-4,-2,-4,0
154650,-1,9,4,1,1,1,0,-2
154716,2,-4,-4,2,3,2,0,12
154774,-1,-5,-1,-3,-3,-1,-5,-17
154833,-1,3,1,-1,-1,3,4,-4
154890,0,-2,-1,-2,-1,1,0,-2
154953,-4,-2,-5,-3,-5,-3,-2,-8
155012,0,3,1,3,0,-2,-1,-4
155073,0,-1,-1,-1,8,2,2,7
155125,0,-3,0,-1,-2,1,2,2
155176,0,0,3,0,-5,-1,0,-8
155229,0,6,0,-1,-4,0,-2,1
155283,-3,0,-1,1,-1,-1,0,-13
155335,-10,-2,2,-5,1,-3,-11,-29
155393,-2,1,-3,-4,-2,-6,-2,-11
155455,-6,-3,-2,-3,-7,-1,0,-5
155515,3,-1,0,-1,5,0,-2,5
155570,-1,-4,-2,-5,-6,-3,4,27
155630,1,-4,-1,-1,-1,0,-1,5
155695,6,2,2,0,-1,1,4,25
155756,-1,0,3,-1,-2,-1,-1,3
155815,-1,-5,0,0,-2,-1,-2,-30
155877,-6,1,1,-1,0,-2,-6,-2
155928,1,4,-6,0,1,2,3,0
155980,-3,0,-1,0,3,1,1,-1
156032,0,3,-1,0,-2,-1,2,3
156087,1,-6,-4,-4,-1,-1,0,2
156140,-1,3,-1,-5,-6,-6,-8,-15
156199,-1,-1,-5,-4,-4,-2,0,-3
156261,-3,9,0,-1,-7,-5,-1,-33
156309,-2,-8,-13,-6,3,3,3,20
156373,-5,-13,-4,-2,-4,-2,-4,-11
156435,-1,-6,-7,-1,-2,-1,2,0
156498,0,8,-2,-5,-2,1,7,-2
156559,4,2,2,-2,1,1,8,18
156611,-2,-6,-1,1,1,-1,-3,-5
156671,-1,-7,-7,-4,3,-2,-1,10
156734,-4,6,2,0,-6,-1,1,-11
156797,4,-1,-3,0,1,0,1,16
156860,-3,-4,-4,-3,0,0,-1,-2
156910,-4,-1,0,-1,1,-3,-1,1
156963,-1,6,-1,12,3,1,-4,1
157019,1,-3,-5,-4,-1,1,-3,8
157067,3,4,5,-1,0,-1,2,5
157120,-2,4,1,1,-1,-2,3,7
157178,-4,0,1,1,-2,-3,4,17
157241,-6,-17,-3,-5,-3,0,0,-14
157300,-1,2,-4,-2,1,2,3,-17
157354,3,-6,-1,-1,-1,0,2,-3
157417,0,5,1,0,-2,-8,2,-10
157480,4,2,-2,1,1,0,-1,8
157540,4,-3,-1,1,5,1,2,1
157591,-4,-3,-1,-1,-3,-2,-1,0
157654,-2,-2,-1,-2,-3,-2,-3,-11
157718,1,-2,-4,-1,0,1,4,12
157780,-7,-4,-2,-3,-3,-4,-9,-10
157841,2,1,3,1,-4,3,4,-19
157893,-4,2,0,-2,3,5,0,3
157944,6,-17,-4,1,2,1,-5,-10
157997,-9,-8,-2,1,-1,0,-4,-8
158053,6,-11,-6,-4,-2,-2,-4,7
158105,2,5,1,0,-7,2,3,0
158160,-1,-4,0,1,-1,-3,-2,2
158228,1,-2,0,3,0,0,-3,3
158286,-4,0,-3,-4,-6,-5,-11,-11
158334,-4,1,-1,2,-1,-1,2,1
158396,2,-2,2,0,0,-3,-4,-3
158460,-4,-9,-4,-1,-2,0,-3,-2
158523,-1,3,1,0,1,0,-1,21
158582,-3,-2,-1,-1,-2,-3,-4,-18
158636,-2,-3,-7,-7,-2,1,0,8
158687,-1,-10,-4,-1,0,0,-1,-11
158739,3,-3,0,0,1,1,-8,-8
158793,0,4,0,2,-1,-5,-6,0
158847,3,11,5,3,-1,-3,-6,-13
158905,-3,2,-4,-5,1,-1,-4,1
158965,-8,-3,-1,-2,5,1,-1,-9
159026,-3,-6,-2,0,-1,0,2,2
159078,0,0,-1,-3,1,-1,-6,-11
159141,-2,-4,-3,-1,0,-2,-5,2
159204,0,4,4,-2,-1,2,1,-8
159267,-6,-10,-6,-8,-6,-4,0,-5
159326,-2,-13,-5,-1,-1,2,6,-9
159377,0,11,2,0,3,-2,-4,-21
159437,-3,-11,-3,-3,-4,0,-1,0
159500,4,11,3,1,0,-1,-5,-16
159566,-16,-4,-1,5,14,-4,1,1
159628,17,8,4,-1,0,2,1,2
159688,8,1,2,-12,16,3,3,16
159736,1,-4,-2,2,3,3,8,3
159793,3,1,-1,-3,3,-3,-3,-1
159842,0,1,-2,2,1,-4,0,5
159893,3,3,-1,7,2,1,0,4
159948,1,-3,0,2,4,3,4,2
160004,2,1,-1,-2,-5,-3,1,-10
160065,-5,-3,-3,-2,-3,-1,2,2
160127,-3,4,0,-2,1,1,-3,3
160188,1,-5,-2,-1,-2,0,-2,-6
160239,-1,-1,-1,0,-1,-3,-4,12
160292,2,12,-1,2,-1,-1,7,1
160350,0,-7,-2,1,4,4,3,14
160399,1,3,-3,1,-1,0,-3,2
160450,0,2,2,1,11,3,2,3
160510,-3,0,-1,-5,1,-1,-3,4
160569,-1,0,1,-2,2,-2,0,-12
160631,-2,-1,1,-3,-5,8,0,4
160679,-1,-1,-2,-3,-6,-5,-2,-4
160737,1,-3,-4,0,-5,8,-3,-5
160787,-14,-2,-4,-1,-4,22,3,10
160838,-35,-11,-5,0,27,7,-6,3
160892,-15,-6,-4,2,-14,10,3,11
160945,-11,-5,-4,-2,-16,-4,-1,0
160999,-14,-12,2,3,0,0,1,1
161051,-5,-2,-1,15,21,4,2,5
161108,-5,1,0,-3,11,-7,8,-2
161171,-6,-3,0,-13,-27,-4,0,-11
161231,-6,-5,-4,-1,-4,1,-2,3
161282,-2,-1,1,-2,-2,-2,0,0
161335,-10,-5,-2,-4,-4,2,-2,-31
161392,-1,-5,-1,4,6,1,1,8
161447,-6,8,0,2,10,0,-9,-3
161500,4,-3,-6,-3,-8,-3,-1,-8
161552,5,-5,-3,-2,-1,0,4,10
161611,-3,-3,-4,-2,1,-3,-1,4
161672,-4,-5,-3,-3,-13,-11,-11,-16
161733,7,0,-1,-3,-4,-5,4,10
161786,1,6,2,-2,-5,-4,-4,8
161841,6,6,2,3,23,6,0,-12
161890,-3,-7,-4,-1,-3,-3,1,8
161944,1,-1,0,0,2,3,7,13
161994,-1,-2,-4,0,4,2,2,-6
162047,-5,-4,-2,0,-5,-4,-5,-9
162101,3,-5,-2,-1,4,3,6,4
162153,-4,-2,2,-1,-12,-1,-5,3
162211,1,4,1,1,-6,3,6,-1
162273,-4,-4,-4,-2,-7,1,-1,-3
162332,-5,-3,0,-3,-15,-8,-7,10
162387,-7,-9,-6,-5,-10,-1,-4,-11
162437,-6,-3,-3,6,-5,-5,-3,2
162491,-4,-9,-2,-6,-6,-3,-9,18
162543,-2,3,-1,0,-2,0,4,13
162600,4,-9,-6,0,13,0,-1,-5
162651,-1,2,-1,1,4,3,-4,-8
162717,-3,-1,-2,-3,-6,3,2,-9
162777,-2,-3,-4,-6,-11,5,6,-4
162836,4,6,2,-4,-13,-6,2,5
162894,2,-2,2,14,19,2,-3,17
162953,-2,2,2,-4,-7,-5,-4,4
163016,-1,-2,-2,0,4,-1,4,2
163068,1,-1,-5,-2,-2,0,3,-8
163119,-5,-2,-1,-1,-3,-2,-4,-13
163171,0,-3,-1,-4,-10,0,2,8
163232,0,-2,0,-2,0,-1,2,10
163292,-2,-1,0,1,10,3,0,-8
163344,-1,0,1,0,1,1,-2,3
163398,-3,0,-1,-4,-8,-3,0,8
163453,0,1,-2,-6,-11,-5,-5,-5
163516,1,-1,0,7,7,0,-2,2
163578,-1,5,-3,-6,-5,-4,-3,3
163638,-3,-1,-5,-3,-9,-1,-1,-1
163692,3,-3,0,-3,-12,-3,1,-8
163752,0,-2,-2,-2,-1,4,5,29
163816,1,0,-2,3,-5,-4,-6,-3
163877,-2,-5,-1,1,-1,-3,-6,-4
163938,0,4,2,-4,2,0,-1,16
163992,-3,-2,-3,-1,-10,-5,-1,-3
164052,-1,-8,-6,-2,10,1,-1,-6
164115,-2,0,-3,-2,4,-1,1,9
164179,-1,-5,-2,-2,-3,0,1,1
164237,-1,3,0,-4,-8,-1,-1,14
164289,1,0,3,-1,-4,0,2,7
164345,0,-2,-1,0,7,-4,-4,6
164397,0,5,-1,0,2,-2,1,8
164446,7,5,-1,-7,-3,1,-2,-3
164501,-7,-4,-4,-5,-12,-5,5,6
164556,1,-4,-1,0,-2,-6,-2,-6
164620,-1,3,-2,-3,1,-3,-5,-17
164680,1,0,-2,-1,3,1,-2,0
164741,-1,-1,1,0,-5,-1,2,-2
164793,-3,-3,-3,-1,3,1,-3,-8
164856,1,1,-3,-4,-9,0,0,-32
164915,-3,1,0,1,5,2,-1,-11
164979,-6,2,2,-1,6,-3,4,15
165040,-1,1,1,-1,1,-2,-3,-1
165100,-1,-6,-1,-1,0,-1,0,-1
165156,-2,-5,-3,-3,-2,-1,-7,-19
165218,0,8,5,0,-3,-1,-4,5
165281,0,0,-3,-2,-4,-1,-2,-6
165340,0,2,0,-3,-2,1,3,-2
165392,-2,-1,3,0,6,0,-2,-5
165445,-4,-1,2,2,-4,-2,-1,-1
165497,-1,-3,-5,-2,-4,0,-5,-2
165550,-2,4,2,-1,0,-4,-2,-30
165603,4,4,-2,-2,2,-2,1,-6
165660,1,-1,-4,-1,1,2,-2,-13
165722,-1,11,4,1,0,-2,-3,3
165783,1,3,-4,-5,2,2,1,9
165835,-4,-2,-3,-4,-11,-4,-5,-2
165898,1,-1,-1,-1,0,-1,-5,-1
165961,-2,0,-1,0,7,-1,0,10
166023,-5,0,0,-1,5,2,0,-14
166082,0,6,1,-2,-3,-3,6,17
166138,-3,-6,-4,-4,-6,-4,-6,5
166200,3,-2,0,1,-7,-3,5,16
166262,-3,2,0,0,4,-3,-3,14
166323,6,7,7,2,10,3,1,2
166383,-8,-4,-3,-5,-3,-3,-2,-1
166436,-25,-5,-3,-4,-20,10,-7,0
166500,14,-1,1,4,33,2,2,-1
166566,-64,-3,3,10,66,0,-8,1
166624,-25,2,2,17,55,6,-8,-17
166675,-2,2,-4,-8,-9,6,7,-7
166727,46,0,-3,6,20,4,-6,-17
166778,-3,-5,-2,-10,-23,-1,-4,-4
166839,-10,7,-2,-4,-9,-8,3,12
166892,62,-1,4,-5,38,3,1,15
166944,-2,5,3,14,-17,-22,1,-2
167003,-22,7,-6,-10,-19,-3,2,1
167065,14,8,3,-10,-24,0,2,-11
167127,-49,-15,-8,-11,-22,-5,-3,-49
167181,-6,1,-1,-9,-38,-8,-8,-57
167229,4,-5,0,6,11,-3,-2,14
167282,-11,-9,-2,-4,1,0,1,-15
167336,4,-7,-4,1,4,0,7,19
167388,-1,-1,-4,-2,1,-4,2,2
167442,2,-2,1,-2,-15,-8,1,2
167506,-3,0,1,18,39,7,0,14
167568,-6,-3,0,2,4,-2,2,22
167627,-4,0,-1,-1,-7,-2,-2,4
167681,-8,-1,1,-2,-11,-3,-6,-4
167744,-4,-3,0,10,17,5,0,-8
167807,-2,2,0,-3,-8,0,0,13
167868,-3,-8,1,3,-3,0,-2,23
167918,2,2,0,-1,-2,-5,-4,4
167980,0,1,0,-4,-4,-1,0,2
168043,-24,0,-1,-4,0,-3,-6,-28
168106,-1,-3,-3,1,-11,-3,-8,7
168168,-8,0,-3,7,8,0,-1,-2
168228,0,4,1,2,8,1,0,17
168288,-3,3,-8,-7,1,3,6,-29
168338,-1,-6,-3,0,2,-1,0,26
168391,6,5,0,-1,-7,-4,-2,-24
168445,-28,-1,-2,-4,-5,-2,4,4
168499,-4,-3,1,1,3,-2,-10,-20
168551,-4,-1,-2,1,-3,0,1,-8
168610,2,3,3,-7,-1,-4,0,2
168670,3,0,-1,-2,-9,0,-1,5
168730,8,-3,-2,1,3,2,3,-18
168789,-8,-2,0,-4,-14,-4,0,-7
168848,-2,-2,-2,0,-5,2,0,-16
168911,8,-2,-1,3,-2,-2,1,4
168972,-4,-1,-3,-3,-3,-1,2,1
169031,1,0,-2,-2,1,1,1,-6
169081,-12,2,2,3,6,-2,3,-2
169134,8,2,-2,-1,2,6,3,5
169187,-9,-4,-3,-1,5,-4,-4,-7
169239,2,-4,-1,-4,-7,-3,0,-1
169297,-1,-1,-1,3,-2,-1,-2,7
169356,15,-2,0,8,4,-1,-1,-9
169412,9,-1,-5,-1,-13,-4,-4,-4
169479,-15,0,-1,-2,-6,-1,5,-9
169524,-7,0,-1,-1,2,-3,-3,-3
169576,2,-2,-3,1,8,1,0,3
169630,-1,-1,2,2,-11,0,-1,4
169682,12,1,-1,-3,0,1,0,2
169734,2,-2,-5,-4,-3,-3,3,4
169786,-18,-2,-2,-4,-9,-2,-1,-7
169842,0,1,0,3,8,0,-1,1
169889,5,0,-2,2,6,0,4,28
169951,3,-5,-1,8,-1,-2,0,-2
170012,-25,1,2,2,-7,-3,-3,-7
170065,2,2,3,1,-2,-1,2,8
170117,0,0,-3,-2,-5,-2,5,21
170175,14,-1,0,-2,-5,0,-2,-8
170219,5,1,-2,-3,-7,-4,-2,-2
170274,9,1,1,1,10,0,-3,-13
170332,-1,1,1,4,5,0,-4,-29
170394,-7,0,-2,0,1,-1,0,12
170455,-20,0,0,-6,-2,-1,1,-2
170515,-4,-5,-4,0,-3,1,2,-4
170567,-8,-1,-4,-3,-5,-1,-6,-17
170618,7,1,1,2,10,0,-3,-5
170675,14,-1,-1,1,31,5,5,3
170727,-2,2,-1,1,1,0,-2,-6
170778,13,0,0,-1,-7,-2,-4,3
170836,-2,-2,-3,-4,-7,-2,-1,-6
170898,5,-1,0,2,-8,0,-4,-19
170948,-1,-1,1,0,-9,-3,2,4
171010,-11,-2,0,-3,-8,-2,1,-30
171074,-1,-3,0,-1,-2,-2,-4,-7
171136,0,-1,-1,-1,6,0,1,14
171197,8,0,0,-4,0,-2,0,-9
171258,7,-1,-2,-1,9,-1,-1,20
171319,-1,1,2,-5,-4,-1,4,7
171371,-4,-3,-3,-5,-11,-4,-6,-17
171434,-10,-4,-4,-5,-10,-3,-5,-6
171494,1,0,-1,-3,-3,-1,-1,-4
171557,4,0,-2,-2,-3,-3,2,5
171618,-5,0,0,3,7,-1,-3,0
171679,-14,-1,0,5,5,-1,-4,6
171729,-14,1,-2,-8,-14,-1,-2,-17
171792,-6,-3,-4,0,1,1,0,-4
171854,6,-3,-1,-6,-3,-2,-3,-2
171918,-18,0,0,-4,0,-1,-2,-12
171980,3,1,-1,1,2,-1,-1,10
172037,-24,-4,-1,0,7,2,0,-7
172091,-7,-1,0,-2,-2,-4,-10,-11
172156,-13,2,5,4,-1,-1,-3,-9
172220,-2,-1,-1,0,4,3,-6,5
172279,-4,-1,1,0,0,1,-3,9
172338,-6,-8,-1,-2,-3,-1,-4,-15
172389,-8,-4,1,-2,-8,-6,-7,-9
172448,-16,-1,-1,0,0,-2,-3,-3
172494,-6,2,2,-1,-7,-2,-3,2
172547,-13,-2,-1,0,-1,-2,-4,-25
172601,2,1,1,-2,-3,-1,-2,0
172658,-3,-2,0,0,-5,0,-2,0
172719,-6,2,-3,-3,0,-2,-8,-1
172780,0,3,5,4,2,-1,2,0
172841,0,3,1,-4,-5,-2,1,-9
172893,-4,-5,0,-1,-2,-2,1,0
172947,2,1,1,1,2,-1,0,7
172999,-2,-4,-3,-2,-6,-3,-1,-13
173049,-2,-3,-2,-1,0,-1,2,-2
173105,1,0,-3,-2,0,-1,-1,15
173166,1,-7,-1,-1,-1,-2,-5,13
173225,0,0,1,-5,-5,-3,-4,16
173285,-2,-2,-2,-1,-3,-4,-2,8
173334,-6,-3,-3,-2,-2,0,-2,-13
173397,-3,-4,-6,-5,-7,0,-6,-28
173463,1,1,0,1,-1,1,4,1
173523,-6,0,-4,-5,-8,-3,-1,-25
173584,-2,-1,2,1,1,2,-2,-5
173644,1,0,1,-1,-2,-2,-3,-3
173694,-6,-3,-4,1,-2,-3,-13,-30
173757,-1,-4,-1,1,0,-2,-5,-17
173820,-3,-2,-3,-1,-1,0,-4,-18
173884,3,2,4,1,-4,-2,0,12
173943,2,7,0,-1,-3,1,3,-7
174004,0,0,1,-3,1,-3,1,7
174057,-4,-7,1,3,-1,-1,0,18
174124,-5,-8,-1,-2,-2,1,-4,-7
174184,-5,-4,-2,0,1,-1,-1,-4
174245,4,-1,0,1,4,0,-8,-5
174294,2,5,1,0,-1,-1,-2,-5
174347,-2,5,1,1,0,1,-1,-2
174399,-13,0,0,-1,-1,-1,-3,1
174449,4,2,1,0,-5,-4,-2,1
174505,-3,10,1,-3,0,1,-2,13
174563,-2,-2,2,2,2,-1,-4,-16
174623,-3,-1,1,-4,-17,-3,-6,-44
174685,2,-2,0,-2,3,0,-3,0
174745,1,-1,-2,1,-1,-1,-1,16
174797,0,1,1,0,3,2,-1,13
174850,-12,2,3,-3,-2,-4,-2,5
174902,-5,-3,1,-3,-6,-1,5,10
174954,-8,-2,-2,-4,2,-1,3,-12
175008,-1,-6,0,-7,0,2,0,1
175061,1,1,2,-1,-1,0,-3,-8
175129,-5,-3,-1,5,3,1,0,-5
175189,-9,-3,-1,0,-1,-4,-3,-8
175248,-3,-3,-6,-1,-2,-2,-2,-8
175312,3,-2,-1,-1,-3,0,2,7
175371,3,-4,-1,1,1,3,-1,-8
175419,3,2,-2,1,3,4,8,29
175473,-9,-6,2,0,1,-2,-6,-17
175524,8,0,1,0,-1,1,-1,14
175581,8,6,0,2,-1,0,-3,0
175631,-34,-3,-1,-2,-1,0,-3,2
175688,-14,-6,-1,2,-3,-4,-2,-7
175750,-17,-3,-3,1,1,0,2,-13
175810,3,-2,-1,0,3,1,-1,4
175865,3,0,-1,-3,-3,-2,1,3
175927,4,3,4,5,1,-9,0,0
175988,2,-3,-4,-3,2,1,-4,38
176050,4,2,2,2,0,3,6,14
176110,-16,-3,1,1,-2,-1,1,-11
176162,-4,0,0,-2,-3,0,0,7
176224,7,-5,-5,-4,-2,0,3,-3
176287,-5,4,1,0,0,-4,-4,32
176353,-2,0,3,0,-7,-5,0,13
176413,4,1,2,5,4,2,3,24
176461,0,-1,0,-1,0,0,-1,-8
176515,2,-1,-1,1,-1,1,5,20
176571,0,-2,-3,-3,-4,-1,3,9
176619,-3,1,3,1,0,-5,-4,-5
176672,-2,-5,-5,-1,5,-1,-5,3
176729,0,-3,-5,-5,-5,-11,-6,24
176792,2,1,1,0,6,10,-3,44
176852,-5,-1,1,-3,-6,-3,-10,-52
176904,-2,-2,-1,-1,0,-6,-9,2
176956,-1,0,0,-1,-3,0,-3,0
177009,-2,-1,-2,0,-5,1,-1,9
177068,1,0,0,-1,6,1,-4,8
177115,-4,-4,-3,-3,-7,-3,2,-3
177167,-3,-1,-2,-2,3,0,-3,-16
177223,1,-1,-2,-3,-3,8,2,14
177272,5,2,2,1,4,1,0,3
177331,-4,2,3,0,-1,-2,-3,-9
177392,0,-1,-1,-6,-1,-8,1,-14
177451,1,-2,-2,-3,-11,-1,1,2
177504,-5,-2,-3,-1,2,5,-9,-41
177557,-2,0,3,3,1,0,-5,-5
177610,-2,1,-2,-8,-11,-4,0,6
177669,-6,-1,-2,-3,-2,-4,-6,-24
177715,0,-2,-3,-2,2,-3,-4,1
177774,2,1,1,1,0,-2,3,39
177836,3,0,0,-3,0,2,1,12
177897,-4,-2,0,-1,-2,-5,0,-1
177947,-1,-1,0,-2,-1,11,-4,-6
177998,-1,0,3,2,12,1,-5,-1
178052,-4,-3,-5,-6,-5,4,-1,-12
178105,-1,-2,1,2,1,3,-1,-16
178157,-6,-1,-2,-5,-3,-3,0,4
178209,-6,6,3,4,9,2,-4,-6
178261,-7,-2,-1,-4,-3,0,-6,6
178315,1,0,0,-5,-6,3,-6,-4
178372,1,0,-1,-2,5,2,-2,-14
178436,-1,2,2,1,-1,1,2,3
178495,-1,0,-2,-1,-3,1,-3,-8
178560,-2,-2,-3,-2,-8,-10,-8,-5
178606,-2,0,1,0,-6,1,-5,-25
178660,0,-1,-1,0,-1,2,3,7
178713,-1,0,0,-2,-6,3,4,7
178772,-2,-5,-2,0,-3,2,-1,3
178828,2,2,0,2,-3,-2,1,-5
178887,1,0,0,0,-5,2,7,17
178938,-4,-2,-3,-2,-3,2,-3,-15
178997,-3,-4,-3,-3,-6,-2,-3,8
179063,0,1,0,0,0,1,-6,-10
179123,-1,-2,-3,-3,-9,-4,0,-3
179171,0,1,0,-2,-1,0,-12,3
179233,-5,-2,0,-1,-1,-3,-1,-4
179304,1,1,3,4,0,-3,-6,-5
179361,1,-5,-3,-6,-11,-2,-3,10
179408,2,2,3,5,5,2,-2,17
179463,-1,1,1,2,2,0,1,11
179514,0,-1,-3,1,-2,-3,3,4
179568,-6,-2,-2,-3,-1,0,-7,-5
179620,3,1,2,1,-3,-18,-5,13
179678,-3,0,0,1,-1,-1,-8,-12
179740,-4,-3,-2,0,-6,-3,-11,-23
179803,-4,-1,-2,1,1,0,-5,-1
179860,-7,-2,-4,-2,-2,-2,-8,-48
179914,3,2,0,-1,-5,-2,-1,30
179977,0,0,1,-1,-2,0,5,4
180038,3,-1,-1,-2,-4,-1,4,0
180102,-3,2,-1,1,2,2,-3,-25
180161,0,-1,0,-2,-3,-3,0,9
180212,2,0,-1,-2,-5,-10,0,9
180276,6,0,-1,-2,0,2,7,12
180342,1,0,0,3,2,-3,5,18
180401,0,-3,0,-4,-3,-5,-2,27
180460,2,9,1,-3,-3,0,10,5
180521,-3,-4,0,1,0,-1,-1,-6
180572,-1,-1,-2,-4,1,0,0,-10
180624,0,0,-3,-5,-2,-3,-8,28
180679,1,2,-1,0,2,0,-1,5
180732,-6,-2,-3,-2,-5,-4,-14,-19
180787,2,-2,-3,-2,0,1,2,-4
180848,1,0,0,-3,-2,-1,0,-17
180907,-3,-1,-3,-5,-3,-3,-3,0
180964,-2,-7,-2,0,-7,-1,2,4
181023,-12,-2,-2,-2,0,-1,-1,-16
181075,-11,-3,-2,-2,1,-3,-13,-39
181142,3,-2,-2,-2,-5,-2,-8,-20
181202,-1,-2,-5,0,1,-1,-7,-46
181264,-2,-2,-3,-1,-1,-2,-3,-5
181324,-5,-1,0,1,1,-1,-3,-12
181384,-5,-1,-1,0,-2,1,1,24
181440,17,3,-1,-2,-4,-3,6,12
181486,-4,-2,-1,0,-5,-4,-12,-63
181540,0,-2,1,0,0,-2,1,14
181594,-5,-3,-2,-5,-2,-1,-3,-36
181651,-3,-5,-4,-1,0,-1,-7,7
181704,-1,-4,1,1,-1,-1,0,31
181765,3,8,8,3,-2,-2,-6,-6
181825,-6,-7,-8,-2,1,-3,-10,-23
181879,4,1,3,1,3,2,6,19
181943,1,3,1,-1,-1,0,-1,18
182003,-3,3,2,-1,-2,0,0,-20
182066,-1,-6,-3,-5,2,0,-2,-15
182125,0,0,-3,-6,-3,-3,-3,-1
182178,-1,-4,-2,-3,-1,0,1,-1
182240,0,-1,0,1,2,0,5,13
182303,3,4,2,-1,-3,-3,-2,13
182363,3,2,1,2,-4,-1,-1,-9
182425,-1,-6,-6,-3,0,3,4,3
182489,4,2,3,0,-2,-1,2,19
182546,3,-9,-2,0,-1,-3,-1,2
182600,-4,-4,-3,-2,1,-1,-2,12
182663,-6,8,0,0,0,0,0,-16
182725,-1,0,1,-1,-2,-2,-2,7
182785,2,9,5,0,-3,-1,-2,15
182838,-2,0,1,0,-3,0,0,-7
182891,-2,-13,-6,0,0,-2,-2,1
182942,5,16,7,2,0,-5,1,5
183001,-4,-5,-5,-4,-4,-6,-5,-38
183049,1,1,0,1,-6,-1,3,6
183108,-1,2,1,-1,-1,0,-3,10
183168,1,-1,-2,-2,-2,3,5,1
183220,5,10,0,0,0,-3,-1,6
183283,1,-2,-1,-2,1,3,2,3
183345,-2,-4,0,5,-1,0,-2,8
183406,-7,-3,-3,2,-2,4,-2,-26
183467,0,-4,-1,-3,-2,0,-1,-10
183529,-8,5,0,-2,-5,-6,-6,-17
183588,7,13,2,0,-3,-4,-1,18
183644,-1,9,6,2,1,-1,-3,7
183694,6,13,0,1,0,0,-1,-7
183744,-1,-4,-2,-4,-1,-3,0,33
183796,-2,-8,-6,-1,-1,-1,1,15
183850,2,-1,1,-2,-3,1,-1,-2
183907,-2,-1,1,-2,-5,-5,-3,6
183970,4,-1,0,-2,1,0,2,4
184031,-2,0,-3,-4,-2,-2,-2,-13
184085,-2,-3,0,-2,-1,0,3,-4
184144,0,-3,1,1,2,0,1,-22
184208,-2,-5,-2,3,-1,0,-4,-7
184270,2,3,2,3,0,-2,4,-5
184329,4,-2,0,0,1,-1,-7,10
184383,-7,0,-2,1,-4,-1,-2,-13
184438,-5,-4,-2,-3,-1,1,-4,-17
184488,-2,-5,-7,0,-2,1,-3,10
184540,0,-1,-2,-2,0,-2,2,8
184593,4,2,0,0,2,-2,-6,-13
184651,-1,-3,-1,-3,-2,-2,-2,-12
184711,0,0,-1,-2,0,-1,1,-1
184773,0,-2,-1,-3,-1,-2,3,10
184823,3,-5,-3,-3,-6,-2,-1,1
184882,-4,-3,0,-2,-2,-1,-4,-17
184929,-1,-4,-2,-3,-6,-3,0,3
184981,4,-1,-1,-2,-6,0,0,-21
185034,2,6,3,-4,0,-3,-3,-17
185091,4,4,-1,-2,-1,2,-4,-7
185153,-6,-7,-2,-2,-2,-4,-11,-38
185214,-2,0,-3,-6,1,-1,-1,-16
185269,4,1,1,1,-1,-1,6,13
185319,1,2,4,0,3,1,-1,-11
185374,-3,-4,-3,-1,-6,-3,-4,-6
185433,3,-5,-3,1,-3,-3,-10,4
185486,-2,0,2,-1,0,-1,-1,9
185546,3,0,0,1,0,-2,-4,6
185595,-9,-7,-6,-2,0,-4,-9,-26
185648,4,7,1,-5,1,0,5,21
185702,7,-1,1,0,-2,2,4,45
185754,-5,-3,-1,0,-1,0,0,-2
185814,5,2,2,1,-1,2,2,14
185866,-1,0,0,-3,-4,-1,2,-17
185918,-1,1,1,0,-3,-3,2,-10
185974,-1,-2,-3,-1,1,-1,-3,7
186024,1,-1,1,1,-1,-4,5,-4
186077,2,-3,-2,2,-3,1,0,15
186135,-1,3,2,0,1,0,1,-10
186197,1,-2,-2,-3,2,-2,-2,4
186257,-8,-2,1,-2,-2,-1,-4,-38
186317,2,-1,0,0,-4,-5,-7,-11
186369,1,-1,-1,-2,3,2,6,8
186422,3,2,2,1,-1,-1,2,24
186475,-4,-3,-4,-2,-1,-9,-19,-52
186527,-4,-3,-2,1,1,2,0,-14
186586,-2,1,0,-1,0,1,2,-16
186631,4,1,2,1,-8,-2,3,4
186688,0,0,0,-2,0,-4,1,19
186738,-2,-1,-4,-1,1,2,2,1
186796,1,-1,-1,-1,-2,-2,-2,0
186860,4,1,2,-1,-4,-3,-3,12
186918,-1,-1,-1,-2,-2,-3,4,7
186973,1,-1,-1,1,-1,-1,5,-5
187021,3,-1,0,-1,-4,2,1,12
187075,3,-1,1,0,-1,2,2,6
187127,-2,0,-2,-2,-5,-2,-4,-6
187184,-2,1,-1,-3,-6,0,0,-6
187245,18,0,2,1,1,1,1,10
187305,5,0,-1,2,4,-6,-1,2
187365,3,2,1,0,-3,-2,-3,5
187412,-2,-2,0,2,1,8,-7,-25
187475,2,1,1,-1,0,5,0,6
187544,5,7,6,2,1,1,6,26
187605,-8,-3,-2,-3,-3,2,-2,-12
187661,0,2,0,-2,-3,-7,-5,-6
187713,-5,-2,-2,-3,-1,-7,-4,-16
187765,-1,0,-2,-1,-1,6,-3,-7
187818,1,-1,1,0,-1,-2,-5,21
187871,1,3,0,-4,-1,0,-6,-12
187922,-1,0,0,-3,-6,0,4,0
187978,-5,-1,-1,-3,-2,-5,1,-10
188041,-3,-3,-3,-4,-4,-6,-3,-15
188103,-2,-1,1,3,1,7,4,4
188162,0,0,0,-2,2,1,-2,-12
188214,3,2,0,1,-3,1,0,10
188277,-5,-5,-5,-3,2,7,-3,-13
188340,-9,-4,-5,-7,-21,-2,1,-26
188405,-12,-5,-5,-2,-2,-2,-24,-61
188464,-7,-2,0,0,0,-2,0,-51
188513,3,3,2,2,1,-8,-1,19
188575,2,-2,-3,-3,4,-1,5,29
188639,-2,-2,0,0,0,2,-5,-41
188702,8,9,4,-1,-19,4,2,16
188762,-4,-5,-4,1,9,0,-18,20
188815,-22,-6,-2,0,-1,0,4,-22
188875,-9,-2,-2,-4,-14,-2,-7,-23
188938,-8,-1,-2,-2,-4,13,3,-10
189001,6,-8,-3,-3,-1,-6,-8,4
189064,3,-2,-4,-1,7,2,3,31
189123,-4,-4,-2,2,14,19,-1,-46
189183,5,5,3,8,0,0,-1,1
189235,-2,-6,-6,-2,5,15,-7,-12
189292,1,2,3,0,4,23,9,17
189339,4,-10,-4,-7,-5,-3,1,-2
189392,-13,-1,0,1,-5,10,-1,-14
189445,3,3,1,-3,6,41,2,-11
189503,18,1,5,-3,-1,17,-7,5
189568,-37,-6,0,1,-3,-2,13,-34
189625,4,-2,-3,-3,8,3,0,2
189681,22,1,-3,2,12,-13,0,3
189741,-5,-4,-4,-5,-12,-2,-4,-14
189803,-16,-6,1,4,14,8,7,12
189866,30,5,-4,-7,-11,-22,-13,26
189926,21,-1,-8,-6,-11,-15,-7,-41
189985,7,6,6,1,0,3,2,-15
190043,-3,-15,-19,-7,-5,9,4,-9
190091,-3,22,20,-1,5,19,11,-21
190142,-40,-7,4,7,-2,-36,-4,-16
190198,5,3,-2,-1,-2,-8,-2,-9
190247,2,7,13,0,-14,15,3,32
190305,-74,-15,-2,3,-5,6,-4,-22
190368,-11,5,2,0,15,10,6,9
190433,-8,12,1,-1,-23,-22,-9,-7
190479,-18,-10,-1,-3,3,5,-4,-1
190541,-17,-12,-3,-3,-4,2,-2,-10
190602,12,-3,-2,0,-2,-5,0,-4
190665,16,-1,-1,-1,0,19,2,6
190731,6,-2,-2,-1,16,8,1,-12
190790,-25,4,1,3,-5,-5,-8,-6
190838,-5,-4,-2,-2,-5,10,2,-3
190891,-1,-2,-4,-4,-5,-21,5,12
190944,-15,-4,-3,0,8,-10,-4,3
190996,11,4,3,-1,-4,2,-2,6
191050,-11,-16,-9,12,-2,1,-5,-8
191106,-6,-1,-10,-2,-5,8,11,3
191172,13,0,-1,-3,-2,-9,2,1
191233,4,-2,-1,-1,-1,-8,-6,7
191284,22,4,-1,-1,-2,9,0,-2
191345,-6,-5,-4,-1,-8,-7,-1,-9
191408,-4,-5,-4,-5,-8,4,-9,-13
191470,-6,0,-1,1,-4,-9,-5,3
191530,12,-3,-5,0,-3,2,0,-4
191591,12,1,2,-5,-7,-10,3,-7
191643,15,-2,-2,-7,-2,14,-3,7
191705,-41,-8,-7,-6,-6,7,-2,-13
191767,10,-3,-2,0,-3,5,-8,-3
191831,-7,0,1,-1,8,10,2,-9
191891,0,-1,0,-2,-4,-4,0,16
191950,-6,-3,-1,-3,0,7,0,-3
192004,-4,-1,3,2,0,2,-1,-11
192053,-1,0,3,-1,-1,-11,-4,6
192107,-2,-3,-3,-1,-5,-24,2,14
192160,-9,0,-1,-1,0,-5,-5,-20
192213,4,-3,-5,-5,1,1,6,6
192271,-3,1,0,-1,-1,5,-8,-7
192335,-19,-3,-2,1,-3,-12,4,-5
192392,-2,-3,-1,1,0,2,-7,-13
192448,-3,-6,-6,0,1,5,1,-2
192497,3,1,-1,0,-1,3,-2,-11
192549,0,-3,1,0,-1,-6,-3,23
192603,-1,1,-2,-1,1,3,5,6
192654,-2,-1,-1,1,-2,3,-5,-3
192714,-5,0,1,0,1,1,1,4
192774,0,0,-3,-4,-1,3,-1,4
192825,-1,-4,-3,0,-1,22,3,4
192879,-3,-1,-6,-6,0,6,-2,-4
192932,7,2,2,0,-1,-13,-1,6
192984,-4,0,-2,-3,-3,2,5,-7
193036,2,-5,-10,-6,-11,-15,-8,-2
193090,0,0,-2,0,1,4,2,-13
193141,1,6,1,0,2,-11,-3,8
193195,-1,-1,-7,-5,7,58,10,0
193254,-1,1,-1,0,-1,6,6,3
193315,-2,-2,-2,-1,-4,-17,-6,7
193365,1,-5,-5,-2,-5,-4,-6,-3
193419,-1,-2,-2,-2,-5,-32,-2,3
193474,1,2,0,-3,4,12,0,-6
193527,2,2,3,1,-3,-5,-8,10
193577,-1,4,1,2,2,-4,-4,-1
193638,0,2,2,2,1,-2,-2,-2
193699,-3,-5,-4,-1,5,19,6,-10
193759,-1,-4,0,-2,-2,-3,-5,-12
193819,0,1,-1,1,-11,0,-1,-8
193872,-3,-1,0,-1,2,7,-13,-35
193921,1,-1,0,-6,-6,-4,-3,0
193975,-4,-1,-2,-1,-2,-6,-3,-10
194035,-4,-5,-4,-4,0,7,9,-16
194087,-5,-2,-3,-2,-4,-8,-6,-1
194147,-3,-4,-2,2,-4,12,0,-6
194204,0,0,0,0,20,4,-2,-2
194252,-1,-1,0,-1,0,16,3,5
194308,10,2,1,-1,-3,-11,-3,15
194357,15,2,-1,1,7,-2,0,2
194417,-11,3,1,-18,-10,-15,-1,14
194477,3,2,0,3,-14,11,-5,-3
194529,-88,-16,-9,-14,-110,-12,3,-14
194581,6,-5,-1,1,6,7,5,18
194634,35,6,-4,-8,-46,-8,-14,0
194688,-40,2,2,-1,3,10,8,-4
194743,-10,-2,-1,2,17,-13,8,-18
194802,14,20,10,2,5,10,6,26
194862,1,4,0,-2,7,-2,4,5
194924,15,2,0,-3,2,10,1,-12
194972,1,-3,0,1,-9,-7,5,3
195035,14,7,0,-4,-2,6,2,10
195097,-9,0,2,0,1,-9,2,24
195160,-5,-3,-1,2,9,5,-7,-26
195220,1,1,-3,-3,1,-2,6,34
195272,-5,-4,-2,-2,2,9,-1,-17
195336,-5,-4,-2,0,-8,-10,2,11
195394,1,0,0,-3,-16,2,1,3
195458,4,2,-1,1,4,6,-2,-3
195520,6,1,1,-1,1,-2,0,2
195581,5,1,0,-1,-14,1,7,10
195632,-2,-2,-3,-1,0,7,0,-1
195683,2,2,3,1,-3,-3,-7,-6
195737,0,-2,-3,-2,-1,3,0,14
195797,3,1,2,0,-1,5,-6,-6
195851,3,-1,-2,1,0,-2,-3,-16
195903,-2,-3,-1,0,-4,2,0,-9
195965,-1,0,0,0,3,0,-1,4
196026,-4,-3,0,1,-9,-2,2,-3
196089,6,2,1,-1,6,-3,4,21
196150,2,1,0,-3,-2,4,-4,2
196197,-2,-1,1,-1,-3,-3,2,13
196261,-2,-2,-1,1,-9,-14,-11,-23
196326,-8,-2,-4,-1,-4,-4,1,-4
196382,-4,-1,1,0,1,-3,-1,-28
196435,4,0,-3,-3,-1,-4,-2,-13
196499,-2,-3,-1,-3,-1,-1,-1,-11
196561,0,-1,-1,-1,2,-4,-1,5
196622,-2,-2,-1,3,5,1,-3,-10
196685,-2,1,1,2,4,14,2,-7
196745,-2,-3,-5,-5,-5,-23,1,8
196797,-1,-1,-4,-5,2,24,3,-5
196846,-3,-1,-2,-2,2,0,0,-15
196899,0,-1,-1,-3,-5,29,7,-21
196954,-1,1,-1,2,-1,0,-3,-9
197005,1,-3,-2,-4,3,4,0,-1
197065,-2,-3,-1,-1,2,-9,1,-7
197126,-2,1,0,0,0,8,-3,-1
197186,-3,-2,-2,-7,-12,-6,-1,14
197239,0,-1,-2,1,6,11,5,-6
197301,0,1,-1,0,-2,-5,-5,-18
197370,1,-1,0,1,5,-10,-3,-4
197426,-2,-1,1,1,5,-3,-3,-2
197486,-2,1,3,3,12,-18,0,-10
197538,0,0,0,0,-5,-1,2,10
197589,1,-2,0,-2,8,5,1,9
197642,-2,1,-2,-2,-9,0,0,-7
197694,-2,-2,-1,-1,-2,-10,-5,-9
197756,-2,-2,0,-4,-5,-10,-5,5
197807,-2,-1,-3,-1,5,3,-4,0
197864,-5,-1,-1,0,16,22,1,-3
197927,1,-1,-1,-4,3,12,3,18
197988,-1,-4,-1,0,-1,-5,-1,6
198040,-1,-1,-2,-1,-10,-11,-3,12
198109,3,0,0,0,-2,-3,-2,17
198171,0,-2,-2,0,0,0,2,-25
198231,0,-1,-3,-2,-2,4,0,10
198288,-2,0,0,-1,11,6,8,-11
198337,0,1,0,0,0,7,1,5
198404,-1,-1,-1,1,1,-7,-3,-5
198451,-1,3,-2,-3,4,19,10,1
198505,-1,0,0,-1,-2,4,-3,4
198559,4,-1,2,0,8,15,-8,16
198610,1,-2,0,-1,-2,6,-5,-11
198669,2,0,1,4,8,0,-4,-3
198729,-1,-2,-2,-1,13,39,-1,-17
198781,1,0,1,2,9,-1,-3,-2
198843,-1,-2,-2,1,0,-8,-1,-1
198906,0,-1,1,-5,-11,-8,2,-4
198970,-2,-1,-1,0,2,3,-1,-8
199030,-3,0,1,3,-2,-5,-6,15
199080,-2,0,-1,-3,-3,1,-3,11
199144,-3,-3,1,-1,-1,-15,-1,2
199207,-1,-3,-2,-3,-15,-17,-3,4
199270,-4,0,-3,1,2,-2,-2,-30
199330,-1,-3,-3,-1,-7,14,1,-1
199383,-1,-2,-2,0,-2,-6,3,10
199434,-3,-2,-1,-2,-2,2,2,7
199488,-4,-2,-2,-1,-3,1,-1,-1
199541,0,0,2,1,1,-1,-5,7
199592,-2,0,-3,0,5,-1,-5,3
199649,1,1,0,-2,3,-1,5,20
199718,3,-1,0,-3,-6,-3,1,35
199778,0,-2,-2,-1,22,13,5,-9
199824,-2,3,1,-1,-3,6,4,2
199887,1,1,1,-1,1,-14,-1,-5
199952,0,0,0,0,-1,-9,3,19
200013,-2,-1,0,-1,-6,-6,-3,-13
200064,2,0,0,-2,-9,-11,-4,-10
200125,-3,-1,-1,-2,0,6,-9,-45
200177,0,3,1,-3,-12,-9,-1,-24
200230,0,-2,-2,-1,-3,-5,-5,-4
200287,1,1,1,-1,5,11,3,13
200336,-1,-2,-2,1,1,-2,-2,5
200392,-3,-3,-1,-1,-8,-13,-12,-10
200454,-1,0,-1,-3,-1,-27,-10,5
200515,-3,-2,-3,-1,0,2,4,-14
200567,-4,-1,0,1,2,19,-4,14
200620,-5,-2,-1,-2,-2,-1,-5,-12
200677,-2,1,0,-1,8,-6,-6,-22
200723,0,-3,-3,-2,-4,-8,-9,-4
200777,-2,1,-1,-1,-4,5,1,-9
200829,-3,-1,0,0,2,-4,-14,-3
200879,1,0,1,5,4,0,0,2
200934,-5,-4,-3,-6,-9,-18,-3,-43
200990,2,-3,-6,-4,-7,0,-3,16
201053,2,3,1,1,1,-1,-3,3
201116,0,-1,0,1,3,3,3,25
201175,3,0,-2,-1,-1,-16,9,17
201237,-1,-1,-2,-1,1,-3,2,-1
201288,-1,-2,1,-4,-14,-32,-2,24
201339,-3,-5,-2,-1,-1,-5,-6,21
201392,-1,1,-2,-4,-1,11,-5,-11
201443,-4,-6,-3,-4,-6,-5,-8,-3
201504,1,-3,-3,-2,-8,-16,7,15
201555,-4,-1,-3,-2,6,19,-9,-18
201617,5,0,2,3,6,22,2,31
201678,-3,-1,-2,0,-1,-2,-3,-6
201730,-1,0,-1,-1,-5,1,-6,10
201787,-4,1,-1,0,6,26,2,-8
201836,-4,-2,-4,-1,0,1,-8,-13
201889,-4,0,-1,2,4,-3,-1,-54
201940,2,2,2,-1,1,26,13,21
201991,-1,-2,0,0,5,-4,7,-3
202043,1,-3,-1,1,1,17,-1,24
202097,-1,-1,0,-2,-2,-6,-4,-7
202156,-1,-3,-3,-2,-7,-13,3,9
202218,-4,-3,-4,-4,1,10,-2,0
202277,4,3,4,-5,-2,1,3,-4
202337,-3,0,-2,0,8,8,-7,-35
202394,-1,-2,1,-1,-9,14,-1,15
202442,0,-3,-1,-1,-5,2,-2,23
202496,-3,-3,-1,1,5,-12,-4,-11
202546,-1,2,-1,0,0,-20,4,-10
202600,-2,-2,-2,0,12,-2,-1,-7
202657,-3,-3,0,1,-1,-10,4,14
202725,1,0,0,0,0,-13,-4,10
202784,1,-2,-3,-3,-7,-11,1,12
202843,2,2,2,-1,0,13,-1,11
202891,-1,2,1,-1,-5,-2,-2,-1
202944,0,1,0,-1,-5,5,-2,11
202998,-2,-2,-1,1,-4,-10,-6,2
203052,-2,0,-1,2,2,4,-1,-23
203107,-1,-1,0,0,1,-1,-2,-3
203162,-2,-3,-3,-2,-4,0,2,-8
203230,1,-1,-4,-2,3,-1,7,-8
203283,-4,-4,-3,-1,-4,-1,-3,-8
203333,1,-2,-1,-5,0,22,-1,11
203397,-2,-1,0,0,1,-3,0,-4
203461,-7,-2,0,-1,-9,-34,-8,-18
203524,4,1,1,0,2,-4,10,28
203585,-2,1,1,3,7,8,0,-4
203635,2,0,1,1,1,-9,0,-7
203696,-3,-3,0,-2,3,-3,-4,-12
203759,-4,0,0,1,-6,-1,-4,-9
203821,0,3,2,0,-1,-8,-11,-24
203884,-5,0,-3,-6,2,5,-12,-46
203933,-3,-3,-1,0,12,1,-2,2
203999,0,-3,-1,-2,-2,-13,0,15
204059,-2,-3,-6,-7,-8,5,-3,-6
204122,-4,7,4,0,-6,-5,1,-13
204183,-3,-4,0,1,0,15,-13,39
204243,1,-3,-1,-2,3,40,-4,15
204297,3,1,4,1,1,-9,-7,24
204348,-2,-2,-1,0,0,-4,-2,2
204399,-4,-3,-2,-2,-6,-29,3,17
204451,-1,-3,-1,3,0,0,-1,2
204505,-2,1,-2,3,8,14,7,4
204563,2,5,1,1,-1,-1,-7,-4
204625,1,0,1,0,-7,-2,-8,-1
204674,-3,0,-2,1,2,7,-9,9
204739,-5,-2,-2,1,7,24,0,-14
204799,-3,0,-1,-1,-2,-14,2,1
204863,-1,0,-2,-1,-3,0,-4,3
204925,-1,0,0,-1,-1,3,-3,-18
204985,-1,-3,0,0,-2,6,-2,0
205038,-3,-3,-2,-4,-1,18,8,-42
205088,-1,0,-5,0,4,1,0,-12
205142,-6,-3,-1,1,3,0,-9,-41
205202,-1,-5,-3,4,-4,-14,-2,-13
205255,-1,1,-2,0,2,-5,-5,1
205308,-3,-5,-6,-11,-8,-17,1,5
205363,3,-2,4,1,-9,-28,1,-15
205427,-1,4,-5,-6,-8,-13,-5,0
205487,3,3,4,3,-15,-5,2,15
205547,-2,-4,-5,-2,-2,1,2,-18
205604,2,-2,-2,0,-11,10,6,11
205664,-2,-4,-2,-2,2,11,12,5
205723,-2,-1,-1,-4,0,-3,5,-8
205787,-1,2,-1,-1,15,18,0,0
205847,-1,3,1,2,0,-16,4,5
205908,-3,-1,-2,-2,-5,-7,0,-17
205959,-1,-4,-2,-3,-4,-6,2,-2
206024,-1,-1,-4,-3,-1,-4,0,0
206078,-2,-3,-3,1,-1,-1,8,-5
206131,-3,-2,0,-2,-2,-5,-3,-5
206185,10,5,4,-1,3,2,17,53
206241,-3,-5,-4,-4,0,6,-5,-11
206304,3,0,1,0,2,-4,-2,10
206357,-1,-3,-3,1,2,-3,1,7
206411,-1,-1,-1,0,2,16,13,5
206470,1,-2,-4,-2,1,1,-3,6
206525,-3,-2,-1,-4,-12,-47,6,15
206587,-2,-1,1,-2,-7,-20,-5,-4
206650,1,0,-1,1,2,-17,-3,7
206710,2,0,2,-1,-4,3,10,7
206763,-2,-2,-2,-1,1,-6,-7,-4
206825,-1,-1,1,-1,-9,-6,-3,-5
206889,2,0,-2,-1,-3,-6,-3,18
206951,0,-3,-2,-1,-1,1,11,12
207002,0,-2,-1,3,1,-12,-2,-2
207057,-2,-5,-2,-1,2,6,-1,-8
207107,-2,0,2,0,-1,1,-3,-5
207160,4,1,-3,-2,-1,-5,4,10
207214,-2,-1,-4,-2,-6,-54,1,-4
207270,2,1,-1,-1,-2,-9,7,8
207334,-4,-2,-1,1,-2,16,0,-7
207394,2,0,2,0,1,2,1,-1
207444,0,-4,-2,0,-1,-10,5,-2
207510,1,-1,0,-1,-1,4,-4,4
207570,-2,-2,-1,-3,0,6,4,-10
207630,1,-2,-5,-3,-3,-5,4,1
207694,0,-2,1,-2,-1,10,-7,-3
207753,-2,-3,-3,-5,-5,-14,-5,-7
207814,-5,0,-2,0,0,7,-9,-36
207863,0,0,-1,-4,3,19,3,4
207916,0,0,-4,-4,-6,21,0,12
207969,0,1,-3,-2,-5,-4,6,14
208021,-3,-2,-1,-1,2,21,-7,-20
208080,-1,0,-1,-2,-2,1,-3,-11
208131,1,-3,-4,-3,-1,-5,3,12
208197,-1,-3,-3,-3,-2,3,1,3
208257,-2,-4,-4,-3,2,9,5,9
208315,0,5,3,-1,-9,-17,-8,8
208374,-1,2,2,0,-1,-14,-3,-1
208434,6,5,4,5,-1,-4,-3,1
208489,-1,1,0,0,-2,-3,-6,0
208540,3,0,2,1,2,0,7,2
208592,-1,-1,-3,-2,-3,-16,1,9
208643,0,-1,0,3,-10,-20,6,-4
208697,-3,-3,-3,-4,-3,-11,0,-4
208753,3,1,-1,-1,5,8,4,9
208815,-4,-1,-2,-3,-2,-3,3,-4
208876,1,-1,2,1,-1,-3,1,25
208937,-1,0,-1,-1,-5,-4,4,3
208996,-1,-2,-1,-2,-1,-5,3,-23
209051,1,-2,-1,-3,-2,0,4,2
209102,0,0,1,0,0,1,-3,5
209158,-1,-2,-3,0,2,7,1,-8
209207,-1,-5,-4,-1,-2,-4,-4,-11
209261,-1,-3,-1,-1,0,5,-1,-9
209310,-2,-6,-7,1,1,-2,1,11
209363,-1,-3,-3,-4,0,6,5,5
209417,-3,-1,-1,0,-1,5,-4,-8
209474,-4,-4,-3,0,2,-16,-6,18
209537,-2,-2,-3,-4,-1,5,-3,-10
209597,0,-2,-1,-2,-4,-3,0,0
209649,0,0,0,2,-2,3,-2,24
209701,-2,-1,0,-1,0,-7,-5,-1
209755,7,7,5,0,-1,12,2,16
209807,-5,-5,-3,-2,0,-14,-5,-5
209860,-3,-2,-3,-1,0,7,-6,6
209917,-2,-2,-3,-2,-2,7,-5,-5
209979,1,2,4,1,-2,4,-8,-2
210042,0,-2,-1,-1,0,7,4,3
210101,1,2,3,0,-2,1,-1,0
210155,0,-2,-1,-5,-1,-9,-1,1
210204,-1,0,-1,-3,1,-2,-4,-6
210257,0,-2,-1,-1,-1,-5,-3,-23
210310,-1,-1,-1,-3,-1,4,2,4
210361,0,1,3,0,1,0,3,3
210413,-3,-3,-2,-3,-5,-3,0,2
210471,3,-3,-2,-2,-1,-11,4,9
210521,-1,-1,0,-2,2,10,-2,-20
210584,-1,3,1,2,-5,4,4,6
210643,-2,-3,-2,-2,-17,-48,-1,-4
210702,-2,-6,-1,2,4,2,-2,1
210761,1,0,-1,-1,0,-19,5,1
210819,1,-4,-3,-1,-4,-1,-6,1
210878,-2,-3,-1,2,1,4,-1,-9
210941,-2,-1,0,-1,6,-4,-5,-9
211000,0,1,0,1,-8,-2,-5,-7
211059,1,-1,-4,-2,-5,-33,-4,3
211118,2,0,0,1,-3,11,6,-2
211163,-2,-3,-3,-6,-8,-23,-1,-11
211216,-2,1,0,-1,-2,-4,1,13
211274,-4,-6,-4,-3,-1,-20,-12,-3
211322,1,-2,-3,-3,-6,-4,2,8
211378,-1,0,1,-2,3,2,0,3
211440,-1,-1,-1,-2,-2,-8,-7,-8
211502,0,-1,-2,-1,-2,-3,-7,-3
211562,2,-1,0,2,4,-6,-6,3
211614,2,1,2,0,3,-5,0,6
211674,2,-1,1,-1,6,4,0,7
211726,-3,-2,0,-1,-1,0,0,-8
211781,-1,-3,-2,-2,0,2,-2,-20
211831,-1,0,-1,2,16,7,-5,-17
211886,0,-1,-1,-1,-4,11,0,1
211941,-5,-3,-3,-3,1,4,0,-10
212003,-2,-2,-2,0,7,-6,5,6
212065,-1,-2,-1,0,-1,7,5,1
212126,-1,2,3,2,0,7,-6,1
212186,1,1,1,-1,-5,7,2,-5
212240,-1,-2,0,-1,-1,-4,-6,2
212301,4,2,3,0,-5,-10,8,9
212364,-2,-4,0,-4,-8,-6,-1,0
212431,-4,-2,-1,2,4,-30,-4,-6
212489,-2,0,-1,0,-8,-7,-2,-7
212536,2,3,4,0,-14,-3,-6,2
212606,1,0,0,-1,1,-3,1,2
212664,-2,-1,-1,1,-5,-5,-8,7
212725,-1,0,2,2,0,-3,-1,5
212785,0,-1,1,-1,-2,8,-5,-1
212837,1,0,-1,0,4,-3,4,5
212890,1,-3,-1,-1,-2,27,-1,13
212942,-3,-3,-5,-2,12,4,-3,-19
212995,-1,-1,0,1,-4,1,0,2
213048,-2,-2,-1,2,19,13,4,4
213106,-6,1,0,-2,-3,-5,-2,-30
213169,-1,-1,-3,-3,-3,-13,-1,-3
213229,-5,-4,-2,1,-10,-51,-10,-20
213280,1,3,3,1,-4,2,-6,0
213341,0,2,4,5,4,1,8,19
213409,1,1,1,2,2,-2,8,9
213469,-4,-1,-1,-1,-9,3,-5,0
213529,0,-3,-2,-2,-12,-2,4,8
213589,-4,-6,-3,-1,0,-5,-8,-6
213640,-5,-3,-2,-2,-15,-1,-8,-22
213691,1,-1,-2,-1,-4,-29,-1,-12
213744,0,0,-1,-1,-2,-4,-1,3
213798,-4,0,3,2,0,-6,-6,-16
213853,-1,1,0,-3,1,3,2,-4
213909,-1,-3,-1,-2,-3,9,-8,-1
213970,-4,-1,-1,0,0,-2,-9,-14
214033,-6,-7,-3,-3,-3,-12,-3,-17
214085,1,2,-1,0,4,17,2,2
214149,-7,1,1,0,-2,16,-5,-3
214208,-1,-5,-4,-3,-3,-7,0,6
214270,7,4,5,-2,-5,1,16,15
214331,-3,-5,-1,0,-2,6,-1,-7
214382,-1,0,-2,-1,-2,-4,0,2
214445,0,0,-1,0,5,28,-3,4
214507,-2,-3,-2,-3,-3,8,-2,-1
214571,-2,-2,-3,-1,-6,-17,0,-6
214630,-1,-2,0,1,0,-9,-3,-2
214681,-2,-2,-1,0,-3,-18,-4,-2
214738,1,-2,-1,-1,-5,-7,0,1
214787,-5,-4,-2,-3,-4,-1,-3,-17
214839,-3,-1,0,-1,-2,27,-5,-14
214893,1,-1,-1,0,2,5,5,2
214952,5,3,3,0,3,7,-5,6
215011,0,0,-1,0,4,29,-1,-2
215072,-3,-1,0,0,0,-7,3,9
215125,-4,-3,0,1,1,8,-4,15
215187,-3,-1,-2,0,3,11,-1,-7
215252,0,-1,1,0,3,4,-6,-1
215313,0,-1,-2,-2,0,0,1,-14
215373,1,1,2,-1,-1,-9,-7,-21
215428,-1,1,1,-2,-3,4,1,3
215476,-2,-1,-3,1,-3,-4,-5,-12
215529,-4,-2,-3,-2,1,2,4,3
215582,0,-4,-1,-1,-4,-11,0,0
215635,-1,-2,-2,-4,-6,-10,2,16
215692,0,0,-2,-3,-1,0,-6,9
215754,-2,-1,-2,-3,-1,-12,-3,-12
215815,-3,-3,-3,-2,1,5,4,-6
215866,-2,2,1,-1,0,23,-5,0
215931,-1,-1,0,4,5,7,1,5
215991,-3,-3,-4,-2,-2,-6,3,0
216055,-2,-3,-2,-3,0,12,-3,-7
216115,1,2,0,-1,-2,-7,-1,28
216168,-2,-3,-3,1,5,42,4,-6
216231,-1,-3,-1,-3,-4,-2,-1,28
216293,-6,-4,-1,8,3,17,-2,-11
216346,1,-2,0,-1,0,-9,6,5
216403,2,-2,-5,-1,-2,3,3,15
216452,2,0,1,0,0,-4,6,18
216504,-2,-4,-2,-1,0,12,-2,-5
216558,-2,0,-2,-3,-1,-4,-4,-19
216613,-3,-1,-3,-4,-4,12,0,9
216661,0,0,0,-1,0,0,0,11
216714,-1,1,3,0,1,-6,-3,-1
216769,-4,-5,-2,0,2,-2,-7,-11
216832,1,0,0,-1,1,0,-6,18
216894,10,0,2,0,2,8,3,13
216954,-5,1,2,-1,0,7,1,-8
217005,3,1,3,-1,0,2,2,12
217059,-1,-2,-3,0,0,3,2,-20
217115,-4,-4,-3,-3,-2,0,2,-5
217171,-3,1,-1,-1,-1,-4,-2,-11
217225,-6,-7,-7,-1,8,4,-7,-5
217277,-1,0,-1,-4,-2,-8,1,-13
217336,-2,-1,-3,-4,5,6,1,-4
217402,-5,-4,-4,0,-3,-5,-6,-16
217448,2,0,0,-3,-2,-3,-1,7
217501,0,2,1,0,1,-2,0,1
217555,-9,-5,-1,-1,-4,-5,-11,-23
217607,0,-2,-1,-4,-1,7,-4,2
217659,3,0,-2,-2,4,-7,-3,22
217717,2,-1,1,2,4,40,0,0
217780,-5,-2,-4,-4,-3,4,7,-17
217840,2,0,-2,-1,-5,-5,3,-7
217892,-2,-2,-2,-3,4,-6,2,-16
217943,0,0,-1,-1,-7,-1,-3,6
217998,-1,-2,-1,2,18,-10,-4,2
218051,-1,-2,-5,-4,0,-21,-2,-8
218107,2,1,1,0,0,-12,3,4
218154,-3,-4,-5,-3,6,-10,-5,-13
218205,-3,-1,2,-2,-10,-1,-1,4
218259,-4,0,-1,-6,-10,-23,0,-7
218315,-3,-2,-1,1,0,-10,-6,-26
218379,-4,-8,-2,2,7,2,2,-1
218440,6,0,-1,-3,-2,0,-6,9
218500,-6,-8,-6,-6,-6,-7,-17,-32
218550,11,5,-3,-1,-1,2,0,36
218603,0,-2,0,0,3,-10,-1,7
218658,-1,-2,-3,-1,-4,-6,-1,-8
218709,-1,-2,-3,-3,0,1,-2,4
218765,0,-2,1,0,7,5,-2,5
218821,-4,-4,-5,-2,5,13,2,0
218883,-2,0,-2,-1,0,-2,-4,-9
218943,-4,-2,-5,-2,-2,-2,-3,0
218996,-2,2,-2,-2,-11,-38,-7,-11
219058,4,2,0,1,1,0,-5,3
219125,-1,-1,-1,-1,5,5,-4,-6
219184,3,0,-1,0,2,3,-2,26
219242,2,-1,0,-1,4,15,-2,-14
219296,-1,-1,1,1,1,1,-2,8
219349,-4,-2,-2,2,1,-6,-9,-2
219405,-1,2,0,0,-2,0,1,-6
219452,-2,1,1,-1,-7,-40,-4,-3
219506,-2,-1,2,-1,-3,-10,-3,4
219560,-4,-1,0,0,1,8,0,-8
219624,-4,-3,-3,-1,-3,8,6,-6
219686,-2,-2,-6,-3,-1,-4,-6,-1
219745,-1,0,0,-1,-1,-6,4,14
219799,0,-2,-3,-1,0,-5,-1,3
219863,0,-1,-1,2,-2,-4,6,14
219925,-2,-2,-1,-2,-3,-11,7,1
219974,0,0,1,0,1,5,-1,9
220038,-3,-2,-2,-1,-1,-3,-4,-23
220100,-2,-3,-3,-2,4,5,-2,6
220163,-4,-4,-2,0,-1,-7,-7,-9
220224,0,-2,-2,-1,2,-7,-1,6
220285,1,1,0,-1,-2,-14,-1,2
220336,1,0,1,0,1,3,-5,5
220392,4,1,-1,0,3,13,4,0
220445,3,7,5,0,-2,-11,0,-21
220497,-3,2,-1,-2,-1,-6,-5,-6
220547,3,2,1,-1,0,-6,6,4
220605,0,-2,-2,-4,-2,-1,5,19
220669,1,-2,-2,-2,-1,-9,-1,9
220726,1,-2,0,1,1,-4,2,5
220780,-1,-1,-1,-2,4,5,-1,-2
220841,2,-2,0,-1,-2,-2,1,23
220906,-1,0,-1,-3,1,17,-3,9
220968,-2,0,2,1,-2,0,-6,-16
221028,-1,-1,-2,-3,1,0,-2,-24
221081,-3,-4,-1,0,4,9,-1,-5
221145,0,-1,-1,-3,-5,-12,-5,23
221206,1,-1,-1,-1,2,4,-3,-8
221268,0,-1,-2,-2,-2,1,-2,2
221327,1,0,-2,-2,3,9,4,9
221378,-4,-2,-3,0,1,-4,3,8
221432,-1,0,-1,-1,4,-3,0,15
221483,-2,-2,-1,0,1,-3,-4,5
221536,0,0,-1,-2,-1,-12,-2,0
221591,-1,-1,0,1,4,26,-3,-3
221644,-2,-1,-4,-1,-2,5,0,-7
221706,3,0,1,2,-2,18,-5,13
221768,-3,-2,-2,-3,-4,2,0,-15
221829,-6,-5,-4,-3,3,-5,3,-19
221889,-2,-2,-1,-2,3,17,-5,-6
221950,-2,-3,-4,-1,0,-5,-7,-2
222002,-2,-3,-1,0,3,13,1,12
222066,-2,1,-1,-1,1,6,-3,-23
222129,0,1,1,2,-5,-4,-1,0
222190,0,-3,0,-3,-7,-14,0,5
222250,0,-2,-2,0,-5,-8,2,0
222304,0,2,1,0,-3,-9,-2,6
222366,0,-2,-2,0,1,0,-2,-8
222429,0,0,-3,-1,2,6,6,-1
222495,0,0,-1,-1,3,-3,5,15
222553,1,-1,2,0,-3,-3,-4,13
222602,0,-2,-2,1,0,1,0,34
222654,-1,3,3,-1,-2,-6,-3,-9
222706,4,-2,-1,-1,1,-14,11,29
222759,-1,-1,-2,-3,2,12,3,4
222812,-3,-1,0,-2,-4,-6,2,-14
222871,1,1,-2,-3,-4,-10,10,12
222930,-2,-2,-1,-2,-1,3,-2,-10
222992,2,0,0,-1,-2,-2,-2,5
223054,1,-4,-5,-2,-1,-2,-5,-12
223108,-2,0,1,-1,2,13,-1,-7
223156,1,1,0,0,-2,5,6,-2
223209,2,0,1,0,-1,12,-4,9
223272,-2,-2,-1,-4,-2,-6,2,9
223323,0,0,0,-3,-2,-5,-3,7
223379,-1,0,-1,-2,-3,-14,1,6
223430,1,0,-3,0,19,12,-3,-9
223493,-2,-1,-3,-2,3,-10,0,7
223556,-2,-2,-1,-1,1,21,3,-9
223605,2,1,3,1,10,-1,3,12
223666,-13,-6,-6,-4,4,5,1,-4
223737,-1,-1,2,1,1,1,-3,7
223794,2,1,0,0,0,13,2,13
223855,3,-3,-5,-2,-2,-11,-1,0
223915,0,-1,-2,-1,-4,10,1,-32
223971,0,2,1,-2,-2,-9,-4,4
224019,0,0,0,-3,-3,-2,0,-8
224072,1,1,-1,2,1,4,4,16
224125,-6,-3,-3,-2,-4,21,-7,-17
224177,-5,-3,-1,1,2,3,-4,-25
224234,-1,0,1,0,0,-3,-6,3
224297,-2,-3,-1,-2,4,1,-1,5
224358,1,1,2,-1,-5,-13,-3,0
224417,-1,-3,-3,-1,8,-3,1,-8
224471,1,-1,-2,-3,-3,-5,3,-5
224523,-1,-2,-2,-5,-11,6,5,-13
224575,2,2,-1,2,7,12,5,27
224626,-1,-2,0,-1,-1,-8,0,-1
224679,-3,-2,0,-3,-4,-1,-5,-25
224731,-1,1,-1,1,2,-1,0,-19
224783,-2,-1,1,0,1,15,-5,-15
224837,-2,-3,-2,-2,-7,10,2,-4
224896,-2,0,-1,2,-8,-17,0,-36
224949,-1,-1,0,0,7,1,-5,-3
225001,-2,-2,-3,-3,4,-18,-2,6
225058,-3,-1,-1,-1,-3,-1,-2,-22
225106,-2,-1,-1,-1,-4,-10,-5,-8
225160,0,-1,-1,1,-1,8,-4,-7
225214,-1,0,0,0,3,-3,-5,-26
225264,-3,-3,-1,-2,-4,-2,-2,-10
225317,-2,-1,-4,-4,-1,8,-4,-6
225377,-1,-1,-2,1,6,9,-4,10
225430,-1,-3,-2,-2,-1,11,7,-4
225481,0,1,0,0,-2,-1,2,-5
225537,-3,-2,-1,0,-2,-7,-3,-7
225586,1,-2,-5,-1,1,-5,3,4
225640,0,-2,-4,-1,2,5,4,32
225700,-2,-2,1,-1,-1,6,-3,-25
225760,-1,-1,1,-2,-4,-7,-1,-15
225813,0,0,-1,-1,-1,-3,-1,-7
225870,-1,-3,-2,-4,-6,-16,0,-9
225917,0,0,-2,-2,-2,-2,8,-13
225967,-4,-1,-2,-2,1,-14,-2,-4
226022,-2,-2,0,0,-2,-2,-3,8
226079,-2,-3,-2,-2,-5,-1,-1,-30
226141,-4,-4,-1,0,7,20,-2,-25
226203,-2,1,0,-1,1,-7,-2,3
226262,1,-2,-1,0,5,44,0,6
226314,-4,1,1,0,-1,1,0,-3
226366,-2,-4,-4,-1,-4,-11,-3,-11
226419,1,0,1,0,5,34,4,3
226472,-2,-1,0,2,-1,-11,-1,-5
226526,-2,1,0,0,0,-5,-1,1
226582,-2,-2,-4,-3,-8,-2,-1,-3
226627,2,2,1,1,3,7,4,1
226683,-2,-1,-1,-1,-3,-11,-4,-7
226739,-5,0,3,2,-1,-7,1,-22
226801,-1,-2,-2,1,-1,-4,1,-19
226862,-2,-3,-4,1,1,11,4,0
226923,1,0,-2,0,-1,6,11,-3
226983,-3,-3,-1,-3,-1,1,5,14
227034,-2,-3,-2,-1,-2,-4,0,16
227086,-2,1,-1,-1,-1,-1,0,-13
227140,-3,-2,0,0,1,-1,-3,-9
227192,-2,-2,-3,-2,0,-5,-1,-2
227245,-2,-5,-4,-2,2,13,-5,-4
227303,-1,0,0,-2,0,31,-2,-6
227366,1,0,0,2,0,1,5,14
227425,-3,-1,-1,-2,-1,7,0,-7
227478,2,0,1,2,6,3,-1,9
227539,-2,-1,-2,-1,1,12,6,-6
227602,-1,0,-2,-1,3,15,-4,-4
227665,-2,-3,-2,0,1,3,-1,-43
227727,0,-1,-5,-1,-1,2,-1,-5
227786,2,3,3,0,1,3,-2,-6
227838,3,-2,-1,-1,2,6,6,29
227889,-2,0,3,2,2,1,2,-6
227941,-2,2,1,1,0,22,-6,-32
227995,-4,-2,-2,-3,3,36,3,-16
228048,-7,-5,-2,0,-4,-13,-9,-19
228105,-1,1,1,-2,5,5,1,26
228167,-3,-4,-3,-3,-6,8,0,-4
228229,1,-3,-3,0,0,-8,0,24
228280,-5,-2,-4,-2,-4,-13,-4,-36
228341,2,0,-2,-2,-2,-21,4,1
228405,0,-2,-1,1,1,-4,-8,-15
228467,3,2,0,0,-4,23,10,26
228527,0,-1,-3,-1,-1,-10,-1,12
228578,-1,1,-2,0,1,15,1,-8
228642,-3,0,-2,1,3,10,3,-15
228706,-1,-1,-1,0,-2,-15,-16,-15
228767,-3,-3,-2,-1,-1,-10,-1,4
228826,-2,-3,-1,-1,-4,7,0,-2
228879,1,0,0,1,2,-8,-8,0
228931,-1,0,0,1,3,9,1,-1
228985,-2,-3,0,-1,-2,-24,3,10
229038,0,-2,-5,-3,-2,2,3,-12
229090,1,-2,1,-2,0,9,-6,1
229149,1,-1,-1,1,-15,-68,4,5
229210,-2,0,-1,-1,-4,-6,3,-55
229270,-3,-3,-2,0,-1,0,-5,-11
229323,2,-1,0,2,0,1,1,11
229388,4,2,2,-1,3,17,6,44
229448,-3,-1,-1,-1,1,-5,-4,-4
229511,-3,0,-1,1,-1,2,-3,-2
229570,2,0,2,-3,0,-10,-3,-8
229623,-1,-3,-3,-4,-2,-11,1,37
229678,0,0,1,-2,-8,-21,-4,42
229726,-1,-3,-2,-3,2,18,10,6
229781,-2,-2,1,-1,-2,14,6,16
229833,-1,-2,-3,-1,0,-4,-5,-23
229892,0,0,0,0,1,-17,10,6
229952,0,-1,-2,0,2,9,-6,-10
230013,-1,0,1,1,1,-6,-1,-4
230062,-2,-2,-1,-3,-3,-4,-5,-11
230124,-4,-2,-3,0,3,8,2,-16
230187,-1,-4,0,0,-2,1,-5,-6
230249,-1,-1,-2,0,-5,-29,4,23
230312,4,0,2,1,1,17,-3,6
230372,3,-1,0,-1,-5,-33,3,26
230432,-1,-2,-3,-1,-2,-9,1,8
230483,-2,-1,1,2,2,35,-1,-12
230546,-1,-5,-4,-2,-2,-2,2,29
230607,1,1,1,0,3,5,-3,-17
230671,1,-1,0,-1,-2,7,-1,13
230732,0,-3,-1,-2,2,9,-7,-11
230798,-3,-1,-3,0,-1,-8,-5,13
230844,-1,-1,-1,-2,-3,-17,4,8
230896,0,2,0,0,2,-13,-4,-7
230950,-4,-4,-1,-2,5,31,-7,-6
231003,-4,1,0,0,0,-1,-3,-5
231058,0,-1,-4,-2,-2,5,-3,27
231118,1,-2,-1,0,0,-11,0,14
231180,-3,-3,-1,1,3,-1,-4,-18
231236,-1,-2,-2,-2,-1,15,0,-10
231286,-1,-3,-5,-2,-1,0,-1,1
231352,-4,-1,-1,0,-1,-4,-4,-12
231418,6,1,0,-1,-1,-7,5,32
231478,-2,-3,-1,-1,-1,-19,-7,10
231538,3,0,-3,-4,-2,7,5,29
231594,2,-1,0,-1,-7,-34,3,19
231651,-2,-6,-5,-2,-2,-2,2,-6
231718,-2,-1,-2,0,1,-7,-3,-11
231778,1,-1,-2,-1,-10,-38,-1,16
231838,-2,-3,-2,-4,-1,6,-3,4
231887,0,-1,-1,-3,-3,-1,3,6
231939,1,-1,-1,-1,-1,-8,3,-14
231992,0,-1,-1,-1,2,7,5,0
232042,-2,0,0,1,3,16,-4,8
232097,-2,-3,-2,-2,-2,-1,1,3
232153,1,1,-1,-1,1,-1,0,13
232216,1,2,-1,0,0,8,0,15
232276,-3,-2,-3,-2,-2,-16,-2,-1
232343,9,5,3,-3,3,0,15,59
232389,0,2,2,2,1,8,-1,5
232442,3,0,2,-1,0,2,1,9
232495,2,-1,-1,-1,-3,1,1,10
232546,-2,-2,-1,1,1,4,0,2
232601,-4,-3,-1,-4,0,6,-1,-10
232660,-1,-1,-2,-1,0,4,5,-12
232721,0,-1,0,0,2,19,-2,-26
232784,-1,-2,-3,-2,-2,3,-1,-1
232830,0,-2,-1,1,1,2,-7,8
232885,-3,-3,0,0,1,1,-3,8
232938,-2,-2,-2,-2,-2,4,2,-15
232987,-2,-4,-3,-1,-2,-1,5,-3
233041,0,0,-1,-1,-2,-7,-4,-5
233093,-4,-4,-2,-2,-4,17,-4,-3
233146,3,-1,0,-3,0,6,-3,18
233199,-1,1,-2,-3,-8,-43,-6,-31
233258,-2,-1,-2,-2,-2,-13,-3,4
233318,-1,0,2,0,6,10,-1,8
233379,0,-1,0,2,1,9,1,5
233441,-2,-3,-2,-1,3,1,-2,26
233498,-2,-2,-4,-2,-1,-1,4,18
233555,2,-1,-3,0,0,-6,6,12
233603,-2,-1,-3,-1,0,3,1,-1
233657,-2,-2,0,0,0,5,-3,-12
233714,-2,0,1,-1,-2,4,-7,-14
233776,-4,-1,0,1,-1,-7,-4,5
233831,-3,-1,-3,-1,2,10,-2,-12
233882,-3,-3,-1,-2,-2,-3,-4,-1
233936,0,3,1,-2,-2,5,1,4
233987,1,0,1,0,2,17,7,10
234039,-3,-2,1,1,0,-6,0,-18
234092,1,1,0,-3,-2,-2,2,21
234144,-1,0,-3,-3,-4,-7,2,1
234196,0,1,1,0,0,-5,-4,-7
234251,-3,0,-4,-6,-6,-4,-4,-25
234307,1,3,3,-1,-3,-29,-5,1
234360,0,-1,-1,0,-4,5,-3,1
234426,-1,2,1,0,4,33,-3,-17
234484,-1,-2,0,2,-5,-21,1,-15
234534,-1,1,-1,-2,-3,-9,-2,-5
234586,-2,-3,-3,0,0,-5,-8,-12
234640,-1,-2,-1,-1,-1,1,-1,9
234692,0,-2,-1,1,-3,-3,3,19
234746,1,1,0,1,2,0,1,6
234803,-2,-2,-1,0,-2,2,3,9
234865,3,1,1,0,2,3,-1,7
234925,-5,-3,-2,-1,-4,-8,2,-42
234982,-1,-2,1,-2,1,9,1,9
235044,-1,-3,-2,-3,5,-4,0,7
235105,1,-2,-4,-3,-4,-5,0,-4
235165,-3,-2,-4,-3,-9,-17,-4,-11
235225,0,1,2,0,3,3,3,26
235280,3,-3,0,0,1,-3,-3,22
235343,3,0,0,1,-2,-12,0,8
235404,-1,-1,1,-1,-1,-6,-2,-6
235454,0,-1,0,-2,0,-8,1,0
235510,3,0,-2,-1,-5,-10,-2,18
235563,1,2,1,0,-1,-13,7,3
235624,1,1,2,0,1,-1,-3,4
235672,1,-2,-2,-4,-1,-13,8,26
235727,2,0,-4,-5,-5,-22,-4,36
235783,1,0,0,-1,-3,-21,-3,5
235846,-2,0,-2,1,1,-12,-3,-10
235907,-5,-1,-3,-3,-3,-6,-4,-9
235967,-3,-1,-1,0,2,17,-2,-9
236019,-3,1,-1,-3,-2,-5,-2,-20
236082,-2,2,-1,-2,-4,-6,4,-23
236145,1,-2,-1,-1,2,6,-3,6
236207,-2,-2,-1,0,-2,-6,1,-1
236267,-2,0,0,1,1,10,-7,-19
236318,2,-1,0,0,1,-3,2,24
236371,0,-2,-1,0,-2,-8,1,-2
236424,0,2,1,-1,0,-10,1,24
236480,-2,-2,-4,-2,1,3,1,-13
236531,8,3,5,4,4,1,-2,12
236586,0,2,2,-1,-3,2,-2,-3
236650,2,1,0,0,0,3,5,19
236710,-3,-4,-1,0,1,14,5,0
236763,0,-1,1,0,-1,-3,-5,-15
236825,-1,-3,-5,-2,0,-1,1,-3
236886,-5,-3,-3,-3,-3,-2,-7,-8
236954,1,1,1,1,-1,-12,4,10
237012,-2,1,-1,-4,1,10,-1,-8
237061,-5,-3,-1,-1,-3,5,-9,-10
237124,1,0,2,1,0,-2,-6,-30
237190,-1,-2,2,1,-1,3,-1,6
237250,-4,1,2,1,2,4,-5,-33
237311,1,0,0,0,-2,-5,3,39
237360,-6,-6,-4,-2,-1,-14,-1,-18
237413,1,1,1,0,3,3,2,1
237468,-6,-4,-3,1,-1,-10,-8,-53
237528,-5,-2,-2,-1,0,-9,-4,-39
237579,1,-1,0,-1,0,7,0,-1
237632,-1,-2,-1,-1,5,57,-6,-3
237689,-2,-1,-1,2,0,-3,2,8
237752,-2,-1,-1,1,-2,-13,5,11
237812,-1,-3,-2,0,0,-2,0,10
237872,2,2,3,-1,-3,-3,-1,-4
237924,-1,-3,-5,-1,-8,-28,2,-15
237989,-5,-3,0,-4,-2,-12,-1,-11
238053,-1,-2,-2,-2,0,-5,-2,-11
238113,-1,-1,-1,-4,-2,-13,-2,6
238165,-4,-3,-5,-3,-1,13,-3,-11
238228,0,-1,-2,-2,1,6,-2,-36
238291,-3,-2,-3,0,1,-2,-5,-5
238352,-1,0,-1,-3,-2,-5,-8,-9
238416,-2,-3,-1,2,-1,-21,-1,-2
238465,-2,-5,-3,1,2,23,0,36
238515,1,-1,-1,2,-2,11,-4,14
238569,1,-2,1,-1,-1,4,1,1
238624,1,-1,0,0,2,6,0,-1
238678,0,1,0,0,0,-2,-7,-24
238737,0,0,1,4,2,0,4,7
238797,-2,-1,0,-3,-2,14,1,-2
238857,-1,-3,-5,-2,-1,-9,-2,-12
238909,4,3,4,0,3,2,0,24
238975,-7,-5,-4,-5,-12,-49,-6,8
239034,1,-2,-2,0,2,5,3,18
239097,-1,-1,-1,-3,0,18,-7,-1
239155,1,0,0,-2,-2,-7,-2,1
239209,2,-1,-2,-2,2,10,-5,0
239275,3,-2,-1,-1,-3,5,12,26
239335,1,-1,-1,0,3,27,4,3
239396,-2,-5,-3,-1,1,1,0,4
239455,1,1,-1,-1,0,-5,-2,-2
239507,1,-1,-2,-2,-4,-7,-1,14
239559,-2,-1,-3,-2,-1,0,1,-8
239613,-3,-1,-2,-4,-6,4,-6,-5
239667,2,0,0,1,4,-7,2,18
239718,2,0,0,-1,4,27,1,8
239777,-1,-2,-1,-2,6,33,6,4
239837,4,0,2,1,6,28,5,0
239888,0,-1,1,0,0,-8,-9,-11
239951,0,-3,-1,-2,1,-4,-7,19
240015,-1,0,-1,1,0,7,1,-13
240077,-2,0,-2,-1,-4,-1,-3,-38
240137,-1,-2,-2,-1,0,-1,0,-21
240187,0,-2,-3,-1,-1,10,5,-24
240241,-1,-3,-2,-3,1,0,3,5
240294,2,1,1,-2,-2,0,-6,-2
240348,-1,-3,-2,1,0,4,-2,-9
240399,1,-1,-1,-4,-2,-2,6,19
240457,-3,-1,-1,-1,-7,-13,-8,-26
240523,-4,-4,-4,0,-2,-1,-8,-17
240581,-2,1,1,1,1,2,0,2
240631,-2,-2,-2,-2,-2,1,-8,-33
240684,-2,-4,-6,-2,1,-7,0,6
240737,-1,-1,-2,0,2,-13,7,14
240794,-1,-4,-5,-3,-1,-9,-4,-7
240841,4,-1,-2,-1,1,11,8,11
240900,0,-2,-2,-2,1,-5,3,0
240962,-7,-4,-4,-1,0,-2,1,-10
241025,-2,-2,-2,-2,-1,-2,0,4
241075,-4,-1,-1,-3,-2,1,-1,-13
241126,0,-2,-3,-1,-2,-4,0,-12
241179,4,3,2,2,-1,0,8,37
241232,7,4,1,0,-3,-1,-9,12
241283,-3,0,-1,-3,-2,3,-4,-10
241336,2,1,1,-1,3,-5,2,8
241387,1,3,3,1,2,-2,-4,-18
241442,-1,3,3,0,-2,-9,1,24
241496,2,0,-1,-3,-1,-8,5,1
241559,5,-1,-2,1,1,16,-4,16
241628,-10,-4,-6,-5,-4,-11,-13,-73
241684,-2,0,0,0,2,23,2,5
241739,-6,-3,2,0,1,15,10,4
241786,11,-1,-1,-1,0,3,18,-11
241839,-4,-3,-3,0,-6,0,-13,-7
241890,-15,-5,-2,-1,1,-1,-3,-13
241945,-5,3,4,0,0,-5,-5,2
242004,0,0,-1,-2,-2,3,6,12
242069,-1,2,1,-1,6,27,3,-42
242131,8,-1,0,1,4,1,9,16
242185,5,0,-2,-2,-1,4,-7,-18
242235,0,0,0,-3,-3,-8,2,16
242288,-1,0,0,-1,1,5,-1,4
242342,0,-3,-2,-1,-3,2,-1,7
242394,-8,0,0,-2,-3,-5,4,11
242449,-13,3,2,1,1,0,3,1
242498,6,0,-1,0,2,8,-2,-4
242550,-4,2,0,-6,-5,-20,-1,-5
242605,4,-2,-3,-2,-5,-1,0,6
242661,-3,0,-2,-3,-2,-2,1,5
242711,-12,-1,0,-1,-2,-10,-4,-4
242762,13,3,0,0,6,4,4,-26
242823,-1,-2,-2,4,8,16,6,8
242882,-2,-2,0,1,-1,0,-11,5
242942,-5,-2,-1,-1,0,26,8,-8
242995,-3,-4,-2,0,0,3,3,-16
243052,-2,-2,-1,-3,-2,8,1,-2
243104,0,0,-3,-3,-1,-4,-1,1
243165,-3,-1,-1,0,2,11,-4,-8
243227,-1,2,3,1,1,24,-2,-17
243289,-3,0,-2,0,-3,-5,0,-15
243341,-3,-4,-2,-2,-5,6,-2,-12
243403,-3,-3,-1,0,1,-4,1,1
243466,3,1,3,-1,2,12,4,21
