Timestamp_ms,Channel_0,Channel_1,Channel_2,Channel_3,Channel_4,Channel_5,Channel_6,Channel_7
142,0,0,0,0,0,0,0,0
193,0,0,0,0,0,0,0,0
248,0,0,0,0,0,0,0,0
304,-7,6,3,-10,-23,-28,-14,15
359,9,62,6,-4,-9,1,0,5
414,7,-8,1,-4,-4,-3,0,-15
465,-71,-16,-9,-24,-31,-33,-21,-24
525,75,42,17,6,18,3,1,12
585,-77,-14,-9,2,-1,15,8,17
640,37,-37,-2,-2,-26,-65,-11,-2
700,22,9,-6,-17,-18,-7,-10,42
747,0,8,-5,1,13,-9,-6,-27
802,36,-18,4,6,7,9,11,32
854,21,8,7,2,-1,11,4,15
907,-19,-46,-6,14,27,37,13,14
960,-38,-84,-34,-16,-4,4,-2,-26
1012,10,27,3,3,-6,-1,-3,-12
1063,42,46,12,14,16,26,11,-9
1117,6,-2,-3,-1,3,17,3,-2
1175,14,49,15,16,24,3,9,19
1236,39,19,-12,-19,-44,-68,-29,-15
1296,-13,1,-11,-25,-31,-39,-24,3
1348,18,-10,1,8,19,26,18,32
1403,-6,2,-10,-30,-32,-13,-16,-29
1459,-13,15,10,3,23,5,-2,-14
1522,28,1,3,5,15,11,4,0
1583,26,-4,-2,-1,13,18,6,9
1643,28,15,7,15,26,17,9,17
1695,4,15,4,-9,-3,-9,-7,-5
1747,-22,-55,-10,-1,-8,-25,-14,-58
1800,20,-10,-8,-1,5,13,-5,-5
1854,28,-2,-10,11,27,-6,15,31
1908,-62,4,-7,-12,-26,-31,-15,5
1957,10,8,-7,-1,-2,-8,-9,-17
2013,17,1,-1,-3,-5,4,1,10
2063,-9,-3,-6,-5,0,10,-5,0
2124,-69,-14,-8,-8,-2,-3,-8,-75
2188,4,19,9,8,5,25,8,3
2243,12,-23,-9,-7,-10,-18,-12,-83
2302,10,-29,-3,-4,-12,-21,-2,18
2366,3,-1,9,12,14,21,7,5
2425,-35,-9,-5,3,5,10,0,11
2474,-23,-12,6,4,12,17,9,-52
2527,-16,-3,2,2,4,-3,-1,-10
2580,-8,-33,-9,-4,-32,-52,-17,-3
2632,-23,-62,-18,-19,-27,-42,-21,-3
2689,3,3,5,-3,-11,-30,-13,-9
2745,3,-7,-7,-9,-11,-11,-4,-14
2807,-5,-6,-11,-23,-30,-8,-15,-6
2866,-70,-23,-16,-4,8,1,6,0
2919,-83,41,17,-2,-8,-6,-3,-2
2969,-2,-3,3,-3,-15,-2,0,-13
3022,39,13,4,4,7,15,7,-33
3083,-19,-29,-15,-9,-11,-4,-9,-7
3136,-1,-26,-14,-21,-16,-12,-7,-32
3189,-5,8,-4,-11,-14,-23,-10,1
3248,27,20,7,2,7,-2,-9,-1
3308,29,-3,-5,0,-8,-15,-4,47
3371,1,-25,-7,5,17,2,-1,-8
3420,5,-17,-10,-16,-16,-32,-8,-19
3472,-38,-15,0,2,11,11,-1,-19
3529,-83,1,-9,-4,6,8,-6,0
3579,-35,-9,-9,-14,-24,-32,-14,-21
3631,10,12,5,-4,-10,-7,-3,-7
3683,13,13,11,3,9,16,6,-40
3740,0,40,28,1,-32,-44,-20,-16
3794,17,25,-1,7,-2,14,13,36
3847,13,21,15,9,-1,-21,0,0
3914,-31,6,-2,4,9,3,0,4
3961,-30,14,0,3,6,5,-1,-35
4012,34,19,-5,-18,-23,-30,-13,-9
4066,5,5,6,8,7,13,2,12
4118,-2,-5,-7,1,8,-12,-1,-9
4171,-24,8,-7,-11,-8,-8,-14,-40
4222,-21,-25,-3,2,11,2,-1,-9
4275,9,6,4,1,5,6,0,-3
4329,13,33,16,18,34,40,11,18
4381,-14,20,-3,-11,-18,-5,-7,-25
4432,-13,-1,-3,2,5,5,8,7
4483,7,-4,-11,0,7,-20,-6,-32
4550,-9,3,3,2,4,8,-2,-20
4610,-8,-40,-16,-10,-18,-23,-12,-7
4656,8,10,9,0,-8,-12,-1,13
4710,15,-1,-1,8,14,18,4,29
4764,-6,-13,-4,-12,-19,-5,-2,-20
4821,-15,2,3,6,10,25,4,-42
4868,-5,-9,0,1,-3,-21,-4,-19
4927,-7,7,1,1,-1,-8,0,-2
4988,-28,-24,-10,-13,-18,-25,-15,-15
5049,5,-10,-3,-2,1,10,-1,-19
5101,8,3,1,6,4,8,3,-8
5154,0,23,1,-4,-4,-10,-8,-3
5205,-7,-3,4,9,11,9,7,2
5258,21,-4,5,-5,-9,-6,-11,0
5313,14,30,8,5,7,3,5,8
5363,-11,-14,0,10,17,15,6,-11
5416,-30,-19,-6,-11,-20,-30,-13,-13
5471,-21,-13,-1,1,2,6,0,6
5520,9,0,-2,-2,0,-18,-4,-14
5574,-3,-4,0,1,-2,-10,-7,-35
5626,-11,-1,-3,0,-3,0,5,-7
5678,31,40,11,5,6,20,12,33
5733,9,8,-3,-4,-3,3,-2,7
5785,14,20,1,-3,1,10,6,-1
5836,-22,-60,-22,-30,-44,-51,-22,-17
5890,-4,-8,6,4,11,16,4,-12
5953,-19,3,7,18,25,10,3,-24
6001,15,4,4,5,15,19,10,14
6053,27,-10,-2,3,0,16,3,21
6105,12,47,2,-12,-16,-8,-8,-26
6157,16,-11,-8,-4,-3,5,8,23
6210,30,30,9,5,12,6,1,-17
6271,-37,-3,7,10,16,0,1,21
6323,-2,20,9,12,16,30,8,20
6376,35,-1,0,-11,-36,-14,3,11
6430,-16,-5,0,8,7,-8,-4,27
6481,48,18,21,7,7,33,18,13
6533,-19,26,10,-13,-27,8,6,5
6589,-4,-1,-10,4,8,10,14,-5
6645,17,-12,-1,-2,-7,-1,0,-18
6703,16,4,13,8,22,21,7,-4
6759,-37,-9,-7,-5,2,-12,-15,-36
6811,-34,-5,7,8,11,12,2,-29
6864,16,-5,0,14,23,13,24,44
6915,-11,10,10,19,32,33,13,20
6969,46,34,10,6,9,4,3,24
7020,43,33,12,5,13,15,11,29
7073,42,11,2,0,2,16,10,64
7126,-14,-34,-14,-18,-24,-45,-15,-30
7177,7,7,-7,-24,-37,-40,-15,-16
7239,-35,-18,-3,17,48,43,10,-46
7300,7,11,-3,-5,1,3,0,9
7359,-4,20,8,-5,-23,-40,-24,-19
7412,73,23,6,5,9,26,19,17
7465,-27,-70,-25,-43,-58,-60,-26,-18
7516,-42,1,4,10,7,2,2,-56
7568,0,11,5,2,-6,10,9,33
7625,-113,-40,-12,-3,15,-2,-13,-33
7680,-11,51,18,11,5,19,5,-16
7741,-31,-15,2,4,0,9,-1,-30
7793,20,7,-1,-8,-14,-14,-8,-9
7849,-26,2,-3,-9,-14,-12,-13,-15
7898,-12,-17,-17,-21,-27,-11,-2,-24
7951,22,-18,-13,-11,-9,1,-9,11
8005,51,-25,-6,-3,-3,-3,4,-57
8057,-110,-62,-20,-9,-20,8,-9,-50
8110,4,2,5,8,16,26,1,16
8158,-17,12,15,20,44,47,17,-17
8226,1,-8,-4,0,5,9,14,34
8280,45,41,17,17,33,38,21,12
8340,13,24,19,8,-12,-1,8,14
8394,3,-2,-2,-7,-21,-5,3,53
8454,3,4,-1,7,11,11,0,2
8506,-8,-10,-8,-13,-15,-3,-1,8
8559,32,27,6,-10,-15,-14,-14,2
8617,23,-8,-2,2,9,6,-7,-9
8666,41,38,1,-8,-25,-6,-12,-18
8725,-11,13,4,-6,-30,-13,-8,26
8784,1,2,-6,1,20,6,2,-13
8836,12,9,0,-2,-5,-12,-3,2
8898,31,15,1,-1,7,27,19,70
8941,2,26,10,12,16,24,18,12
8995,8,-13,-3,-17,-25,-20,-8,12
9054,-50,-37,-5,5,18,-13,2,-14
9106,-16,-21,-19,-18,-35,-59,-26,-51
9158,3,20,14,9,0,29,12,-30
9224,14,0,2,-5,-14,-2,-2,12
9267,-61,-20,-14,-16,-27,-8,-13,-25
9326,16,-9,5,-9,-19,3,1,-8
9376,-40,-20,-4,0,0,1,-7,-55
9430,-41,-16,-14,-12,-27,-11,-13,13
9487,-2,-19,-6,-10,-20,-38,-24,9
9541,17,9,7,13,22,22,-1,10
9597,10,-14,-8,2,5,3,2,-44
9653,-35,-11,-1,6,12,12,10,-26
9703,-7,-36,-14,-12,-11,-16,0,30
9765,-11,-2,-4,-9,-3,10,6,52
9827,-55,-32,-16,-7,-12,-5,-4,-11
9888,12,16,0,-3,-22,-3,7,50
9949,42,-1,1,3,-10,26,15,94
9989,16,-16,-9,-13,-1,3,1,58
10050,11,-1,4,15,18,45,13,44
10100,-19,-4,-4,5,10,16,12,4
10150,-6,6,0,-3,1,-10,-5,5
10211,-29,-21,-9,15,0,-20,-3,-8
10258,-2,7,3,-13,-13,-5,-5,-37
10311,-18,-49,-19,-3,-27,-83,-35,-22
10367,-3,-31,-9,6,-5,4,2,-18
10426,-1,1,-1,2,3,-6,-6,1
10482,13,-12,-5,-2,-4,-1,5,19
10539,-27,-49,-1,23,27,33,24,8
10591,8,-7,-6,-5,-3,1,-3,-5
10646,1,4,8,15,10,-7,10,18
10704,6,29,9,10,7,4,4,-10
10757,6,10,8,7,3,-13,0,8
10810,5,3,-3,12,21,27,9,13
10867,-4,10,-1,3,-1,-23,-10,1
10914,-21,1,-5,-4,1,-10,-2,23
10969,-36,12,0,4,1,0,-2,-20
11017,-1,-16,-6,-7,-14,-24,-9,-4
11072,-17,6,-7,-12,-19,-17,-3,12
11130,1,-11,-2,4,5,8,1,4
11177,23,-8,-8,-23,-26,-11,-12,0
11231,5,-2,2,5,10,8,5,9
11287,-10,-9,-1,2,7,15,3,-29
11349,10,14,1,9,10,45,12,32
11409,-21,-30,-8,-3,-9,-33,-8,-15
11470,-23,19,-6,-18,-17,5,-8,-16
11530,9,8,-4,2,-8,-8,4,16
11596,22,37,11,8,20,16,9,27
11650,15,0,-1,1,5,18,5,2
11702,-24,-27,-4,-2,-20,-53,-12,0
11753,-8,6,2,5,10,14,6,-26
11808,-20,-12,0,6,11,9,8,-10
11861,13,6,6,5,5,17,2,-20
11914,-28,-50,-10,7,13,21,-1,-33
11964,27,7,-5,-12,-26,-15,-13,2
12015,-2,35,9,11,19,34,3,6
12070,-2,16,3,6,5,21,3,37
12125,-14,5,3,1,11,28,11,22
12191,-4,1,-4,-3,-9,-18,-11,-26
12257,-40,-39,-9,-9,-14,-32,-2,-32
12302,-4,-28,-8,-14,-25,-2,-9,-38
12357,12,4,-2,9,13,36,18,6
12406,-4,14,0,-3,-3,2,-6,0
12458,7,13,-2,-2,15,18,-2,-5
12521,10,5,3,-4,-13,-11,-3,13
12566,-3,27,10,9,7,11,5,-4
12620,3,32,10,15,22,21,2,0
12669,1,-8,-3,-5,5,11,-3,-37
12728,-13,31,8,-2,5,18,-3,-53
12790,10,23,-1,-9,-7,-11,-6,10
12851,-18,-15,-7,7,13,-18,3,-54
12902,10,6,-2,-14,-18,-12,-11,16
12955,-14,-25,-7,14,9,-75,-8,7
13007,15,8,5,6,9,2,-4,-41
13059,28,4,5,3,6,28,8,15
13112,-25,-3,-5,0,11,11,0,-48
13179,5,-1,-4,-5,-7,13,-1,19
13224,4,-6,-1,5,-2,-29,-1,14
13282,-28,-6,-8,-8,-1,11,-12,-42
13330,1,11,-3,-1,-6,-18,-4,-25
13381,-2,3,-5,-11,-16,-17,-9,16
13435,-7,-5,5,2,3,-6,4,24
13487,4,-5,0,8,9,-12,5,29
13539,10,21,7,-9,-12,-5,5,33
13592,23,2,5,20,27,-21,19,53
13648,8,0,9,7,12,0,3,-13
13698,-2,-4,-1,-2,7,3,-2,2
13752,-88,-17,-10,-1,11,17,3,12
13801,21,18,-7,-22,-24,-9,-9,-17
13853,44,25,4,2,0,4,19,45
13913,-18,-23,-8,-10,1,3,1,-70
13963,16,-36,-10,-4,-5,-13,1,-22
14019,17,24,6,-1,-5,5,1,28
14072,-7,3,1,-11,-8,-8,-6,15
14122,-8,3,-2,0,6,-8,-1,-12
14178,-15,32,22,16,26,37,0,16
14229,-11,-19,-10,-6,-5,4,-4,-12
14283,29,17,-1,-8,6,-34,-8,-60
14334,-30,-28,-16,-11,10,1,-2,20
14387,20,18,14,2,-5,-4,4,48
14442,-7,-82,-38,-8,20,11,-13,-51
14501,-21,-13,-13,-17,-42,-13,-13,36
14551,71,-15,-12,-4,-8,-15,-3,-7
14609,-47,-5,-3,0,22,-1,-15,-95
14657,24,-4,-9,4,19,-1,-1,-20
14708,4,17,3,-3,-7,-8,-5,-2
14769,-9,10,-6,1,-13,-28,-9,27
14815,75,6,-3,6,15,12,2,43
14872,-29,3,5,19,25,32,23,33
14920,-2,-16,-5,3,10,22,1,7
14976,-12,17,10,-3,0,7,0,5
15031,-51,-32,-7,3,3,10,-2,-9
15077,31,-8,-1,4,10,0,1,34
15130,45,3,-7,-8,-24,-16,-5,-1
15181,17,-16,-12,-12,-6,3,-5,17
15241,-10,36,32,18,31,48,30,20
15288,41,28,2,7,10,22,10,50
15340,-35,-35,-27,-28,-26,-23,-19,-10
15400,21,31,20,0,-12,1,11,41
15461,19,23,20,2,3,9,-7,13
15512,-4,20,10,-3,-25,-15,-2,17
15567,-12,17,-2,-10,-23,-9,-16,-4
15618,5,-12,-5,-2,-14,-14,0,-19
15670,8,7,-5,-9,-30,-5,5,4
15723,-12,-21,-19,-8,-10,-11,-6,8
15782,-18,7,9,6,-1,-11,-2,5
15847,7,44,33,18,30,25,15,18
15915,6,-9,-6,0,9,7,1,-42
15982,41,13,-8,-4,3,7,11,11
16023,-29,18,2,4,3,0,-5,-46
16083,-19,-2,-9,3,15,-5,-6,-17
16142,26,-10,-11,-3,-7,-1,9,21
16193,-1,18,8,5,15,0,0,15
16247,0,-5,-5,3,7,31,5,-4
16313,-18,12,2,4,15,-11,-5,-4
16360,5,-2,-2,5,0,7,15,19
16417,-16,-35,-21,-9,-22,-30,-14,-31
16467,26,24,2,3,1,1,2,60
16527,-18,-4,-2,1,5,-14,-8,-27
16578,-5,31,1,-10,-8,-10,-6,31
16631,19,-3,-7,-7,-12,-13,-5,-12
16682,6,9,5,13,12,5,2,0
16735,-55,-13,3,5,9,8,10,20
16788,-20,5,2,0,14,-10,-7,4
16843,-14,4,0,0,0,-7,-10,-21
16896,-39,-1,4,-3,5,9,-9,-81
16947,-29,-29,-6,-3,-14,-7,-8,-8
17004,-10,-6,-4,2,5,9,-6,-31
17058,-27,-36,-4,5,17,4,-4,-9
17112,13,-8,-9,-12,-16,-17,-9,-18
17162,-4,-19,-19,-17,-17,-39,-23,-55
17223,0,-20,-4,-6,-2,6,0,3
17272,-12,10,-5,-23,-48,-57,-27,-5
17328,20,-48,-17,5,14,5,4,-7
17384,5,-2,-6,-3,-9,-9,-7,58
17449,15,12,-10,-12,-18,-73,-12,10
17509,47,-10,-1,7,7,0,1,20
17569,5,12,8,17,25,47,13,-1
17621,19,4,5,4,11,11,9,29
17672,-12,4,3,0,3,5,0,-5
17726,24,3,0,0,2,23,7,2
17789,-10,0,-4,1,11,-1,4,6
17832,12,-3,-2,-5,-7,-4,-1,15
17882,-29,14,3,7,19,17,0,-18
17940,5,-12,-8,-4,-16,-6,-8,-25
17996,7,12,1,0,-2,4,-14,-69
18059,36,6,0,10,15,9,4,12
18098,1,7,4,-6,-58,6,1,11
18152,18,11,1,1,-5,9,-2,-6
18205,2,3,7,4,3,22,1,4
18265,-4,16,14,3,-17,-27,-9,-25
18323,-1,8,6,4,13,26,4,13
18372,-10,7,1,1,2,-9,-1,15
18430,-11,25,3,0,8,-1,-8,-38
18493,4,-8,-7,-10,-4,8,0,-42
18541,31,64,14,-3,-17,-16,-4,-6
18595,-18,-5,-5,11,21,35,11,-11
18653,-64,-31,-12,1,8,3,-10,-56
18699,26,-10,4,12,20,43,8,29
18754,-48,-7,-2,3,0,10,5,-9
18806,-23,5,3,7,11,8,8,62
18858,-35,-10,-2,10,12,6,1,-43
18919,12,12,11,10,14,13,8,54
18964,13,-7,-8,-8,6,4,-5,26
19019,-24,-21,-12,-3,-2,1,-7,-32
19069,14,18,4,8,20,20,9,26
19123,-9,1,-1,3,3,6,10,25
19179,-33,-12,-3,1,2,0,-16,-95
19234,-6,-10,-12,-17,-10,-17,-13,24
19296,15,9,6,10,29,38,12,22
19357,100,36,9,18,26,9,15,27
19407,-19,-13,-8,-2,16,15,-1,-13
19457,-9,3,0,-4,17,6,-11,-7
19521,-27,-14,-4,3,15,2,1,-11
19565,-2,-31,-9,-8,-20,-12,2,8
19622,-3,-1,0,8,25,14,1,39
19668,-71,-33,-12,-9,-22,-9,-8,-54
19722,-9,7,1,-5,-13,-2,4,26
19777,11,17,5,2,5,-2,5,38
19827,4,7,4,-6,-4,0,3,12
19878,8,11,3,-1,-8,0,-1,26
19931,46,11,4,-15,-32,-32,-14,-25
19992,-23,-7,-4,9,26,22,5,-11
20063,20,8,-5,-9,-32,-16,-10,-16
20113,-9,1,6,3,11,-3,-4,-73
20169,-60,-3,4,8,19,-15,0,13
20223,-20,-4,-4,-1,-3,-4,0,25
20276,-37,34,13,8,0,2,7,-13
20330,-64,-17,-4,1,4,4,1,-22
20381,-20,-20,-3,8,12,5,6,-8
20432,-20,-4,0,3,-4,-13,1,8
20488,22,29,15,12,11,2,1,-47
20538,-40,27,3,11,26,5,8,-15
20597,-48,-7,0,10,14,-8,7,-29
20651,-74,-18,-3,-6,-21,-11,-1,-6
20705,56,-7,-7,-20,-40,-40,0,26
20756,58,35,17,9,3,10,4,6
20814,-5,10,-1,5,7,12,5,-1
20868,13,-14,-2,14,21,-1,7,-20
20921,-2,1,-2,-6,-11,-12,-7,12
20973,-22,-8,-3,3,-1,2,8,11
21027,14,-8,-1,-6,1,-16,-5,21
21079,-22,15,11,1,0,-10,3,30
21133,-11,-8,0,8,6,17,11,75
21183,28,-11,-10,-12,-9,-29,-7,76
21236,23,-2,-5,-3,4,3,1,-21
21295,-21,-12,-5,2,24,8,7,-16
21341,27,8,3,-2,-19,-12,-11,-8
21396,35,-13,-6,-8,-10,-8,-8,17
21446,2,-5,-5,-4,0,7,-15,-57
21498,15,-22,-5,-3,-11,-13,-1,20
21551,6,-3,0,4,5,10,1,-5
21604,-5,25,11,6,-3,-1,7,36
21654,25,-3,-2,-7,-13,-8,-11,-26
21716,19,-9,2,-1,-25,4,6,-12
21769,12,29,1,-1,2,-2,4,-5
21825,-28,-2,4,7,6,11,2,-10
21874,3,-19,-2,1,5,15,2,18
21932,2,-17,-11,-16,-18,-34,-13,-12
21979,-44,8,0,-6,-15,-24,3,13
22033,45,6,4,10,50,8,1,-10
22083,-12,5,3,-6,-16,-11,-14,1
22136,8,-40,-4,4,11,13,-7,-19
22189,-26,-3,-1,14,22,27,14,51
22240,-31,-21,-3,3,1,-5,-10,-37
22302,0,-2,3,1,4,-7,-4,37
22364,25,7,1,0,-1,-2,-2,5
22428,-21,7,0,-1,-2,4,2,-20
22475,-21,-5,-3,-6,-15,-17,-5,-35
22528,-43,-14,-2,-3,-3,7,1,5
22579,21,1,-3,-5,-7,-9,-1,47
22631,51,12,-1,-9,-3,-9,-12,-2
22693,9,10,3,4,3,-4,-2,-18
22737,-19,-53,-11,-5,-8,-28,-14,-53
22795,20,-20,-8,-9,-12,-7,-3,-1
22841,19,-2,-7,-17,-18,-24,-8,-2
22901,4,27,0,-8,-14,1,1,16
22961,37,9,0,-1,-4,-7,2,21
23019,2,5,2,7,14,4,0,-21
23067,-6,-11,3,14,22,35,12,39
23118,19,23,3,0,2,11,3,-13
23172,-13,-8,-2,0,5,13,9,19
23228,26,-17,-2,2,4,2,-2,-5
23288,-24,-5,2,1,7,11,0,37
23345,13,12,1,0,6,4,5,14
23406,2,-5,3,-1,-10,-37,3,33
23456,16,31,4,4,7,6,6,9
23509,-3,-6,-2,4,8,19,5,11
23563,38,24,6,2,-3,-4,2,4
23615,-29,10,-1,-3,-10,-3,-8,-6
23669,10,-12,2,-3,-2,-3,2,26
23719,10,9,1,-6,-12,-3,5,9
23772,12,26,7,9,12,23,13,32
23830,-10,10,6,8,9,-15,-7,-25
23882,-8,-11,-8,-11,-21,-6,-10,-21
23946,19,32,6,-4,-6,-34,-1,0
24004,-18,-17,-2,12,21,28,0,8
24055,13,-8,-5,-10,-13,-30,-11,-22
24116,7,11,1,1,4,23,5,10
24170,15,-1,-6,-7,-5,-10,-3,-5
24222,18,18,7,7,7,-19,-2,-15
24275,-1,-13,-10,-11,-15,-21,-17,-19
24329,2,15,7,2,-1,-4,4,40
24386,-8,-2,-1,2,5,7,0,0
24447,-1,-3,-2,5,7,-7,1,-2
24497,13,12,0,-2,0,8,5,13
24559,17,4,-6,-9,-15,1,-13,-14
24607,-10,10,5,10,16,13,8,11
24664,-8,10,-1,-2,-7,-5,-2,-13
24718,-17,4,1,7,15,35,4,-3
24771,-16,-18,-3,6,11,15,2,-30
24830,19,9,-1,3,6,3,-2,-8
24891,-7,14,2,-3,-4,-29,-4,0
24942,2,-1,-2,-5,2,13,-4,-36
24994,4,1,2,3,6,10,-1,1
25047,13,13,2,-3,-8,1,1,24
25100,19,-8,3,1,-1,-1,3,-6
25154,-2,-7,-9,-18,-18,-44,-19,-20
25204,2,-20,-6,-4,-5,-2,-5,5
25258,10,-7,5,3,6,15,3,-11
25310,-14,-15,-10,-5,-9,-31,-6,20
25370,30,10,0,1,1,-5,3,20
25430,21,15,0,-3,-4,8,7,10
25481,-22,-34,-5,1,2,15,-3,-27
25534,-23,-3,-3,-3,-7,-45,-14,-15
25587,10,10,6,6,9,8,9,4
25639,-8,7,2,0,-6,-4,-4,1
25693,-8,11,-3,-8,-11,-32,-17,2
25752,1,-8,-6,-14,-14,-25,-15,-3
25819,-1,12,2,8,15,26,7,-3
25886,-12,1,3,1,0,-11,-4,-11
25923,-29,-76,-15,-7,-9,-5,-5,1
25976,1,17,2,4,4,-6,4,22
26030,6,13,-1,2,6,6,0,0
26084,28,23,1,-2,-14,-5,8,30
26135,-2,-3,3,12,16,14,8,-5
26188,-25,6,-1,-5,-19,-45,-30,-30
26240,-4,-11,-3,5,6,3,1,-13
26293,8,8,8,9,-2,-8,-3,6
26352,-13,0,0,3,2,-22,0,-4
26415,3,-15,-4,-6,0,-5,-5,-16
26466,-9,-39,-11,-17,-24,-1,-6,-19
26516,8,-5,-6,-10,-8,5,1,16
26570,-2,-16,-7,-9,-10,-8,-6,2
26631,2,-9,0,-5,-4,4,-4,-1
26693,5,1,1,11,20,9,7,7
26737,6,-1,1,4,3,1,0,-10
26793,-17,-42,-10,-9,-8,-7,-5,-7
26859,-33,-42,-8,1,9,14,-5,-14
26916,3,-7,-4,1,6,23,3,-5
26966,-12,0,0,5,15,20,2,6
27020,17,33,4,3,8,5,7,19
27074,-41,2,4,15,28,27,7,-23
27128,12,-27,5,3,6,-21,-7,-34
27178,9,-5,0,6,9,11,-2,-15
27230,-26,-19,-3,1,-7,-4,-1,17
27296,9,7,8,6,3,4,-3,10
27335,-3,3,-2,-3,1,7,3,-6
27386,6,-5,-6,-5,-6,-6,-4,-9
27439,-12,-7,1,7,12,1,-3,-10
27494,-10,-2,3,4,12,30,10,-6
27553,7,-5,-3,-3,-5,-3,-1,7
27603,17,2,-2,-4,-12,-7,-2,12
27664,3,2,3,1,-1,-6,0,-9
27714,-2,-5,-5,-3,-3,-6,-5,-7
27777,1,-13,-6,-1,-11,15,-11,-4
27838,16,14,3,-2,-1,6,1,9
27898,15,13,9,17,36,52,14,5
27953,14,6,5,4,9,8,3,-7
28005,8,9,-1,4,11,22,6,5
28055,6,14,3,5,5,1,5,10
28107,0,10,0,-2,-6,10,-2,-16
28160,16,26,1,-12,-13,-19,-2,-1
28213,39,38,10,7,5,6,11,23
28266,9,12,8,10,7,-3,6,5
28317,10,20,-1,-3,-8,-15,2,0
28373,-14,-10,-5,-6,-7,6,-7,-13
28422,22,27,4,1,8,18,4,16
28475,-12,-17,-10,-18,-28,-44,-17,-27
28539,3,13,1,-3,-10,-4,-7,1
28595,-6,-17,-15,-39,-77,-58,-38,-19
28656,-26,-16,1,8,-5,-77,-9,-1
28716,12,17,0,-3,3,10,7,5
28768,-26,6,2,-1,2,8,3,-27
28822,5,16,2,0,-4,-17,-7,-1
28874,-1,11,5,7,11,19,11,4
28924,23,18,11,4,5,0,-4,2
28980,23,-2,-2,-13,-23,-9,5,9
29031,-2,-3,-1,6,14,29,9,2
29082,8,-4,-2,-3,-4,-17,-3,0
29135,20,26,6,6,5,1,9,5
29191,-11,6,2,2,2,5,-3,-10
29240,3,-14,-6,-10,-10,13,-2,-10
29293,32,22,2,-2,-1,25,2,16
29344,8,3,-2,3,11,8,1,-2
29407,20,16,-1,-7,-10,-17,-3,4
29458,-9,10,4,4,6,-1,-15,-4
29510,-11,6,0,1,9,28,7,2
29563,-45,-36,-5,-3,-1,-14,-4,-3
29615,-2,1,-10,-29,-61,-78,-31,-13
29667,-17,-9,-3,0,6,2,4,17
29719,5,-12,-6,-4,0,23,-2,19
29771,9,15,0,-6,-8,-7,-3,1
29824,-15,-8,-5,-3,2,-1,-11,-30
29878,-3,15,2,2,0,25,-4,1
29927,26,0,2,4,5,8,10,-1
29990,-5,3,4,8,14,30,6,13
30043,-37,-19,-5,-1,1,-8,-5,-29
30097,22,13,4,1,10,18,6,4
30147,4,-5,-3,3,5,1,7,-2
30200,12,-3,-2,-4,-3,-2,3,2
30252,5,2,1,-1,4,15,2,6
30306,-43,0,4,14,21,28,5,-7
30355,6,28,0,6,10,8,-5,2
30417,-13,-40,-21,-21,-38,-66,-22,-21
30464,-28,-22,-8,-2,-5,-14,-1,-21
30517,-18,-35,-15,-3,1,-5,-7,-4
30567,15,4,-4,-4,-2,5,3,-7
30621,24,7,-2,4,5,7,9,24
30672,12,8,6,3,5,9,6,8
30725,6,10,7,6,9,14,-4,-1
30782,5,16,5,3,8,13,6,15
30831,14,-5,-2,1,-6,-16,-1,-23
30891,-5,16,3,2,-2,2,1,-12
30942,-15,-14,-4,-1,11,24,7,6
30996,29,32,0,4,9,18,0,-10
31053,-28,3,-8,-18,-29,-20,-19,-7
31099,-41,-30,0,-7,-13,-13,-12,-12
31157,-15,-37,-7,-4,-3,-7,-4,-12
31206,-11,-39,-13,-20,-27,-23,-6,3
31265,-16,-7,7,9,14,12,8,14
31325,-1,-9,-4,1,0,-25,-6,2
31376,3,-11,-12,-21,-37,-16,-16,-39
31430,-38,-10,-1,-1,0,0,1,-11
31482,-7,20,6,6,4,6,13,-2
31534,8,30,6,10,13,13,6,-3
31596,25,31,8,9,15,11,13,29
31644,-9,12,10,14,28,52,19,11
31693,-3,10,6,8,22,18,-3,18
31745,15,17,4,1,5,18,2,4
31798,2,-11,-9,-25,-38,-27,-17,12
31849,5,-26,-4,-6,-24,-78,-21,-13
31903,16,-24,-7,-4,-8,-10,-10,-27
31955,9,27,3,-16,-33,-39,-28,-18
32008,9,10,-2,0,2,-1,0,22
32068,-5,-19,0,-3,1,10,-8,-9
32128,-15,0,-8,-25,-43,-34,-22,-28
32190,-2,-21,-6,-4,-9,-22,4,1
32236,22,2,-6,-9,-12,-25,-12,5
32291,19,7,-1,6,13,19,8,-13
32340,-12,12,8,9,2,5,9,-4
32393,-7,-4,4,5,10,6,8,-8
32451,9,3,2,12,26,47,16,31
32515,-4,13,4,6,8,4,8,21
32572,1,38,17,12,20,28,9,44
32626,-49,-114,-46,-29,-47,-109,-30,-35
32676,-7,8,-5,3,10,4,3,14
32729,-14,3,1,5,10,-13,1,-16
32792,5,18,-5,-8,-6,-6,-4,24
32840,-14,15,-11,-36,-65,-68,-26,4
32898,-25,18,5,5,3,-8,0,0
32946,20,23,4,-4,-2,3,-5,-20
32998,5,12,1,1,-3,-3,-1,-20
33060,21,19,14,9,11,13,1,12
33108,-3,-4,3,3,2,-10,0,-1
33171,5,-15,-6,-3,-2,-8,3,23
33232,12,5,-1,-15,-28,4,2,-3
33297,19,18,-5,-25,-43,-11,-14,-9
33341,1,25,-3,-4,-6,-36,-7,0
33398,7,23,2,1,9,18,-6,5
33448,-39,-36,-9,-2,3,-6,-6,-7
33500,9,-17,0,13,25,39,4,2
33554,-23,-25,-6,-1,1,24,20,-7
33610,-9,8,-2,-11,-4,14,-12,-19
33673,3,10,7,12,15,7,1,-25
33736,-19,7,1,1,4,6,0,4
33805,6,-12,2,9,9,39,10,22
33849,-37,-18,-1,9,15,9,16,4
33898,11,-8,-2,-11,-13,0,6,18
33951,25,2,-4,-3,-7,-2,11,4
34001,-6,-1,1,7,14,-3,5,-1
34056,-29,-35,-1,-2,-10,4,-7,-14
34110,8,-37,-2,7,15,8,12,20
34160,-30,-59,-16,-5,-1,8,-4,-37
34215,11,-4,1,-13,-22,6,0,-12
34272,-40,12,-1,-5,-13,-14,-11,-10
34341,-30,-7,3,8,7,-1,-3,1
34386,-52,-71,-30,-19,-41,-76,-31,-25
34438,0,26,3,6,6,33,6,-14
34491,42,25,0,-4,-3,-21,0,23
34553,-8,-54,-26,-49,-63,-49,-20,-8
34602,28,16,4,13,32,38,7,12
34657,-33,-26,-3,-4,3,22,-14,-7
34712,0,17,-9,-19,-26,-41,-24,3
34775,22,32,3,-5,-6,1,-2,13
34837,25,-18,1,11,16,65,23,-13
34897,-5,-15,-2,-4,2,4,8,15
34952,16,19,1,4,10,14,4,-1
35003,17,-15,-10,-12,-13,-11,6,10
35057,-20,-31,-4,2,8,-2,0,8
35108,15,-16,-4,-7,-5,-2,9,25
35159,-2,-5,3,18,33,45,17,6
35222,-10,3,-2,1,-1,-7,-2,4
35285,-27,12,2,2,3,17,1,-22
35342,38,-8,-2,-2,0,0,2,23
35392,-1,-48,-7,0,5,25,2,-10
35443,-30,-37,-37,-73,-105,-83,-76,-24
35497,-11,-11,-12,-21,-14,-30,-15,-1
35554,21,5,0,6,13,16,7,-21
35602,9,16,3,1,-1,-10,-8,6
35655,-9,7,-5,3,11,18,0,-20
35709,-7,3,5,11,20,26,13,-10
35760,-46,-9,-2,5,18,19,3,6
35820,3,-8,-12,-22,-45,-28,-14,25
35887,25,42,7,7,14,23,10,12
35932,8,36,9,8,9,20,8,-5
35987,-4,-15,-1,-3,2,-9,-3,-16
36037,-29,-31,-12,1,13,20,13,-10
36089,16,4,6,-8,-2,8,6,13
36142,1,-80,-14,4,3,5,-2,-29
36194,-32,13,5,10,19,27,5,11
36246,22,44,8,2,4,4,-15,-15
36299,0,17,3,7,17,48,5,15
36351,17,2,-2,-4,-2,-1,-6,-3
36405,35,24,9,8,7,29,4,23
36459,-18,-43,-9,-7,-5,-21,-24,-60
36515,20,-2,0,-8,-3,7,1,7
36577,-14,3,-6,-7,-4,21,0,-18
36636,-46,-7,-1,-2,8,16,8,-26
36688,-4,21,4,3,3,15,4,-1
36747,3,2,-1,-2,-1,-4,1,-14
36794,-12,6,-3,-4,-3,7,1,13
36847,3,20,3,4,-17,-64,-20,6
36899,-20,12,10,-3,-1,-5,-7,-22
36951,7,21,3,-2,1,-2,-1,21
37010,-15,-1,-1,9,2,-20,-9,1
37057,12,-8,0,10,18,26,3,24
37112,2,12,5,2,7,20,4,7
37160,43,49,7,-20,-33,-8,-3,19
37214,39,19,1,-4,-40,18,5,16
37268,49,4,7,10,13,22,14,34
37320,0,7,5,-24,-56,-52,-24,-5
37372,64,4,-5,-13,-27,37,6,38
37424,12,9,-1,3,1,8,1,17
37480,29,3,-2,-4,3,-5,-12,-28
37530,-8,-26,-22,-14,-39,-106,-47,-80
37585,-8,1,-9,-16,-43,-12,-7,-65
37633,4,-40,-13,1,8,20,0,7
37683,-10,4,-1,1,-3,29,5,2
37748,14,5,0,-15,-29,-42,-11,-3
37794,-73,-10,-13,-3,5,2,-11,-27
37849,-9,13,7,4,9,34,14,43
37904,33,-30,-11,-17,-10,4,-5,14
37957,31,3,-1,-2,0,-11,-1,-2
38017,-17,-10,-7,-12,-29,-16,-3,-27
38063,26,-8,-1,0,-13,4,4,5
38111,13,1,5,4,-9,-3,5,-16
38166,34,12,-7,-21,-23,-22,-18,-12
38223,-46,-12,2,3,19,-3,-1,3
38273,20,41,8,4,-4,6,-6,-15
38325,-16,6,5,1,-2,6,-5,-32
38377,-12,3,1,2,25,-11,-6,-13
38438,-2,-40,-14,2,-5,-12,-10,-18
38488,26,9,-4,-4,-31,-80,-17,14
38555,-4,-8,7,6,-8,-6,1,24
38602,1,-2,-12,-32,-43,-67,-21,-20
38656,8,-11,7,11,-9,-8,-10,22
38708,31,1,-2,0,2,2,1,3
38761,-3,-24,3,13,11,6,2,-21
38813,14,5,2,2,13,12,11,-1
38872,-20,-7,-1,5,-2,6,5,-11
38927,0,-6,0,-3,-2,-7,0,-4
38976,44,4,2,-14,-17,20,11,2
39030,-12,12,-4,-20,-43,-46,-32,-45
39096,17,-14,-14,-28,-22,6,9,-3
39142,40,9,9,11,11,8,12,7
39197,-42,-15,1,3,6,12,-14,-36
39247,-40,-11,-3,4,10,-19,-6,10
39301,20,10,-2,-4,-2,5,2,2
39359,-34,-8,-6,-10,-19,-32,-16,-13
39404,-18,-16,-12,0,9,-7,3,-6
39458,2,-19,-10,-4,-2,9,-3,-44
39509,-9,10,7,17,17,12,10,7
39570,17,7,6,-1,-7,-3,-4,15
39634,10,8,6,7,17,42,5,-3
39684,-68,-11,-2,-2,-4,0,-7,-38
39742,9,-2,-7,-12,-4,37,10,33
39792,-27,7,0,-13,-22,-30,-19,33
39847,9,-1,2,2,5,2,3,10
39910,9,6,2,-6,-13,-25,-12,-12
39953,-40,-13,1,10,10,-6,3,-7
40014,-3,-8,-3,6,12,-11,5,-15
40080,-1,8,-2,-10,-19,-23,-1,-12
40133,18,9,6,6,14,40,13,15
40187,10,-18,-7,-7,-13,-26,0,-1
40247,17,17,8,3,2,5,0,18
40301,18,3,-5,-23,-30,-31,-7,-13
40352,-6,-12,-6,-8,-12,-21,-12,6
40408,-36,15,0,-7,-3,10,-3,-6
40469,-14,22,13,17,22,7,9,-9
40521,9,-2,-4,-19,-33,-15,-12,17
40582,6,-10,-16,-25,-32,-32,-22,-25
40627,-18,-11,-9,-6,-9,-13,-11,-15
40682,-16,-14,-6,2,6,13,6,-16
40734,-14,7,7,2,4,12,4,37
40791,13,-14,-8,-5,-10,-28,-18,34
40852,56,-22,-3,-3,-1,1,-5,-20
40904,-5,5,-1,-3,-16,-22,-9,-5
40958,15,0,-2,-8,-18,-57,-14,4
41009,-9,-15,-2,-9,-5,20,0,5
41062,12,-7,-2,-6,-11,-9,-1,-8
41119,5,23,-2,3,9,1,10,-19
41166,19,38,7,-3,-6,-13,-2,14
41219,-59,-19,-11,-12,-20,-20,-15,-43
41280,-24,15,7,12,18,9,10,5
41331,11,17,4,2,-1,22,1,5
41394,-45,-27,-8,-2,-2,-17,-9,-14
41460,5,-6,4,10,20,31,6,0
41530,0,-24,-3,-1,-14,5,2,-16
41574,-10,2,-1,2,9,-1,-3,-78
41635,34,10,1,12,12,3,6,38
41685,13,30,20,5,-7,-96,-24,4
41738,49,-30,-16,-21,-42,-30,1,91
41801,44,8,0,-4,0,-36,-4,27
41840,21,32,11,17,27,-15,10,29
41896,-19,3,22,10,3,-20,-8,-10
41950,-20,28,11,5,-1,-27,-10,-41
42005,-6,45,2,-24,-49,11,-22,-13
42054,-15,18,5,-6,-2,-10,5,7
42107,52,106,35,9,-5,34,19,48
42158,1,23,14,18,19,50,8,-33
42210,-9,-34,-22,-5,-8,6,-1,6
42271,-16,-34,-16,-11,-8,-10,-2,-22
42314,16,-22,-14,-4,-5,10,3,6
42376,16,-12,-1,2,-1,-7,-8,13
42436,-7,-2,1,-2,-13,-75,-24,-93
42489,-21,-25,-17,-7,-9,-23,-1,-32
42544,-70,13,0,-4,6,-12,-21,-48
42592,-1,3,-13,-12,-12,51,4,43
42645,-10,9,1,3,5,52,-12,-33
42698,-14,-17,-15,-12,-2,16,6,-15
42751,-1,12,10,2,-17,-15,-1,-12
42815,5,-7,-6,0,26,-1,-4,4
42853,20,13,15,8,-10,15,3,-8
42917,-5,0,12,-11,-20,6,9,-1
42976,-23,7,5,15,59,34,10,-24
43035,33,-8,-27,-20,-15,9,-1,10
43088,-12,-19,-2,7,6,0,-1,-1
43145,-13,-16,-4,3,9,32,2,-28
43200,4,-28,-18,-7,-3,14,7,48
43261,-20,7,0,-1,-5,-15,-4,-96
43325,-12,-12,-17,-38,-49,-34,-17,-47
43375,-1,-44,-10,-12,-19,-4,1,1
43428,-17,-19,-14,-17,-9,-14,-2,-24
43478,-10,3,3,0,-11,-19,-10,-39
43530,10,-13,8,6,9,40,7,-10
43583,3,17,10,1,1,-2,-9,3
43635,3,36,42,5,-12,0,-1,4
43693,7,-21,-20,-1,23,-1,8,-8
43741,10,63,32,3,14,8,-6,-8
43805,-35,-15,0,-3,-20,-6,5,-9
43862,2,50,30,12,13,-1,-16,-75
43911,9,-7,-2,-5,-4,27,8,2
43967,17,5,17,9,5,6,4,10
44019,26,24,29,4,-4,14,6,2
44068,5,30,13,15,24,4,10,21
44123,-11,-4,-5,-7,-16,10,-13,-17
44181,5,18,5,3,13,9,-2,21
44241,5,14,5,-4,-19,-15,0,36
44288,18,27,15,7,0,-10,6,48
44339,0,25,17,12,25,23,6,-48
44401,0,-49,-19,-2,-3,-2,2,-16
44461,-29,-24,-11,-9,-8,-19,-13,13
44515,-1,-1,0,-1,-2,5,2,-61
44566,-31,-7,-7,-6,2,4,2,-14
44618,14,21,9,5,37,-8,4,47
44670,22,15,9,21,37,11,12,23
44726,-14,-20,-7,9,29,26,9,-6
44779,0,-9,-7,-1,3,12,-3,-12
44829,-18,-14,-5,-13,-27,-33,-4,5
44880,10,1,-4,-9,-30,-24,-15,26
44933,10,-16,-17,-14,-15,-20,-7,10
44989,-7,13,7,7,13,18,5,16
45037,-24,-36,-11,7,14,16,-4,-46
45090,11,7,3,5,2,12,0,3
45142,2,0,6,-3,-7,-6,0,-12
45197,3,11,10,11,25,21,3,-18
45259,9,0,0,-12,-21,-26,-8,-20
45301,-25,-30,-10,-8,-12,-5,-11,-76
45352,-1,22,18,16,25,27,2,9
45406,-17,6,7,4,-2,2,-3,-12
45460,3,23,13,7,3,2,-1,-11
45512,13,-2,2,1,2,4,1,-7
45562,-7,-21,-14,-7,-9,-3,-4,8
45614,3,-9,2,3,1,3,6,22
45677,-13,-19,-23,-22,-28,-46,-20,32
45733,-7,-12,-7,-5,2,-2,-1,-6
45789,6,12,-11,-15,-25,-9,-5,56
45849,10,10,5,9,12,-22,-2,-58
45912,-17,3,15,6,-2,22,6,-37
45962,10,17,-2,8,15,17,0,-6
46016,18,-8,-9,-21,-37,-30,-13,24
46065,10,23,8,6,6,4,2,2
46119,-6,-4,0,5,9,5,3,11
46170,-6,-30,-7,0,-1,-1,-1,11
46223,30,-1,-3,-5,-3,-7,11,23
46283,5,-12,2,-8,-13,-23,-19,10
46338,-32,-40,-5,-7,-13,-10,-16,-35
46394,-23,-5,-6,-6,-12,-26,-16,-2
46448,16,2,10,4,1,3,6,12
46500,18,69,12,3,3,3,4,61
46554,-69,4,-9,-28,-51,-21,-25,-61
46611,-18,-9,12,10,14,13,-6,-34
46658,-14,18,21,12,18,12,10,17
46711,-9,-23,-11,-4,-13,-3,-2,-48
46773,22,53,11,-8,-15,-5,-1,13
46831,-5,24,9,-6,-6,-25,-7,-10
46882,-2,2,6,-1,-9,-9,0,26
46937,22,72,32,4,8,8,5,27
46988,18,-24,-3,6,13,13,10,53
47040,5,27,8,7,9,0,7,7
47105,16,-10,-14,-3,-1,-5,4,47
47151,3,-23,-4,-2,6,6,-2,5
47208,6,-22,-6,3,-4,20,0,-29
47258,-10,-4,-4,3,6,21,3,-33
47309,17,8,8,6,11,-7,-7,36
47372,-5,-5,-2,7,8,5,6,7
47431,2,-4,-4,-11,-18,-11,6,74
47483,0,23,6,4,10,12,9,14
47536,-13,29,24,0,-4,1,-11,-29
47588,-4,-5,-7,7,14,14,7,-12
47641,-8,11,4,-6,-9,-1,-10,2
47694,-9,-5,1,9,18,16,12,14
47753,-25,8,-6,-16,-30,-29,-18,-26
47813,15,15,7,-1,-9,-5,0,-12
47871,-23,-29,-5,0,5,1,-5,-14
47919,-20,-17,-5,-7,-11,4,2,34
47971,29,34,13,7,6,3,10,14
48023,-3,14,0,-4,3,4,6,71
48076,17,9,-5,-4,-6,8,3,33
48128,-5,-14,-14,-3,-2,20,-2,-57
48185,44,35,3,-1,0,3,6,27
48233,-46,-29,-8,-1,0,-11,-15,-76
48293,29,48,15,8,9,8,14,88
48355,16,8,4,1,7,9,5,19
48413,-10,8,-3,-3,0,-8,-9,-34
48464,-59,-29,-8,3,7,1,-4,-56
48521,0,-3,0,16,19,-13,7,-16
48571,-3,19,3,11,13,19,3,-38
48624,-20,-14,0,-1,-2,1,-4,15
48677,21,9,2,4,4,-11,5,37
48738,-30,2,-15,-25,-29,-10,-13,3
48782,17,7,-5,2,7,4,-4,-69
48834,-1,-9,-5,2,8,8,5,-9
48894,0,12,0,5,4,11,4,29
48957,4,4,-2,-3,-6,13,8,-4
49013,13,-3,-3,0,2,15,4,37
49066,-8,-5,-8,-13,-28,-16,-13,-30
49119,-36,-39,-9,-2,-4,7,-1,12
49171,-26,15,6,2,4,-3,2,-61
49227,-9,24,4,9,9,-6,0,-11
49277,15,3,-1,-10,-20,-21,-2,29
49340,0,17,3,2,3,12,-1,-21
49397,16,70,16,12,4,-1,7,43
49457,-1,8,-1,1,2,-1,-11,6
49512,13,23,1,-11,-22,18,-3,-10
49563,-9,-14,-1,-1,3,-4,-9,9
49615,4,-15,-7,-15,-20,1,9,15
49665,6,17,2,6,10,11,12,17
49719,-9,-7,-2,-8,-13,-7,-11,4
49772,-10,-25,5,4,7,-12,-5,8
49823,-18,-21,-7,-11,-34,-102,-27,-39
49876,-16,19,14,12,19,18,7,15
49935,26,42,24,10,4,-22,-7,-4
49990,-6,-4,-17,-23,-35,2,-16,-38
50043,10,-27,-1,6,13,35,11,89
50094,28,13,-1,-6,-10,-10,2,41
50147,-9,13,-9,-23,-22,14,2,0
50200,-4,14,-12,-21,-34,-69,-30,33
50254,1,14,7,1,-3,-7,11,20
50306,0,4,-1,-3,-2,8,0,7
50361,0,-11,-2,-4,2,-14,1,13
50412,1,56,7,5,2,8,-1,-52
50463,12,12,-2,14,35,48,13,-2
50526,-2,-9,1,6,11,8,6,-5
50592,-24,-36,-9,-3,-2,-1,-2,-43
50643,4,12,0,7,10,19,16,-7
50699,17,-25,-10,-8,-24,0,1,2
50746,10,-19,10,-14,-43,-2,-20,4
50800,-18,-14,-2,1,3,2,5,9
50852,15,3,4,1,4,-9,-5,0
50906,2,7,0,1,1,-1,-1,4
50956,6,44,-3,-15,-12,4,6,-17
51011,-12,-3,-10,-9,-5,-15,-4,-8
51067,-6,-5,3,-9,-23,-38,-25,-35
51122,15,17,4,-1,7,10,2,6
51182,-4,-3,3,7,2,2,20,31
51232,-6,-6,-7,6,32,43,9,3
51286,-16,-19,-11,-25,-57,-80,-24,-13
51349,7,9,3,-3,-8,-4,-2,-3
51392,-30,-65,-3,10,11,-21,-9,-31
51451,-19,-13,-18,-39,-90,-79,-58,-58
51497,50,50,14,39,51,46,37,8
51555,-10,12,-2,11,19,9,-1,-12
51602,-16,-44,-4,12,35,68,35,-8
51663,5,13,-1,-5,-4,-23,6,18
51727,4,-2,-3,-5,-9,-12,-5,18
51776,-22,-27,-1,-1,-1,2,-1,-7
51830,3,6,14,9,27,26,15,10
51879,3,-3,13,38,39,8,18,14
51934,15,21,5,7,15,25,12,19
51985,12,35,14,5,10,12,-2,-5
52037,-4,-13,-2,14,25,30,9,3
52088,-22,8,2,-2,-24,-70,-24,-29
52139,-12,-90,-18,-14,-27,-47,-15,13
52207,-32,-15,2,1,-1,-68,-15,-54
52265,13,21,-4,-8,-17,-29,-5,-11
52323,21,37,9,0,0,28,13,3
52377,-37,-39,1,18,32,15,9,-16
52428,46,92,13,-39,-44,16,14,15
52479,16,-68,-7,11,16,20,8,-4
52531,17,31,16,21,32,4,13,88
52585,-8,4,3,2,-14,-61,-31,-30
52641,18,-9,-12,-29,-43,17,6,35
52689,33,63,10,-9,-18,-5,19,7
52751,-18,-16,2,11,20,-6,-4,-15
52801,-3,-39,-11,-8,-6,-4,5,49
52862,-23,-40,-16,-24,-46,-13,1,-7
52922,-8,-34,0,-6,-11,-10,-4,-2
52968,7,-20,-7,5,7,3,11,18
53025,9,9,-1,2,8,18,-1,11
53079,-5,29,3,5,3,-1,0,-23
53132,-17,-15,-3,-1,14,-1,4,7
53198,-24,-23,-8,-20,-36,10,-19,-2
53244,-5,-22,-5,-7,-14,-9,-11,19
53305,28,34,-3,-11,-30,-46,-38,-10
53357,-9,-16,-2,-2,-11,-17,-11,-6
53410,13,-17,-14,-52,-96,-67,-19,22
53469,7,21,-1,9,20,7,7,-1
53514,12,5,3,5,-2,21,1,-9
53566,7,13,15,18,33,-5,8,-26
53620,14,38,10,19,37,91,18,23
53678,8,13,8,-13,-27,-7,-4,53
53725,-11,-19,-1,-3,-16,-61,-24,-41
53778,-10,-44,-14,0,2,9,3,-25
53831,1,11,-13,-25,-42,-34,-10,3
53883,8,-15,-4,6,-10,-20,0,30
53936,10,-16,8,11,13,20,1,18
53986,-10,-53,-13,-7,-15,-18,-9,-4
54047,-8,-2,-3,-5,0,-16,-5,23
54101,3,-32,-6,1,4,-2,11,32
54153,1,4,-5,-6,-14,-18,-18,-10
54209,6,40,19,4,0,-2,-7,4
54258,2,-7,-4,-1,3,7,1,13
54316,5,-7,-10,-26,-48,-83,-18,9
54376,4,34,4,-11,-19,-10,-3,-13
54422,10,20,11,2,7,-16,-4,9
54473,-2,-12,-2,2,3,16,0,-40
54528,-2,0,2,-2,-9,-6,-2,0
54584,-13,5,3,-1,-7,0,-11,-14
54632,1,21,4,-15,-26,-18,-23,24
54695,-1,27,0,-12,-12,-2,-23,-13
54752,-3,-5,-5,0,-1,1,-1,25
54805,-12,-11,0,1,-5,-30,-3,26
54862,28,7,7,-6,-24,-37,1,11
54910,21,-10,-13,2,2,-29,-2,44
54966,-3,3,1,3,5,-7,0,-3
55015,29,23,-1,-14,-21,-26,-7,21
55069,-3,-26,-5,6,12,-2,6,25
55120,-9,-25,3,4,11,5,4,7
55174,1,-31,-15,0,17,-3,2,-14
55232,16,22,3,11,14,21,9,12
55293,-32,17,6,-3,11,-3,-10,4
55352,-13,2,2,-10,-14,5,3,14
55413,35,3,6,3,-9,2,8,-5
55460,-15,-25,-19,-2,-12,-1,-3,-14
55511,-57,-24,-8,-17,-65,-12,-7,5
55565,-40,-1,-2,-14,-21,-19,-20,15
55621,-29,-35,-17,-11,25,0,-3,-15
55676,4,20,16,14,68,10,8,19
55728,-1,-13,-4,-13,-31,-2,-5,-6
55780,32,-34,-16,-9,-28,-4,3,41
55833,32,19,7,-5,-9,-47,-15,23
55896,-8,13,7,3,-22,-26,-1,-47
55962,-28,-6,-12,-12,-15,-17,-9,-14
56010,5,2,-3,0,3,3,0,4
56059,13,12,5,0,-6,3,0,-2
56117,-11,13,-2,-13,-11,-13,-17,-28
56170,4,18,-7,14,25,26,17,20
56228,-5,-6,-1,7,11,0,2,-81
56283,-1,13,0,-2,-11,3,0,-15
56339,10,12,4,9,6,23,7,-4
56400,5,0,-3,2,16,39,12,2
56454,-20,30,17,9,11,15,3,-9
56512,-42,-9,-3,-5,25,-28,-20,-24
56565,-15,24,14,9,20,20,3,52
56613,18,-7,1,22,80,20,-5,43
56669,-21,-16,-9,5,46,-5,0,-8
56725,-3,9,4,-4,-17,-47,-12,-13
56782,1,24,9,11,17,27,13,-39
56830,-15,0,-1,10,-3,-10,15,7
56886,18,10,-1,6,-4,-31,-1,30
56938,-7,-5,7,5,16,10,5,10
56988,-12,-14,0,0,1,2,-6,7
57041,12,2,2,9,29,12,5,2
57099,38,37,21,11,13,4,-2,47
57162,-20,8,2,-10,-19,-42,-21,-36
57228,-25,-17,-4,-1,2,4,1,4
57281,10,-4,-2,16,38,7,6,-11
57332,3,15,1,10,22,19,11,-2
57386,4,-31,-12,-8,-20,-6,-5,15
57438,17,5,1,-9,-12,32,-9,-29
57490,9,-1,-3,-5,-7,0,0,20
57543,22,3,-2,2,8,14,-3,-5
57597,-38,-19,-7,-8,-10,-14,-8,-51
57652,13,0,1,-5,-8,-12,2,15
57702,-6,-3,-3,-7,-8,2,-3,-29
57753,2,20,6,-5,-11,38,10,17
57815,2,4,-3,5,15,43,23,41
57866,6,11,1,-2,2,-3,-8,-4
57918,-60,-1,-5,10,24,51,21,-53
57978,2,-29,-9,-9,-12,-16,-11,-10
58030,-36,-12,-1,5,13,30,5,-12
58091,5,-26,-5,1,1,12,4,17
58138,1,10,6,-6,-15,-35,-8,6
58194,-4,-9,-9,-26,-39,-28,-11,19
58242,5,-9,5,8,1,-1,-3,43
58298,8,20,2,6,16,28,11,-4
58350,10,6,1,4,4,25,10,-13
58409,33,4,-4,-15,-24,-14,-6,-4
58467,11,-60,-14,7,14,0,12,-42
58518,9,-7,1,2,1,-9,-1,-7
58571,-4,1,-4,7,12,27,4,-12
58629,13,12,3,0,-6,-6,-2,6
58681,-10,-17,-6,-1,-4,-4,-2,-13
58745,-25,-9,1,-1,-3,-7,-3,13
58804,0,-1,-1,3,10,23,5,9
58854,-12,1,-3,-1,7,14,2,-57
58907,-6,-1,1,-3,-9,-11,-3,0
58964,23,32,10,4,-3,-12,5,-4
59012,-7,5,5,8,16,12,14,13
59076,-14,22,1,1,6,7,0,-2
59134,17,3,-1,-1,0,11,4,24
59186,-15,26,8,-2,12,2,-13,-46
59248,12,-4,-3,4,12,28,8,-34
59298,-15,23,9,0,35,-5,6,14
59351,8,-30,-17,-7,1,32,8,-12
59403,12,-4,3,8,-15,30,21,60
59455,9,3,0,8,-2,6,4,-17
59511,13,7,1,-11,-17,-8,1,67
59567,-11,-27,-15,-34,-99,-28,-13,-19
59620,-14,8,7,16,25,9,14,-15
59676,-3,-12,0,-2,-3,2,0,18
59731,41,-18,-8,-6,5,4,5,19
59779,16,-13,-17,-21,-24,14,-15,-19
59837,-4,-13,8,3,14,28,7,-15
59890,8,-4,-4,-7,-5,10,7,32
59945,6,5,3,1,-3,-12,-4,11
60006,-24,-16,-9,-8,-8,-8,-7,4
60059,-11,-10,-2,4,9,22,8,10
60111,-9,9,3,-5,-4,7,-5,-28
60161,1,50,23,5,11,8,3,-11
60214,20,-7,-3,0,2,21,8,-1
60266,-7,-2,-6,-6,-16,-51,-28,-30
60319,-31,-16,-11,0,3,-24,-6,-18
60371,-4,30,33,14,12,15,1,13
60421,19,-46,-25,-9,-27,5,-2,-61
60484,7,-13,-10,-5,-9,4,-2,-9
60548,-35,-17,-4,-2,15,9,-9,-57
60594,-33,9,18,8,18,4,1,9
60654,-4,-29,-20,-2,18,6,-5,-18
60701,0,-4,-1,5,4,4,4,-40
60755,12,1,-5,-3,-11,0,-2,26
60808,-60,-4,-3,-9,-2,-23,-27,-73
60865,6,-5,0,-4,5,-4,-5,-12
60924,43,24,16,-3,-7,4,3,8
60973,11,-4,-5,2,12,-4,3,17
61032,36,25,5,1,7,3,13,67
61084,41,-2,-7,-13,-19,-16,-7,5
61138,-5,-10,-15,-3,-2,3,2,12
61189,24,27,16,5,0,-4,-8,-29
61241,2,3,2,0,-2,-21,1,5
61293,-16,-12,-6,-5,-3,-2,-16,16
61346,-25,-9,-4,-4,-9,-44,-5,-15
61399,-31,16,3,-1,1,8,-2,-23
61451,8,15,7,5,3,-12,-1,-45
61511,-49,-40,-9,-8,-7,-11,-10,-47
61556,-7,3,-6,-3,-5,5,-2,8
61607,32,14,7,9,13,27,8,-2
61660,7,-9,3,-4,-9,-10,-7,12
61722,-8,-7,-1,1,1,2,-1,-18
61766,12,-8,-2,-1,2,-15,-3,-3
61819,-9,18,-2,-3,-5,-3,-6,-6
61872,5,7,6,4,5,7,-2,-16
61929,-6,10,-1,-6,-7,-6,-8,6
61976,1,-6,-5,-9,-7,-12,-5,-12
62032,-30,-8,-4,0,1,-6,-9,-28
62081,9,20,3,-3,-4,-6,-2,3
62135,-5,7,-6,-1,4,-2,2,5
62202,-27,3,2,4,6,-3,1,-33
62247,22,5,1,0,-6,10,-7,-3
62303,-8,0,-2,8,7,1,-5,9
62351,-7,3,-2,-1,-1,-1,-5,-15
62405,10,-1,-2,-2,-5,-22,0,8
62456,-15,-14,-10,-1,1,1,-3,-9
62509,2,-4,-2,0,0,4,-1,0
62562,14,-13,-6,-7,-5,-13,-4,3
62620,-73,-27,-3,7,20,43,8,-17
62683,-12,-7,-7,-12,-13,-5,-5,-20
62735,32,-8,0,-1,1,-8,-3,3
62802,2,-3,-2,5,8,2,6,-19
62856,28,-2,-8,-20,-34,-20,-5,3
62906,-24,4,0,-7,-9,-14,-12,-17
62959,8,-3,5,6,3,-25,3,30
63012,4,14,-4,-18,-22,-60,-14,13
63064,21,3,3,3,5,14,9,0
63120,10,28,1,3,7,26,0,-18
63175,-34,-2,4,8,15,12,1,0
63244,-4,5,3,3,2,-31,-9,-24
63296,3,0,-5,-5,-3,-32,-8,12
63351,-13,1,3,10,16,42,11,-11
63404,-10,2,5,11,18,32,13,20
63454,6,13,10,14,19,9,15,58
63508,-1,1,-2,4,4,0,2,-7
63560,-10,10,2,4,13,18,1,-8
63619,-34,1,-6,-4,-4,-3,1,-24
63686,9,-12,2,1,-4,-60,-16,-4
63740,-8,2,-3,1,3,6,3,5
63791,7,-34,1,5,5,-10,3,10
63845,-4,1,6,7,5,2,4,16
63897,2,21,7,7,10,12,6,3
63954,1,14,1,7,12,18,7,-6
64002,5,2,-12,-13,-13,-4,-14,41
64060,7,24,12,9,12,11,5,-12
64115,10,18,2,11,17,20,11,15
64169,-7,0,1,6,10,8,4,-33
64227,3,-13,0,-3,-4,-8,-3,-1
64281,10,4,-2,-9,-17,-6,-2,-6
64339,16,19,-4,-1,-9,-59,-15,3
64399,1,27,5,4,7,32,11,9
64451,9,-10,0,1,4,0,1,18
64504,-22,-2,-9,-17,-18,-7,-7,-2
64561,37,29,12,14,19,-1,7,14
64616,2,-17,-5,4,10,9,3,21
64663,0,14,2,-1,1,24,3,6
64720,3,4,3,2,8,-10,0,12
64783,-31,-17,-4,-1,1,8,-5,29
64843,-4,30,5,-2,-9,-47,-12,-10
64903,-8,9,4,5,8,24,10,34
64956,2,10,2,5,10,12,4,-3
65016,-12,31,4,5,17,42,1,-28
65067,-32,-98,-18,-5,-9,-23,-22,-2
65121,-3,-77,-8,2,5,8,6,-12
65177,5,-27,-7,-5,-3,11,0,-23
65238,13,-2,6,3,13,28,9,5
65300,0,-28,-7,0,-5,-4,5,-15
65351,0,-40,-11,-3,2,9,-1,23
65406,18,41,8,9,11,28,8,17
65462,3,15,-2,1,-1,-7,1,1
65523,-3,-6,-1,4,5,-9,1,-3
65590,18,14,1,-5,-23,-69,-17,0
65646,14,8,-1,-4,-7,24,6,8
65696,11,-3,-6,-8,-22,-63,-19,-3
65749,8,14,-2,-5,-10,-10,-6,13
65802,15,24,5,-1,-2,8,-4,-7
65855,-2,-4,4,7,12,22,7,36
65909,-8,-19,-5,-3,-10,-68,-13,-6
65967,-21,18,3,7,5,3,8,24
66011,-3,-3,-5,0,0,9,3,-11
66066,4,13,-4,-6,-19,-44,-13,-1
66122,10,33,6,-3,-2,15,1,13
66185,21,-11,-4,-7,-4,-7,6,32
66237,-16,-21,-4,7,8,-1,5,-5
66290,12,-1,-1,-7,-9,-11,-2,11
66343,-24,-13,-8,-2,-1,1,-4,-1
66406,20,19,5,3,3,21,7,28
66454,-9,-10,-4,-5,-8,1,-4,-12
66508,-7,24,1,-1,4,6,0,14
66570,-1,0,-4,-4,-4,-2,-3,0
66635,1,10,7,4,3,5,-5,-11
66680,18,34,4,-9,-15,-16,-10,8
66734,3,26,4,7,3,-3,-1,22
66788,10,-6,0,-2,1,14,4,12
66845,-19,-19,-7,-19,-27,2,-10,-17
66900,7,6,5,-1,-4,-1,-6,2
66951,2,3,5,1,-2,21,4,-15
67004,-11,18,2,2,-1,0,3,16
67057,8,19,3,2,0,-6,0,-2
67109,3,-3,4,-2,-10,4,-6,2
67169,-10,-14,-4,5,13,24,4,-9
67230,-17,-16,-6,-6,-7,-4,-6,3
67289,38,3,2,-1,-1,-9,-11,-14
67340,1,-13,-5,0,5,14,6,-4
67392,-16,16,3,-15,-18,-9,-13,0
67445,10,22,6,2,4,-6,2,6
67501,3,6,-3,-8,-9,-3,7,-7
67551,12,-9,-8,-6,-4,6,4,13
67608,8,4,0,-4,-6,-14,0,8
67671,1,14,-2,-4,-7,-24,-13,-18
67735,7,24,11,5,5,-4,2,11
67790,0,7,7,7,8,10,2,14
67845,-29,-35,-15,-5,5,-9,-2,-9
67902,-8,-2,-1,0,10,-6,-9,-22
67954,21,6,12,14,34,7,-1,11
68005,-22,-20,1,-25,-46,-46,-25,18
68055,18,-3,-21,-12,-34,6,7,26
68105,-31,11,-22,-11,-5,-2,-6,18
68166,44,28,7,5,13,-2,-3,-19
68225,27,41,21,7,37,11,1,12
68279,16,-13,-9,-11,-5,-16,-6,-6
68337,6,-7,-6,2,24,-14,4,-4
68389,-2,0,3,3,13,-2,6,-11
68446,-30,-14,-5,-4,7,-3,-6,-21
68502,0,-4,-4,4,29,10,12,2
68561,28,21,19,14,15,25,12,25
68608,81,6,-9,-17,-32,-12,-9,20
68666,58,-9,-2,-3,-11,-29,-12,-4
68730,7,-7,-1,0,4,13,5,9
68793,-33,-2,-3,0,8,-11,-1,-50
68840,0,20,0,-2,-7,-14,4,12
68893,6,-19,-13,-21,-33,-52,-23,10
68944,12,15,5,1,2,11,3,15
69000,-2,-4,-1,9,10,5,2,7
69048,-11,-37,-7,1,9,1,-6,-13
69111,-18,-47,-12,-5,0,-11,-1,-31
69163,-3,6,6,0,-4,-3,4,-6
69224,-18,-4,3,-6,-6,11,0,-10
69270,0,-6,-2,-4,-9,-3,-9,-8
69321,0,-27,-2,2,-1,2,0,7
69372,-59,8,-4,-12,-21,-22,-11,-5
69427,-24,1,4,4,6,11,-1,-24
69479,-15,-8,1,3,7,21,-2,-16
69530,29,26,11,11,6,5,7,64
69582,14,28,5,2,1,3,1,13
69634,-2,-9,1,10,9,-15,2,-3
69697,-12,7,3,5,11,12,1,-25
69757,17,-4,-2,-3,-7,-32,-6,7
69800,-11,3,4,0,-5,-11,-2,-4
69857,-4,5,1,-3,1,-44,0,-28
69905,-5,-34,-4,5,5,8,7,12
69957,14,1,0,2,10,12,12,4
70012,15,24,7,-1,3,13,-1,-12
70062,46,33,11,0,2,5,4,14
70116,-16,-45,-11,-5,-7,-2,-8,29
70171,3,-8,4,5,6,9,7,-10
70228,-9,-21,-11,-15,-9,-4,2,-13
70283,-1,15,-1,-4,-6,9,-10,6
70333,13,0,3,-10,-26,-42,-5,-1
70387,69,5,4,-2,-7,-31,-3,40
70437,-4,-16,-2,1,8,14,4,-2
70497,1,19,-4,-10,-14,-24,-7,-30
70559,-16,-10,-1,2,8,7,-4,1
70612,3,-14,-3,-6,-6,-7,-5,73
70666,-18,29,9,2,1,-3,-13,0
70715,10,-12,2,4,10,18,2,-4
70767,9,5,5,2,4,-11,6,3
70819,-16,-21,-7,-5,4,12,4,5
70874,0,0,-2,1,9,37,9,16
70927,-8,7,-2,-4,-7,-10,-7,-32
70977,0,-11,-6,11,10,16,3,-32
71038,-20,-19,-8,-10,-3,-8,1,8
71103,0,-9,-3,-4,-2,3,1,8
71151,-17,4,10,10,7,16,1,-19
71204,10,31,6,-3,-8,5,-8,-2
71257,-25,26,10,5,-2,7,-17,-3
71308,-16,-13,-3,4,6,2,5,-7
71361,12,-3,2,9,14,13,25,-13
71418,-32,-19,-10,-8,-10,-15,-4,-38
71481,-2,-64,-17,-6,-4,15,0,17
71541,-12,-35,-4,-19,-24,-3,-12,-18
71599,13,-26,-15,-3,2,-20,-2,-11
71647,-11,-23,-10,-4,-1,-1,3,3
71699,17,-15,-5,12,17,44,14,0
71751,6,-5,-2,-23,-30,-26,-22,-6
71804,7,10,-1,0,6,-12,4,14
71863,8,-42,-28,-8,2,-12,-2,21
71909,-14,19,14,9,7,-7,11,-30
71964,-16,-5,-3,-6,-14,-17,-12,-46
72019,-15,5,7,1,-19,-6,-13,-17
72081,-5,-18,-10,-4,2,5,1,-9
72141,-11,23,10,1,-10,-4,-14,-31
72194,4,10,12,8,20,6,12,-9
72256,11,31,10,1,-2,-15,-7,15
72299,20,32,12,6,12,17,-1,1
72354,-10,-27,-16,-4,1,-10,-8,-42
72412,-5,26,12,6,16,30,4,-20
72464,8,-36,-3,11,14,14,12,10
72524,-7,14,17,-4,-9,-5,-8,-11
72585,2,7,11,7,7,-16,4,13
72646,11,15,9,-5,-15,-5,-3,29
72691,11,2,6,5,4,4,2,30
72745,-3,8,10,7,2,4,0,3
72794,-12,12,2,1,9,19,3,-10
72846,9,-9,-1,3,8,11,9,2
72905,-28,-29,-12,-1,-14,-6,-9,-43
72951,-16,-75,-38,4,21,17,20,105
73004,14,-1,2,-9,-21,-4,8,6
73062,31,11,7,-2,-29,-3,2,33
73124,11,-10,-10,-7,1,-2,-2,23
73184,-14,33,5,1,17,0,5,32
73236,-14,17,11,-2,-2,0,-14,3
73290,24,10,2,-7,-29,-5,1,30
73341,-23,-9,17,14,-2,-3,7,-22
73393,15,17,11,3,11,12,6,27
73447,93,5,-4,-1,-20,0,1,-21
73501,-19,-48,-29,-21,-23,-13,5,11
73551,7,-9,-5,-3,-1,4,1,0
73605,5,12,7,1,-3,-3,5,8
73668,-20,-14,-4,4,12,16,1,-39
73716,-29,9,-3,8,22,38,12,-3
73769,25,58,29,7,3,2,2,11
73832,4,2,1,9,13,30,4,34
73883,39,0,-4,-8,-11,-10,-8,-20
73933,-13,-8,0,-7,-13,-23,-10,-17
73999,-5,6,-4,-14,-25,-1,-4,-10
74053,-11,-4,4,6,5,11,-2,-27
74104,32,-11,-16,-4,-2,-5,-3,5
74167,-9,-8,-6,-2,2,18,9,5
74228,-12,-14,-6,-2,3,-2,-5,-19
74277,-9,0,0,5,1,4,-3,-10
74332,-17,-11,-9,-3,-1,-12,-9,-15
74387,43,-1,3,9,10,10,5,45
74443,-14,2,0,7,-2,16,10,-3
74499,28,6,-9,-11,-18,-12,-10,-26
74553,28,-11,-10,-3,0,1,-7,10
74609,-39,1,1,-3,-3,2,1,-6
74670,7,10,0,-2,-10,1,2,15
74731,11,23,7,3,3,6,3,13
74790,18,8,7,-1,-8,-27,-12,-54
74844,20,12,9,3,1,-6,-5,15
74908,0,0,-2,0,-1,-1,-8,-12
74969,-2,-11,-10,-16,-29,-29,1,10
75020,-36,-21,0,2,0,21,0,-14
75080,10,-5,-1,9,10,1,10,55
75127,-16,8,1,0,2,1,0,-19
75182,-21,-4,0,-7,-15,-11,-4,-64
75233,-13,11,1,3,6,25,7,-12
75288,-3,-11,-2,8,22,19,10,73
75351,-10,0,-1,-5,-7,-13,-5,-16
75414,0,5,1,-3,-3,-10,-5,2
75463,2,10,-10,-28,-44,-37,-25,-15
75524,-47,-11,-3,-4,-2,16,2,19
75580,18,-3,-1,1,3,6,-4,-58
75629,12,-1,-3,-6,-2,-6,-7,-10
75683,1,-17,-8,-6,-5,-4,0,1
75745,12,-7,-5,-5,-5,-9,-3,7
75793,13,7,-1,-6,-13,-10,-5,-7
75846,-3,-1,4,10,12,16,6,-27
75898,-4,13,-2,-2,3,-28,-2,-5
75951,-6,11,0,6,1,22,-1,-34
76013,11,4,-2,-13,-24,-42,-34,-28
76059,0,-14,-7,-4,-2,5,-4,-1
76114,3,-10,6,-2,-3,-28,-13,-18
76171,42,57,4,4,4,-3,0,18
76220,-14,-2,3,4,-2,-23,-4,9
76275,-3,-30,-12,-4,-2,1,1,-3
76328,-16,7,0,0,2,-8,3,4
76377,5,-6,-3,-9,-11,-3,-4,0
76432,-14,15,2,2,3,7,4,-9
76488,-16,-60,-11,2,4,4,-1,-11
76544,1,-3,1,1,3,-5,1,-3
76597,-7,-35,-8,3,4,13,2,14
76649,16,5,-4,0,8,-37,-11,-10
76706,-13,-19,-9,-15,-33,-16,-16,-9
76770,11,29,6,3,11,7,-5,24
76821,0,23,2,1,7,19,4,-18
76874,14,19,0,4,4,12,1,-13
76931,19,44,8,-4,-15,-2,-9,3
76979,2,-4,-4,-7,-6,10,0,5
77031,-15,10,-5,-14,-24,-67,-24,-14
77084,-8,-16,-1,-1,-1,1,-1,5
77137,-39,-31,-5,-1,0,2,1,-6
77196,25,19,11,14,22,29,13,11
77243,9,22,4,0,4,4,2,-3
77299,-10,-2,-1,0,-20,7,6,26
77347,-10,0,0,-9,-17,-2,-5,-14
77399,7,-30,-13,-7,-7,-5,-1,-38
77449,-2,-26,-7,-7,7,-5,2,18
77504,23,18,23,10,59,-24,-3,96
77557,4,13,8,6,9,23,7,-10
77618,-4,-3,-5,-5,-9,-2,6,21
77670,8,8,-3,-4,-10,-6,-1,15
77723,-9,5,5,-3,1,-9,-7,-53
77774,16,55,2,2,8,24,5,10
77827,2,-17,-10,7,18,10,11,35
77880,2,-2,16,4,1,-12,-9,-23
77939,3,-16,-5,-9,-13,-11,-1,2
78000,-17,-18,-10,0,15,-18,-2,-23
78050,-3,-4,-11,2,16,-3,0,3
78106,-9,6,3,0,-2,25,3,6
78157,-19,20,16,4,3,8,-8,-90
78209,-9,-14,-9,-3,0,-7,-7,8
78262,-3,2,-2,-5,-7,-5,-4,-2
78313,0,-2,-5,-5,-10,0,1,17
78368,11,3,-1,-3,0,7,2,21
78419,-29,-69,-12,-13,-23,-42,-20,12
78479,3,8,11,8,9,-11,-5,-1
78541,15,27,-5,-6,-10,6,8,-2
78599,-7,10,10,12,13,51,19,-8
78657,-3,-21,-13,-22,-19,-20,-2,-1
78705,4,-3,1,2,3,11,9,53
78757,3,14,2,3,6,-1,4,-11
78808,-7,22,9,-1,-2,16,4,31
78863,-4,-1,-5,-8,-6,10,9,-30
78919,1,-3,-4,-4,-6,-8,-3,-33
78985,-17,-44,4,16,22,29,7,-7
79030,-15,-6,-5,-16,-16,0,0,1
79078,6,23,-2,-7,-11,-23,-4,-37
79129,-19,-3,1,6,2,-1,1,-23
79184,6,11,21,27,29,30,17,17
79238,-5,6,-1,-5,-2,0,2,-40
79290,13,28,3,6,8,13,5,12
79342,10,-23,-6,5,6,11,4,-7
79395,-4,-12,-7,-2,3,6,1,5
79453,7,16,8,6,14,-7,12,27
79499,5,-11,3,-3,-3,0,-1,0
79554,-12,20,2,0,3,-3,4,32
79605,1,52,11,1,-2,-7,2,66
79657,4,-14,-8,-10,-8,2,-5,-12
79719,-17,-27,-13,-8,-6,-1,-6,-45
79763,-16,-12,-5,-2,-3,-18,-16,-13
79822,3,-13,-9,-14,-19,-28,-15,-38
79887,-6,-29,-12,-3,0,4,6,21
79935,-18,7,5,-4,-11,-30,-11,-9
79988,-18,2,1,4,-3,2,-2,-22
80042,-10,-17,-8,-20,-30,-25,-7,19
80093,0,-3,0,0,-3,-4,8,-9
80144,0,5,1,-4,-2,9,1,7
80205,0,14,5,13,28,22,17,4
80267,-22,-50,-16,-22,-45,-95,-30,-11
80325,4,9,-2,-12,-15,-15,-6,-14
80384,13,33,10,-6,-11,-9,5,4
80431,6,17,3,-7,-8,12,4,12
80486,0,36,5,-2,-1,-19,-4,2
80535,-11,-20,6,4,10,9,7,6
80588,-7,-5,4,1,2,1,5,11
80649,-11,-32,-4,5,10,4,4,1
80691,-12,-27,-9,-10,-10,-6,-11,-19
80749,-11,11,-1,1,1,0,2,-21
80801,-27,-29,-13,-3,-4,4,6,5
80865,4,15,2,-1,-1,13,3,20
80926,7,-4,-4,3,3,-11,9,0
80977,-25,-8,-4,1,0,-21,-1,-34
81031,5,12,6,4,-11,-25,-11,-24
81083,13,11,1,0,2,-3,-2,-25
81135,-4,11,2,-1,-5,-5,-3,30
81189,16,28,0,-3,-7,-5,-3,28
81248,-1,-23,-5,-2,-1,15,3,-13
81312,-1,-12,-5,0,5,18,4,0
81360,-26,-17,1,8,15,46,10,-15
81414,-7,0,-4,1,3,17,-1,-19
81465,-6,7,-3,-18,-29,-50,-16,-23
81517,8,3,-4,-1,1,2,1,30
81573,-1,-1,-1,2,1,-5,-6,-2
81625,11,-11,-2,2,4,-20,-1,11
81675,-8,14,6,6,11,9,8,-1
81729,-22,-15,-4,-5,-2,-6,-3,14
81785,-19,-7,-6,-3,-1,5,-2,-23
81849,2,-12,-1,1,-2,-8,0,22
81915,-9,1,0,3,5,3,1,-18
81970,-17,-20,-15,-15,-20,-4,-10,-33
82021,6,5,-1,1,2,7,2,6
82084,8,-4,0,2,2,-3,-3,4
82134,-4,3,-1,-2,0,-14,-2,22
82185,1,-11,-2,2,10,2,6,26
82247,-20,-3,4,0,2,-12,-10,-26
82292,5,-12,-7,-15,-27,-16,-8,20
82344,-3,2,4,0,4,0,0,-6
82399,14,5,-2,-3,2,-2,-2,-69
82449,12,17,6,0,4,2,3,-19
82511,-2,11,1,-2,-3,-5,-3,-7
82560,-7,-3,3,10,20,22,9,42
82614,-8,18,10,7,7,14,1,-50
82675,-5,7,0,0,-3,-7,0,6
82731,3,-5,-9,-16,-30,-23,-11,-21
82794,-9,-2,-5,-4,-6,-17,-9,21
82853,18,5,13,3,0,-2,0,27
82907,-14,-6,5,9,11,13,2,-15
82967,6,21,-1,-6,-5,-26,-4,21
83016,9,1,-3,-5,-7,-13,-5,-23
83071,-9,-13,8,6,7,21,4,10
83126,-10,4,3,9,17,26,2,17
83176,32,0,-2,-16,-24,-1,1,53
83232,11,2,-4,-4,-5,0,0,7
83282,-8,-26,-6,-2,-3,-3,-6,2
83335,2,-2,1,5,6,7,2,38
83392,14,12,-1,3,1,6,6,13
83453,8,35,8,2,-2,-4,-3,4
83513,14,-3,-4,-4,-5,-2,1,30
83566,-24,-9,-3,0,-1,3,0,-5
83628,19,7,2,4,1,-7,1,-1
83671,-22,-39,-2,-5,-6,2,2,21
83728,0,-3,-3,1,0,1,0,-5
83777,-12,-6,-6,-6,-15,-22,-9,-21
83828,25,31,10,8,14,13,11,-41
83882,-6,14,3,7,9,8,-1,-24
83935,0,8,-4,-7,-15,4,-2,-1
83991,10,-17,-6,-3,2,9,0,32
84039,12,-5,-1,2,4,-3,8,6
84099,-2,1,8,11,12,20,7,12
84154,3,-4,-1,-1,0,-2,-1,44
84218,1,-1,-3,-6,-18,-27,-8,-47
84272,-8,21,6,-2,-4,1,-7,-14
84324,-12,20,6,6,10,-6,3,7
84385,-1,-1,2,4,10,10,0,-3
84435,18,6,-3,8,20,-3,3,14
84487,15,20,10,3,4,7,5,55
84546,-15,-13,-2,-2,5,-1,-3,-49
84592,9,8,2,-6,-9,4,-3,20
84645,21,15,5,-1,-5,4,3,30
84698,30,-6,-6,-5,-5,1,-5,-29
84751,31,34,20,-1,-8,-8,6,47
84809,-21,1,6,0,-11,-3,1,31
84857,4,38,39,7,8,5,-1,10
84910,-21,-62,-17,4,12,16,10,-14
84959,3,21,-5,-4,3,4,-10,19
85014,-13,-22,-2,-1,1,15,-2,6
85066,-3,-22,-6,-1,-1,-7,-6,-25
85119,-4,18,9,6,7,1,-2,-24
85171,-3,24,20,5,1,2,3,29
85222,-2,4,3,3,8,3,2,-16
85276,-19,-22,-13,-7,2,-3,-1,18
85336,9,-6,-2,5,2,1,4,1
85383,-5,2,-1,-3,-1,3,0,0
85436,0,4,3,0,1,0,1,0
85485,-4,1,3,-11,-15,-12,-11,-21
85538,6,17,10,17,25,28,18,22
85591,-2,-12,-7,-9,-13,-8,-5,13
85644,-9,-18,-6,-1,-4,6,-3,-7
85701,-11,3,1,3,13,33,5,-7
85748,-8,-23,3,4,16,28,5,7
85800,12,25,13,-2,-7,7,5,9
85855,8,10,-3,-2,3,11,0,6
85905,2,3,3,7,10,8,8,6
85958,-14,-16,-8,-5,-4,6,0,2
86011,-10,-8,-6,-6,-10,-4,-6,-5
86064,-3,-2,-1,-2,-5,-15,-5,-11
86118,3,9,-4,-4,-6,-4,0,14
86169,-4,-9,-3,-4,-12,-41,-13,8
86221,1,-5,-5,-3,-8,-16,-6,-10
86273,4,0,0,-4,-6,-12,-6,15
86325,-8,-23,-3,1,1,-1,1,-4
86387,2,16,2,0,0,-4,0,6
86431,6,-8,-4,-5,-2,1,1,-19
86488,-14,28,2,3,4,-10,-2,-30
86544,6,4,8,-1,0,2,-4,6
86604,-4,-10,-1,2,5,1,4,33
86655,8,1,-7,-2,2,20,4,8
86713,4,9,12,6,5,-11,-1,3
86761,14,-11,-3,-7,-10,1,-4,25
86815,5,3,-2,0,0,3,3,-13
86866,11,0,-7,-11,-19,10,-12,-2
86918,-9,26,1,-1,1,18,3,-4
86974,-14,3,0,0,2,17,3,-9
87027,-23,-16,0,1,4,6,1,-14
87083,-1,-2,2,-3,-4,1,-5,-11
87141,-15,19,-8,-10,-15,-24,-18,-8
87188,1,2,2,3,5,6,-11,-20
87241,6,6,-3,-2,2,-2,-3,-11
87304,9,24,-3,-12,-15,-17,-12,0
87353,-3,0,4,0,-6,-3,-4,-22
87407,-6,12,6,0,-8,-11,-8,-5
87462,-17,-38,-3,3,3,1,1,-15
87524,7,-5,1,10,16,6,6,17
87587,6,-9,-5,-10,-14,3,-6,11
87646,1,30,-6,3,21,24,8,2
87700,-11,10,14,4,-2,7,-2,-4
87752,0,-3,1,-3,-3,-9,-11,-57
87808,8,-10,5,10,5,-9,6,16
87868,0,8,1,2,0,-17,0,5
87916,8,-18,-5,-5,-9,-3,1,25
87969,-13,-51,-5,1,3,2,-6,-6
88021,-3,0,-10,-17,-25,-29,-19,0
88075,-16,-27,-6,4,8,31,8,4
88135,0,13,-1,-1,6,9,5,-31
88188,-10,-20,-4,-5,-8,13,0,-28
88238,3,21,2,1,2,8,5,17
88292,-13,-15,-14,-14,-11,-4,-3,13
88343,2,-5,-2,-15,-16,-1,-4,-14
88395,0,-1,-2,-12,-21,-23,-2,35
88457,-14,16,2,5,10,40,7,-15
88506,7,-8,1,9,4,3,2,2
88569,-7,-13,-9,-26,-43,-34,-26,-9
88631,-10,9,4,-1,0,-4,0,-7
88680,7,-19,-4,0,-3,8,-4,3
88735,-10,-21,-7,-3,-4,-14,-5,-6
88787,0,-13,0,4,11,19,-1,-9
88843,5,20,3,4,3,-3,1,16
88892,9,-7,-2,-4,-16,-21,-12,4
88946,0,-3,-8,-7,-4,-5,-3,-6
88998,9,12,3,6,7,-6,-4,0
89050,7,-12,2,4,7,4,9,9
89110,0,8,2,6,13,26,7,7
89169,1,-17,-7,-4,-1,-1,5,1
89230,-17,1,0,-1,-2,-12,-6,-51
89283,-6,4,-3,-8,-11,-6,-8,-2
89337,-2,5,-3,-3,-4,2,-2,12
89398,-17,17,-9,-22,-39,-107,-36,-13
89446,1,-27,-6,-1,-4,-35,-5,-9
89505,9,33,8,1,1,11,5,13
89566,9,-32,-2,5,12,7,4,-3
89617,26,17,1,-2,-3,-8,-1,27
89673,-5,-7,9,2,-1,27,-4,4
89724,8,0,-2,3,5,10,2,38
89776,4,20,-1,5,10,-3,8,15
89831,-7,46,5,0,3,-3,-1,11
89889,6,13,1,1,4,24,7,-8
89950,-8,-24,-5,7,9,14,9,0
90010,-3,-3,-3,-2,2,7,2,-28
90064,-3,31,5,6,13,16,7,11
90115,16,45,14,10,9,35,12,-5
90174,-17,25,1,2,8,-2,7,-1
90236,-14,-42,-8,-9,-16,-25,-5,5
90295,18,21,11,6,7,2,6,-1
90348,-6,-6,-1,-7,-10,-4,1,0
90412,-1,-26,-13,-9,-12,0,-2,-1
90459,2,-9,-3,0,7,9,-1,-14
90513,8,35,8,12,23,34,16,18
90575,11,32,7,7,9,-4,5,-18
90625,8,-7,-1,1,5,23,6,31
90678,-10,19,0,0,7,-2,4,-2
90733,2,3,2,1,-4,-9,-6,3
90782,1,-28,2,2,2,-3,1,3
90835,-11,6,1,0,3,-4,-4,6
90887,-36,-62,-20,-20,-33,-82,-28,-9
90939,3,-3,0,0,0,-3,4,41
90992,16,-16,-5,5,16,1,7,24
91053,-51,25,5,-9,-19,-2,-5,-10
91105,-13,-21,-21,-1,-11,16,9,-90
91157,-2,-2,1,3,18,-5,8,37
91219,-41,-4,-22,-13,-16,-8,-4,23
91278,16,32,15,12,15,6,-1,-30
91330,-16,11,25,14,24,11,5,-9
91381,-14,-2,-8,7,19,16,14,-8
91436,2,10,7,15,6,-2,1,-6
91491,-13,-4,-13,-11,-36,-33,-1,17
91546,0,-28,-1,7,15,3,0,20
91591,-13,-1,-1,-5,-8,-10,-6,8
91647,-1,-9,-11,0,6,9,6,9
91697,1,12,5,5,8,11,7,10
91759,25,-13,-5,-9,-16,-11,-6,-21
91811,-21,7,0,-13,-23,-24,-14,-36
91861,-17,-10,-1,-5,-18,-8,-1,-53
91915,15,2,-1,10,23,28,12,26
91975,-29,-11,-7,-10,-15,4,-10,-67
92027,17,29,13,10,18,18,3,-14
92082,-1,-2,5,1,0,4,1,-2
92137,22,-3,2,0,-3,-11,-1,-8
92185,-1,20,3,-9,-13,-7,-9,16
92238,-11,-7,-1,0,-9,3,6,17
92299,-5,-2,8,-1,-10,-1,4,-8
92343,18,0,-2,-3,0,1,0,16
92397,18,0,-2,-5,2,-15,-6,-8
92454,20,56,23,4,1,-6,-3,20
92515,3,16,4,7,6,4,3,-13
92575,-2,-7,-10,9,16,14,5,55
92628,2,-2,-7,-9,-7,-3,-1,3
92684,-1,-4,-3,-1,7,-11,3,-2
92733,22,36,23,1,-9,-2,-10,13
92785,5,1,3,2,7,-6,-17,-9
92836,-15,-21,-5,-2,-1,1,-4,5
92890,-9,-12,-8,0,1,8,-3,-29
92943,-1,-27,-9,-5,-8,-24,-12,-7
92996,7,-6,-7,-13,-23,-10,-7,3
93049,-13,-4,-1,0,8,12,0,-19
93105,-1,10,2,-1,-7,-21,-7,13
93151,-3,16,12,1,-2,0,-3,-13
93206,-10,-18,-10,-17,-19,7,-7,-1
93257,-1,-6,-7,-4,-1,-11,0,-15
93309,-4,-9,-1,0,1,-5,-2,14
93368,-5,-7,-5,2,7,5,0,6
93414,13,19,5,-1,-2,1,6,-10
93466,2,35,15,3,2,-1,-3,-14
93530,-4,-3,2,4,6,-1,1,-4
93573,3,8,3,0,-1,4,4,11
93629,-16,-2,-10,-20,-39,-57,-32,-39
93678,-23,-20,-7,-11,-16,-32,-3,-53
93730,8,42,14,-4,-17,-53,-17,-31
93784,-13,-7,2,-1,-1,8,4,1
93835,-3,18,11,2,-1,-5,-8,-30
93890,6,-3,-6,-8,-11,-11,-1,5
93940,8,-10,-6,-10,-14,-14,-7,-30
93993,4,9,3,-1,-2,-5,4,13
94046,11,-3,1,3,-5,-7,2,16
94098,12,-5,-7,-1,-2,-16,-2,20
94153,5,-2,-3,-2,-6,-38,0,-6
94202,1,-10,-4,1,3,1,-2,11
94257,-4,-7,2,8,12,5,9,13
94312,-7,1,-1,-3,-8,-15,-19,8
94360,13,8,-2,1,5,20,-4,4
94417,-5,1,2,2,3,-1,0,-12
94466,6,-6,0,-1,2,2,2,28
94525,-9,-20,-4,-1,-2,3,-4,14
94575,-1,25,0,-10,-3,-15,-5,-28
94635,-8,-15,-3,0,3,13,1,8
94683,4,3,-4,-5,-2,-5,1,14
94735,5,3,5,7,4,9,4,-8
94787,11,8,1,1,8,0,1,10
94840,-59,-18,-9,-4,-3,-3,-4,-63
94893,3,-2,5,8,14,22,8,40
94955,-14,-8,-8,-4,1,4,1,-33
95004,9,9,-1,1,-2,4,-3,-51
95066,9,-7,4,7,18,37,10,15
95115,40,17,-2,-3,-10,-18,1,51
95170,-5,0,-4,-2,-4,-1,-4,-43
95222,16,29,2,3,6,25,1,-64
95282,3,-15,-4,-5,-4,-1,3,15
95330,8,24,5,6,12,34,5,16
95386,10,16,0,0,-1,6,0,0
95448,16,3,1,6,11,1,9,52
95497,13,0,-6,-2,-3,10,3,-3
95554,-4,-4,0,-1,-1,2,-3,-15
95610,-9,-19,-6,-11,-18,-41,-14,-40
95668,-11,12,7,4,2,-5,-2,-35
95718,-7,5,-2,-2,0,-5,1,2
95773,-4,-4,-1,3,6,-2,0,-4
95822,2,-12,-1,0,4,-21,-5,-19
95873,14,2,-2,-8,-18,-10,-8,7
95934,19,43,5,1,7,13,4,25
95984,7,-1,3,2,5,6,4,-1
96048,13,3,2,4,7,10,5,15
96107,5,25,3,-11,-15,-1,-5,20
96159,-4,-5,-1,-1,2,10,3,0
96214,22,3,-3,-15,-21,-8,-9,1
96265,5,16,1,-13,-22,0,-2,-8
96319,1,13,2,-2,-2,16,-7,14
96372,2,-8,-9,-20,-27,-12,-5,10
96431,13,6,1,-1,0,8,4,47
96492,5,7,-4,-2,0,6,0,-10
96541,-31,-40,-15,-20,-34,-40,-12,-13
96596,3,-7,-6,-12,-8,18,3,-8
96650,6,32,2,3,15,8,1,-2
96701,3,8,-2,-3,-9,-3,-4,-11
96753,-12,-19,-5,-5,-7,-17,-6,-10
96813,4,0,-1,-1,-6,2,-1,-9
96874,9,-5,-4,-7,-8,2,2,9
96925,5,1,1,0,-1,-1,5,21
96977,-1,-12,-3,8,23,13,5,36
97032,15,32,-5,-2,-4,15,6,13
97088,-5,0,-7,-21,-47,-48,-19,15
97136,8,5,-5,-14,-19,11,-7,40
97187,-5,-7,-1,-5,-15,-26,-7,-13
97240,-8,22,-6,-16,-19,-14,-10,-8
97294,3,-5,1,-3,-5,-20,-7,-2
97350,-10,-28,-10,-3,-2,-7,-2,-4
97419,1,12,3,-1,-2,-4,3,-3
97474,-9,-10,-4,-17,-23,-30,-8,1
97534,-14,-26,-8,-6,-3,14,-2,-8
97587,-6,-12,-7,-4,-5,-8,-6,13
97649,-5,-13,-2,-3,-10,-8,1,20
97691,-3,8,1,4,2,13,3,22
97751,2,-7,0,-1,-2,-12,4,3
97797,-7,13,6,13,24,15,9,-2
97857,1,-22,-6,0,2,6,3,-2
97920,-9,-16,-3,2,10,-8,-5,-40
97977,2,5,0,-3,-8,-16,-3,6
98029,-14,7,2,-1,-4,2,-3,-33
98081,7,15,4,13,18,-4,2,-7
98133,5,2,-3,-7,-17,-44,-6,17
98186,-12,-8,2,-1,-3,-7,-3,-1
98241,-11,-2,-1,-2,2,18,5,11
98291,15,-5,-3,-1,2,20,5,5
98345,-5,-22,-1,7,15,0,3,2
98397,7,-26,-4,-3,-5,-19,-5,3
98455,-12,0,-1,-4,-9,-14,-4,-18
98516,-20,-38,-3,9,10,4,1,-31
98578,-22,-33,-9,-3,-4,-3,-1,-21
98631,2,3,3,1,5,7,-1,24
98697,-9,-40,-5,3,10,3,6,2
98761,-2,-3,-4,0,2,9,1,-17
98826,9,-3,-7,-21,-34,-17,-13,0
98869,10,-24,-3,-7,-14,11,6,-1
98924,9,29,2,-2,-2,1,-2,3
98973,-7,-4,-1,0,0,5,0,2
99034,-3,14,1,-3,-1,3,-2,-14
99088,0,9,3,5,4,12,0,-3
99140,-17,-12,-14,-15,-21,-55,-14,-9
99198,-3,-18,-2,0,-1,-3,-3,14
99261,5,1,-3,-4,-4,2,-3,5
99321,-3,-30,-8,1,5,-1,0,-5
99372,5,-3,0,-5,-13,-13,-5,9
99424,-1,-24,-6,-3,-2,3,0,-5
99482,-20,-40,-25,-7,2,2,0,-12
99539,-43,-1,-9,-19,-30,-37,-13,7
99589,5,-25,-19,-21,-37,-13,-15,-21
99641,-71,-31,-18,-4,-2,11,5,-7
99693,-34,0,-4,12,53,16,3,-4
99745,-19,-11,-3,2,23,-7,-11,-10
99798,-11,1,-3,1,21,4,-4,0
99857,33,-7,5,15,48,-4,6,39
99903,-64,-22,-22,-5,-17,-6,14,-15
99957,47,75,55,16,0,-14,4,17
100010,12,15,17,16,21,24,11,36
100061,-55,-18,-11,-17,-26,-5,-2,-7
100113,2,35,9,-16,19,-40,-27,-15
100166,-14,5,11,0,0,-9,-7,-25
100218,3,1,0,2,24,5,-5,0
100271,44,-2,-4,0,3,-3,2,26
100324,14,17,7,-1,11,11,-3,-7
100377,-28,-12,0,3,2,-1,0,10
100436,9,-5,1,-19,-40,-38,-7,-3
100488,-23,12,9,4,-5,12,6,9
100546,18,3,2,4,-11,-19,-11,8
100594,-11,17,18,8,6,16,6,3
100646,-9,-6,0,10,27,6,6,8
100696,-10,-3,-1,1,-4,7,-4,-25
100751,23,10,0,0,4,6,-2,-12
100808,-10,4,13,7,4,8,3,10
100856,-13,-68,-20,-26,-27,-18,-10,-5
100911,14,-28,-13,-4,1,-3,3,-44
100961,-18,0,0,6,11,10,3,39
101013,31,14,7,3,-2,12,6,6
101074,1,1,-1,-1,3,3,-3,1
101119,-33,-6,-6,-10,-18,-21,-17,-15
101175,37,12,2,-3,-4,-8,-1,-11
101225,-10,-12,-8,3,2,30,5,11
101277,21,21,1,-3,-5,7,-4,14
101328,-6,25,5,4,4,9,3,-23
101379,30,7,1,2,11,11,4,-26
101440,-10,-35,-14,-6,-7,-5,-4,10
101486,22,1,0,3,0,16,7,16
101538,1,12,5,0,2,8,5,12
101592,31,13,2,-19,-26,-32,-8,-4
101643,26,-22,-2,0,12,2,6,7
101696,-12,9,-3,-13,-18,3,-6,-10
101749,8,11,1,-2,-6,-20,1,13
101802,13,2,-6,-5,-19,-27,-10,21
101853,-5,-4,-4,-1,-2,-3,-7,0
101908,-20,-6,-5,-11,-21,-14,-10,-25
101972,4,18,1,-13,-26,-56,-18,-2
102026,2,0,1,10,14,33,13,4
102078,-8,-9,-5,-6,-5,1,1,2
102135,7,8,-1,-4,-5,-2,2,-30
102183,3,2,-3,-7,-6,2,-3,18
102237,10,22,4,-4,-5,1,-2,18
102289,-16,-2,-4,-3,-6,-4,-9,-50
102341,-28,-22,-5,-3,5,21,6,-1
102397,14,8,0,-4,-6,-27,-6,-7
102448,3,9,1,7,2,3,2,6
102506,-2,3,6,6,7,5,-5,-11
102566,2,2,-4,-1,9,31,11,7
102626,-4,6,2,0,-5,0,6,1
102688,-5,-22,1,4,5,2,2,-11
102740,-5,-20,-3,-6,-10,-6,1,5
102793,1,-22,-8,-6,-9,-10,-3,3
102854,-9,9,6,4,14,22,6,-12
102897,-4,27,7,0,7,9,-3,-18
102959,-7,11,1,6,11,13,4,7
103009,-10,1,0,-6,-9,5,-6,-5
103070,-11,-10,-6,-11,-3,-11,-11,-16
103121,-3,-5,0,-5,-9,11,3,-1
103182,-11,-10,-5,-6,-7,-7,0,-15
103238,7,3,1,0,-9,-30,-6,12
103286,-9,-12,-6,0,4,-11,-7,-9
103348,3,19,-6,-14,-16,5,-18,-23
103406,12,13,2,-2,-4,6,-13,-2
103469,1,16,10,1,0,1,-2,35
103522,8,-4,-6,0,-6,-15,-3,-53
103578,-23,-40,-36,-44,-53,-9,-6,1
103628,7,2,-20,-19,-23,-4,-6,-5
103682,-3,20,3,-2,-12,-45,-17,2
103737,-20,-12,-11,-5,-7,15,-1,7
103798,-6,-20,-8,0,10,-3,2,-32
103849,1,-22,0,1,2,-3,-9,-4
103909,-9,-5,-1,-1,19,17,0,-44
103974,-5,-22,-12,-3,7,11,1,-26
104020,-8,-4,-3,-2,-12,2,-3,-13
104076,9,26,13,2,-4,6,9,46
104127,4,7,-9,-7,-8,10,6,26
104180,-21,-7,-4,3,8,10,4,-20
104233,8,18,1,7,14,19,14,23
104298,-1,-18,-5,-8,-20,-13,4,20
104352,2,-3,-3,0,-5,-15,-3,4
104403,1,-1,2,1,-1,-19,-5,-1
104462,1,-9,-6,-4,-9,1,-9,-10
104509,-1,7,4,4,9,24,7,9
104562,-18,-31,-8,-1,-2,7,-5,-16
104622,-8,11,1,0,4,9,1,-7
104676,-3,-14,-4,4,10,4,8,19
104735,14,16,0,-3,-6,14,-4,-9
104797,-24,-63,-6,-3,-5,-34,-2,-8
104854,8,8,-3,2,7,10,3,12
104900,-1,-3,-3,-4,-5,-5,-1,-7
104952,12,21,12,10,8,1,3,12
105008,19,25,3,0,3,15,7,39
105059,-5,26,11,4,2,6,-3,-17
105115,-3,1,0,-4,-4,-13,-2,-32
105166,1,56,-1,-2,-2,8,-3,2
105216,3,-8,-4,-3,-6,-22,-3,10
105279,3,-15,-4,-1,0,-1,2,-11
105326,21,25,4,7,12,24,11,57
105379,-24,-40,-3,-7,-8,-7,-9,13
105432,6,30,6,1,-3,1,2,4
105484,-2,-7,-2,1,8,9,2,8
105542,-2,7,5,5,18,-3,5,-16
105596,3,13,4,3,8,27,3,-10
105658,12,24,1,-3,-8,-2,5,-10
105718,-14,-13,-5,-4,-5,-32,-13,-24
105775,7,3,-1,-4,-3,-2,1,15
105822,1,-8,-8,-8,-6,6,-1,2
105876,1,-6,1,-1,1,0,4,12
105928,-3,8,6,2,-4,-3,-1,4
105980,-12,-15,-4,-2,2,-6,-3,-10
106038,-9,-6,1,7,10,-20,-1,-15
106092,24,66,25,8,3,-10,5,14
106149,-14,-2,0,6,6,14,3,18
106204,-9,19,5,3,7,14,-1,-2
106268,-5,-7,-3,-1,-6,-10,-6,-11
106308,21,42,9,2,5,-1,1,39
106370,3,-10,-5,-7,-10,17,-16,13
106415,-3,-22,-6,-12,-24,-24,-16,54
106467,13,29,6,5,3,24,5,-11
106524,-11,1,-2,2,13,0,3,-37
106578,4,33,10,2,-3,1,-8,-27
106641,-17,16,-1,-2,0,5,-2,-3
106701,-5,31,11,4,5,9,-3,-38
106762,9,7,0,1,4,3,10,22
106813,-6,16,5,6,12,22,7,23
106867,16,17,-3,-2,0,2,1,7
106922,-24,-34,-5,6,12,18,8,-3
106971,-5,0,-2,7,17,21,9,-1
107023,-6,-19,-5,-10,-16,-16,-9,-28
107074,-4,0,-1,0,0,13,-3,-2
107128,-14,-32,-9,0,0,1,-4,-14
107182,-13,12,1,4,8,6,4,-48
107240,0,8,2,8,15,27,3,0
107301,2,-47,-11,-4,-4,1,-4,-3
107351,13,15,1,0,-3,-11,-1,7
107404,-33,-1,2,-4,-7,-13,-4,0
107459,-11,-24,-9,-5,-12,-4,-8,-18
107519,-5,-8,-5,-9,-13,-31,-15,-35
107579,-21,-10,-1,1,1,-31,-6,-7
107626,-12,-9,1,1,6,-6,0,1
107685,4,-12,-2,-1,-2,2,0,-14
107735,13,-10,-6,-17,-31,-17,-9,45
107788,14,29,2,-2,-4,3,2,52
107842,9,-14,-3,0,-2,-6,4,0
107892,-1,9,0,-2,0,16,4,0
107946,-10,-19,5,6,4,3,1,-30
107998,-7,2,-1,1,3,-2,-5,-5
108049,0,-40,-12,-12,-10,-9,-4,1
108108,16,23,-2,-7,-8,-2,-5,-33
108155,28,20,14,4,0,-12,-1,4
108208,11,9,0,-1,-6,-2,0,19
108261,-11,10,0,0,1,5,1,21
108319,4,-33,-7,0,-1,1,8,7
108380,-19,6,1,4,7,5,-2,-62
108441,5,17,5,2,-1,-8,0,-30
108495,-20,-20,-7,-7,-9,-14,-5,15
108546,-1,3,6,15,24,25,13,62
108599,9,-8,-6,-1,1,-3,0,26
108650,-2,-10,-5,-6,-11,-11,-6,2
108703,8,-10,0,-2,-3,-1,1,-5
108754,-5,-6,1,4,5,4,-1,-17
108809,15,-10,0,7,14,14,7,14
108860,1,-21,-5,-8,-16,-6,-3,1
108926,21,4,1,0,0,-18,-6,11
108981,4,-29,-4,5,8,10,4,3
109031,12,16,3,-2,-9,-14,-3,1
109089,-17,-20,-10,-6,-6,-2,-10,-58
109138,-9,-14,-2,1,6,1,-3,-32
109189,-3,3,-5,-5,-4,-1,-3,10
109242,-10,-1,-2,-3,-1,-1,1,20
109295,13,2,2,-4,-6,0,6,37
109352,-20,-1,-3,-6,-7,-3,-8,6
109400,-1,-12,-4,0,2,5,1,17
109457,0,-8,-3,-3,-3,-2,3,12
109505,13,5,2,9,14,10,4,-25
109558,11,-1,-4,-15,-14,-5,-8,29
109610,10,5,-9,-12,-15,-4,-6,9
109663,1,30,3,-4,-6,-3,-6,-83
109716,9,-9,-2,3,5,-2,3,16
109768,-2,-2,0,6,17,17,7,-23
109820,-20,-27,-4,-8,-13,-47,-6,-5
109875,4,11,-1,-3,-2,-2,1,-5
109925,4,14,1,-1,-1,-9,-1,9
109988,-5,6,-1,0,0,-35,0,-13
110038,-10,-16,1,5,8,-2,3,17
110090,-7,-15,-12,-31,-47,-6,-14,-10
110151,1,-5,-3,-1,1,-15,-5,-13
110206,-1,8,2,0,0,3,-4,7
110255,-2,23,11,2,-5,-2,-7,-61
110307,4,8,1,7,14,13,6,21
110360,2,16,-1,-6,-1,4,3,-17
110413,13,47,8,5,15,36,9,7
110466,6,22,-3,-6,-7,-2,-2,-6
110519,11,10,-3,-14,-22,-3,-3,6
110575,8,12,2,-1,-3,-5,0,8
110628,2,18,0,-2,-6,5,-4,-3
110691,-25,-32,-8,-4,-1,8,-4,-42
110750,0,-3,1,-4,-5,2,0,-22
110804,11,0,3,4,5,8,3,3
110857,-9,-22,-9,-8,-7,-23,-5,3
110909,-20,-6,-1,-1,0,-15,1,7
110961,-4,-3,1,2,2,4,1,-12
111013,-12,-13,0,4,7,14,3,5
111072,-7,-18,-2,2,4,10,0,-4
111126,17,7,9,3,4,10,6,12
111179,7,4,0,1,2,-11,1,29
111231,2,-6,-2,-3,-4,-4,-3,24
111293,-11,-2,-2,-4,-7,6,-1,-2
111343,8,5,2,-2,1,14,-4,1
111396,-12,11,-2,1,-5,0,-8,-17
111456,-11,-8,-4,4,4,-15,-4,3
111503,16,2,-1,-3,-5,-37,-11,32
111556,8,12,5,1,0,9,5,1
111611,-15,-41,-9,-1,-4,-5,-5,-45
111674,-8,-12,-3,1,2,0,-9,-19
111737,6,0,0,3,6,-20,3,-11
111801,20,36,4,-1,-1,20,6,-1
111853,-13,-41,-9,-4,-2,1,-4,-19
111918,3,12,0,-1,0,1,2,8
111977,-11,-26,-8,-4,-1,0,-3,7
112033,20,-13,-1,0,-6,-9,5,23
112088,-3,-11,-5,-4,-4,1,-5,-4
112140,2,12,-2,-5,-5,-2,-4,-8
112191,-2,-5,1,-1,-3,-7,2,-1
112243,-10,-14,0,6,10,13,6,-3
112299,3,19,8,2,0,1,-5,-19
112356,12,8,0,3,14,29,8,-9
112417,9,-4,-5,-8,-17,-6,-12,5
112470,17,-21,0,4,10,5,-2,17
112522,7,5,-6,-2,4,7,5,8
112573,3,-6,-4,-3,-3,-6,0,15
112630,-10,0,-2,-1,5,4,8,25
112680,14,26,1,-2,1,11,2,12
112731,-11,5,1,1,-1,5,6,-1
112783,-1,-27,-4,0,0,3,-6,0
112836,1,7,3,4,3,13,9,8
112895,-3,-22,2,1,1,-8,-1,8
112958,-14,2,-6,-5,2,23,3,3
113017,2,13,-1,-5,-14,-58,-12,7
113070,-6,11,4,5,-2,17,8,-27
113121,-6,29,10,8,9,9,4,-39
113173,-2,16,3,4,5,-10,0,-17
113227,-4,-13,-3,2,4,-18,5,30
113279,4,11,8,5,5,6,3,10
113342,6,30,6,2,-2,-1,2,-24
113403,6,11,-3,-12,5,-27,-12,6
113459,4,20,1,-7,-12,12,-14,-21
113513,5,-12,-5,-11,-20,-60,-17,-4
113563,-13,-20,5,6,0,-11,-5,-65
113616,-3,-13,-3,2,-3,-8,5,-16
113672,12,-5,1,13,13,23,9,33
113723,-7,-12,3,7,-7,-45,-6,21
113774,-4,0,-4,-5,-2,-3,5,-32
113826,15,34,4,4,3,12,1,-2
113878,-7,-33,-17,-9,-16,-13,-15,14
113939,-14,-19,-6,-1,-6,-8,1,-4
114000,13,11,10,8,9,4,7,27
114053,3,-2,1,-1,-10,-12,-1,14
114103,0,0,0,2,5,-11,1,0
114158,-23,-3,-4,1,-2,-4,10,-9
114212,3,6,-9,-8,-1,-30,-9,6
114264,16,36,9,-7,-15,-19,-13,34
114323,-2,-33,-10,5,18,29,3,-18
114382,-4,37,-3,-26,-32,-50,-16,-20
114446,-2,-37,-2,2,12,34,10,24
114486,8,8,-7,-19,-31,-26,-17,21
114544,-10,-54,-24,-26,-40,-23,-24,-22
114595,1,20,4,2,-6,-7,-8,17
114658,-26,-26,-8,-8,-26,-19,-19,-18
114719,-8,-25,-6,-5,-13,-11,-8,-31
114769,17,-7,-4,-5,-8,4,2,12
114833,1,-50,-8,7,15,-2,7,12
114882,-20,-1,0,2,7,-20,-1,-5
114936,-7,19,2,-5,-8,-10,-12,-37
114989,-6,2,2,6,5,5,3,-47
115040,23,41,-2,-11,-16,-27,-10,-34
115101,21,13,5,-4,-10,-1,-2,-23
115163,-21,10,7,-1,-7,-5,-3,-30
115214,25,-5,1,-5,-6,4,2,-16
115269,12,-6,-4,5,17,-4,6,28
115324,-5,-43,-17,-9,1,-2,0,1
115374,-9,-10,3,12,19,40,7,-30
115425,18,9,-1,-2,-5,13,6,17
115486,2,3,-11,-15,-18,-7,-17,-6
115553,6,-9,-6,-6,2,29,0,11
115597,9,8,1,2,-4,0,-1,-3
115653,2,-20,-3,-5,-8,-4,-1,3
115703,-26,-9,-7,-17,-33,-9,-12,39
115755,3,15,6,0,-3,-18,-7,-6
115816,-26,-36,-11,2,15,19,8,41
115867,-60,-34,-6,7,12,2,6,-10
115921,-20,-14,-5,-3,0,15,-1,-12
115971,0,-5,-6,2,-3,-5,-4,26
116024,-19,-8,-2,5,13,28,11,-11
116080,16,-10,10,5,5,11,3,27
116129,9,-6,-4,-1,5,-5,-14,9
116185,6,-29,-14,-2,-5,3,-2,-46
116243,11,-11,-12,-31,-44,-47,-24,15
116295,19,4,-2,-2,-4,-3,-1,4
116348,-80,-20,-8,0,2,-12,-3,-22
116404,-18,-10,1,4,8,18,4,33
116451,-1,14,4,5,10,23,-1,-24
116502,-5,-14,-7,-7,-11,-35,1,64
116556,0,-6,-2,0,3,-14,4,-24
116609,11,2,3,4,1,10,1,-7
116662,-24,-10,0,-1,0,2,5,43
116715,14,13,4,3,5,7,4,1
116769,3,5,-2,-3,-4,-4,-2,-17
116819,18,4,-6,-8,-12,-22,-6,18
116871,-4,-6,-6,1,9,32,15,19
116924,7,-7,-3,-5,-5,-5,-1,-3
116982,-20,-6,5,-2,-3,-8,-3,12
117040,-6,-3,-1,-2,-1,8,6,-18
117089,21,18,1,0,3,8,10,28
117142,10,1,-8,-20,-33,-25,-11,9
117195,16,4,1,-1,0,0,-3,39
117250,-13,-2,0,7,17,34,11,16
117299,10,-4,0,2,2,-1,-6,13
117354,3,-10,-7,-1,1,-3,-2,29
117406,11,1,12,1,-2,0,-4,-6
117464,2,-5,-2,6,10,13,7,-26
117517,-33,-18,-6,-3,-5,2,3,-14
117578,-13,0,-2,-5,-5,5,0,-14
117622,21,4,-2,-5,-8,-19,-5,9
117679,-4,-12,-2,4,7,10,1,-8
117725,1,-24,-15,-5,-2,-5,-8,-22
117780,-5,-12,-9,-12,-12,-8,-9,-22
117843,-11,-9,0,5,4,-30,-5,-26
117883,-2,17,3,0,2,1,5,16
117942,6,-11,-6,-15,-23,-9,-14,5
117989,-53,-63,-17,-10,-20,-19,-12,-17
118041,28,5,-2,-6,-11,-4,2,-1
118095,-19,-4,1,3,5,15,3,-25
118147,-28,-23,-4,-4,-1,2,5,8
118209,11,8,0,6,11,9,1,56
118259,-9,11,0,-1,-3,-4,-6,-14
118313,-28,8,4,3,3,18,3,-13
118372,-1,19,1,-8,-8,-8,-10,-19
118433,4,4,3,4,4,9,-3,11
118485,6,9,1,8,8,13,0,-37
118539,1,10,0,-4,-4,-8,-1,8
118595,-1,-19,-2,0,5,0,-2,17
118643,-11,-2,-1,-1,-7,4,-2,-34
118696,-31,-6,0,1,3,-5,-6,-10
118754,0,-3,-7,-17,-25,-20,-14,-20
118818,29,6,3,3,-2,0,5,70
118884,-2,-6,-1,-2,-5,0,-2,-31
118927,-9,-10,0,3,6,-2,1,-10
118984,-2,-14,-9,-10,-15,-17,-11,11
119032,10,14,5,4,6,11,6,18
119085,21,-5,-2,-1,-1,0,-1,1
119147,-8,-9,2,3,7,13,10,17
119191,-41,-7,-5,-2,4,-9,7,3
119247,-16,1,2,0,-3,-7,-1,-3
119292,14,5,-3,2,11,7,3,-45
119348,6,-18,-6,0,4,-15,-4,22
119402,1,11,3,1,1,5,6,29
119452,9,-19,1,2,3,2,5,5
119514,-36,-12,-5,1,2,11,-1,-48
119572,-5,-12,-10,-6,-3,-5,0,-12
119631,9,-11,-2,1,1,-3,-3,53
119684,0,-14,-3,-1,5,-12,0,-11
119739,18,9,1,-5,-15,-30,0,5
119797,-16,-45,-11,-16,-20,-1,-9,-21
119849,-2,-13,0,1,-2,5,-4,1
119902,5,15,3,5,11,14,9,29
119955,3,24,6,6,8,8,4,16
120014,38,2,-2,-2,-1,-1,6,56
120079,-5,12,2,-1,1,-4,-5,-35
120138,-6,-21,0,12,21,32,13,16
120191,-21,-13,-8,-11,-10,-9,-7,-23
120241,-19,-35,-9,3,10,0,0,11
120292,-6,3,1,-3,-3,3,-1,-87
120349,-4,-24,-4,-5,-5,-5,0,16
120413,-5,18,2,1,-2,-2,2,26
120466,-11,-28,-8,0,-3,-8,-2,-13
120520,-3,0,2,6,14,-1,3,11
120571,-18,-1,-3,6,12,20,5,5
120625,19,15,5,3,2,7,10,43
120674,-32,0,1,4,10,15,2,-80
120730,-14,33,5,0,-2,0,0,-18
120785,25,10,6,3,5,-5,2,-16
120842,-16,-17,5,4,6,1,3,10
120900,22,9,-5,-1,-3,-5,2,29
120964,11,-1,-4,3,5,13,3,48
121014,-57,-32,-10,-6,-3,-3,-9,-30
121064,-10,-6,-4,-8,-12,-1,-6,-39
121123,-17,-14,-2,-3,-5,-3,-3,19
121172,-6,-8,0,2,10,21,0,-5
121223,5,23,-1,3,9,9,6,16
121275,-20,-15,-3,-11,-7,-2,-10,-19
121330,15,3,2,4,9,10,1,5
121388,42,18,7,3,2,5,12,64
121443,-1,5,-3,1,2,2,-9,-64
121501,-2,-45,-10,-4,1,1,-5,52
121554,19,23,7,9,9,13,2,-16
121605,19,-15,-10,-22,-29,-15,-14,-1
121658,-2,-39,3,7,7,5,-6,18
121713,2,-1,-2,-2,-1,9,-3,-41
121764,-13,-31,-9,-11,-18,-23,-10,13
121814,-11,5,-2,2,-1,-5,-5,-10
121866,-5,-21,-11,-7,-12,-22,-10,-43
121922,12,13,-1,-3,-4,2,1,11
121988,8,15,3,-8,-13,-18,-6,-15
122040,-3,-7,2,0,-2,-11,-4,-14
122101,-25,-14,-2,3,7,7,-2,-25
122161,-44,-5,0,-6,-12,-31,-10,-34
122220,6,16,-2,1,11,-7,-3,13
122266,-36,-38,-7,-9,-3,12,-14,-9
122319,14,2,0,0,0,-8,0,-15
122370,7,39,8,5,3,7,6,14
122424,2,9,2,-1,-3,-5,-7,11
122486,23,16,0,-2,-5,-7,1,9
122545,0,30,1,2,2,4,-2,1
122596,8,28,8,2,3,-4,2,12
122648,4,18,0,-1,2,3,-3,-32
122708,-1,1,2,6,9,5,1,1
122761,-11,-32,-5,3,6,2,3,10
122819,-3,-25,-1,2,2,19,0,8
122882,-12,-23,-7,-5,-4,3,-4,-48
122930,-5,24,5,2,1,0,-1,-14
122986,5,18,2,1,-1,-6,-2,-1
123041,-11,-8,-6,-5,-8,-7,-6,3
123105,-6,-5,0,-1,-4,-8,0,-41
123167,4,22,4,0,-4,5,-1,8
123230,-8,-14,-3,-3,-6,-9,-4,0
123287,-13,-16,-4,6,15,14,4,-1
123341,-2,-9,-7,-8,-10,-22,-1,-10
123390,10,20,7,4,0,1,0,-9
123446,8,-4,4,3,-1,-13,-2,-2
123497,3,-4,0,3,9,4,4,-4
123549,8,-3,-5,-1,-2,2,2,18
123609,1,8,0,0,3,3,0,-9
123660,-11,3,-5,-11,-20,-11,-6,-17
123712,14,15,2,6,10,11,1,6
123768,-12,2,-4,1,11,11,8,8
123815,2,2,-3,-3,-6,5,-1,-4
123879,-6,-9,0,1,5,3,-2,12
123930,-18,-35,1,-7,-11,13,-6,-6
123983,-6,-12,-5,-5,-3,3,2,3
124041,-12,-7,-7,-9,-10,-10,-3,6
124088,0,-4,6,9,10,21,2,2
124142,7,6,2,3,6,6,-2,7
124193,7,18,4,1,4,-2,3,9
124246,-6,-13,-7,-1,2,9,2,11
124306,-2,-6,1,1,3,-1,2,3
124368,-3,-4,-5,-8,-11,-5,5,3
124430,-2,10,-2,-3,-3,2,1,-19
124480,9,37,8,4,9,14,8,36
124533,-6,1,2,6,11,9,1,-12
124590,-2,16,-3,3,1,4,-2,9
124643,1,3,-1,-3,-3,-3,-3,-1
124697,0,-22,-4,1,3,-4,0,-6
124750,-11,-1,-6,-9,-10,-8,-3,-8
124802,11,3,-1,-4,-13,-8,-4,7
124857,-9,-12,-4,0,6,18,2,-40
124906,3,3,-5,-9,-12,-8,-6,-11
124967,-7,-12,0,0,3,10,4,17
125018,-11,-29,-1,2,4,-3,5,7
125073,-8,-4,0,3,2,4,-1,17
125124,-13,-30,3,9,9,11,7,2
125175,4,6,5,14,25,22,15,18
125225,3,21,6,-2,-4,-6,-6,-3
125282,-7,-12,-3,-4,-12,-19,-18,-11
125336,1,-3,3,3,5,10,3,1
125384,-3,1,-4,-3,-4,-6,3,-6
125438,9,30,2,-1,2,10,2,7
125491,-26,-5,-2,-4,-5,-8,-7,-5
125544,4,3,-3,-1,-3,-4,2,-5
125598,3,-2,1,6,13,32,7,9
125648,13,17,-3,-1,-1,-1,3,19
125701,11,-1,1,4,5,20,1,6
125751,-14,-19,-8,-2,1,6,5,-9
125814,5,4,3,7,9,20,9,11
125874,-6,-9,3,-1,-4,-5,0,-3
125935,-13,-6,-5,-17,-30,-27,-14,-10
125985,-3,-11,-5,-2,4,4,3,0
126039,-1,-5,-7,-11,-15,1,-6,-7
126090,-16,-4,-7,-2,0,-20,-6,-11
126143,-9,-11,1,3,4,3,-2,-27
126197,3,21,0,6,14,17,9,0
126254,6,12,1,-1,-1,7,0,-1
126307,9,15,4,5,16,21,11,16
126354,-14,-48,-14,-12,-18,-22,-5,-7
126410,-9,-15,-3,-1,-1,2,-1,-29
126473,-16,20,4,8,13,-14,1,-45
126533,13,8,2,-2,-7,-3,-3,14
126584,4,15,8,4,9,3,2,13
126640,-5,-6,-2,-1,1,8,5,-1
126692,0,3,0,3,-2,-1,4,2
126744,0,9,2,-1,6,14,5,12
126797,-16,-40,-7,-10,-15,-10,-3,4
126856,-21,-49,-9,-7,-4,-2,-4,-10
126916,0,-5,-1,1,6,12,4,0
126981,4,-19,-11,-1,7,17,-2,2
127029,12,9,3,9,15,19,6,-35
127084,-5,12,0,-2,-5,-13,-5,-9
127133,-16,-29,-6,5,3,-30,-4,-33
127186,3,6,1,6,7,16,7,2
127252,3,15,-1,5,14,12,7,-11
127316,21,-19,-3,2,3,8,5,13
127367,-1,-19,-4,3,-1,-1,-5,-18
127419,8,4,-3,1,-4,1,2,-9
127471,10,14,5,-4,1,-17,-12,-48
127524,-13,-9,-8,0,18,14,0,-1
127577,35,5,0,-4,-18,-4,6,16
127631,-79,4,8,1,9,-7,-5,-20
127682,-32,-9,0,-5,-11,18,3,2
127734,25,40,23,9,19,27,6,20
127787,-5,6,5,2,21,0,-3,39
127838,6,-3,2,-15,-34,-48,-18,20
127905,-20,17,17,-7,-16,-5,-3,-33
127960,-1,21,8,2,6,1,-1,-48
128012,-12,-12,-11,-7,-6,14,-4,3
128064,6,-4,-1,3,13,11,8,23
128116,12,5,5,-1,-22,17,11,22
128172,-9,5,9,8,17,19,6,2
128223,-6,-14,-9,-12,-12,2,6,16
128285,-22,-13,-16,-23,-24,-25,-12,-10
128342,-8,1,8,8,21,0,7,8
128394,-8,-23,-10,-4,-14,-1,-3,15
128447,-18,-17,-11,-15,-33,-4,-10,-19
128498,5,0,4,-2,9,-4,-5,0
128554,-16,-22,-9,-21,-30,-37,-15,-4
128604,-17,-10,-15,-9,0,-3,1,-8
128657,-15,-13,-19,-11,-12,-15,-2,-10
128709,1,-7,0,5,12,24,6,19
128763,-24,-2,-6,-4,1,1,-7,-21
128820,3,-9,1,3,10,9,-4,12
128882,16,-16,-6,-10,-33,-13,-8,-13
128942,18,19,4,2,29,0,-4,14
128996,-28,-3,-10,1,9,2,2,3
129049,0,-3,-4,-17,-89,-21,-4,21
129099,15,3,-9,-5,3,-7,-4,10
129152,-63,8,-2,-12,-20,-25,-15,-20
129205,-12,-18,-2,-19,-34,-47,-23,-3
129266,21,-6,-6,0,-3,8,6,23
129327,-32,24,9,12,20,19,7,-33
129385,-10,4,8,4,-1,-5,-7,-1
129438,17,-8,-7,3,12,25,-1,0
129489,-7,0,-3,-1,3,-1,-2,-3
129547,25,14,5,-1,-5,2,-3,-20
129602,4,-24,-9,-2,7,-2,6,4
129666,-35,1,-5,-7,-7,-2,-12,-24
129710,-20,-32,-12,-6,-5,0,-6,19
129759,-20,11,4,1,1,-2,-7,-13
129817,3,44,40,1,-11,-22,-5,-52
129879,7,-1,-3,-12,-9,-8,-1,-3
129931,22,9,0,1,4,-3,-2,-23
129984,-40,-9,3,-2,1,-2,-1,-22
130035,-24,-5,-4,2,3,-2,14,36
130089,10,11,-2,-4,-6,6,0,25
130143,-8,11,6,7,11,4,-2,-23
130194,8,0,-2,-4,-17,-11,2,-35
130259,-25,-29,-8,-2,3,-2,-7,38
130308,6,5,2,-6,0,6,-12,35
130369,-18,-6,4,-14,-18,-2,-7,15
130423,-21,-29,-5,-4,2,0,-1,-10
130472,-23,-10,-6,-1,-2,-5,-6,-17
130525,30,22,5,3,-4,-2,4,30
130584,-7,5,-5,-5,1,3,-6,-41
130639,-1,8,-2,-18,-18,-26,-12,-50
130692,-22,-6,1,1,-3,9,8,-72
130747,33,-4,-5,-7,-5,-7,0,-13
130795,-46,-10,-7,-5,-5,-18,-8,61
130848,-10,1,-3,1,7,6,-5,-2
130907,-3,-14,-4,-5,-1,-8,-6,1
130968,24,-2,-3,-1,-5,6,1,-5
131037,16,18,3,-3,-6,-9,-6,7
131087,17,15,0,9,16,17,11,22
131144,-25,-13,-10,-8,-7,-14,-7,-23
131205,5,1,0,1,5,24,8,1
131272,15,2,1,1,1,7,3,10
131328,23,-13,-11,-4,-1,10,1,-10
131380,-4,-4,1,0,2,-1,1,23
131436,-9,2,-5,-5,3,7,6,3
131484,-15,-35,-7,3,16,-7,4,2
131540,6,20,3,-5,-11,3,2,15
131591,-14,0,-5,-8,-3,7,1,-3
131650,32,-2,3,1,-2,4,2,-37
131702,-4,-14,-4,0,3,13,1,6
131763,-9,6,5,-2,-2,-8,-6,13
131810,5,1,-4,-3,3,1,-2,12
131859,16,15,-1,2,3,6,1,24
131912,-15,21,1,-7,-8,3,-4,-1
131965,-32,-43,-8,-5,-3,2,-7,20
132017,20,5,3,0,0,0,-1,-10
132071,-3,-6,-3,-5,-8,-2,-4,0
132125,-26,-3,-3,1,4,7,1,-18
132172,-9,-23,-2,-2,3,7,0,44
132228,19,20,2,3,3,3,4,-9
132283,0,-1,-1,0,1,-3,-2,-35
132333,20,-42,-6,5,8,17,10,-23
132384,17,0,-7,-13,-16,-17,-13,-7
132437,-43,-5,-1,3,-4,-40,-5,-33
132489,-29,-26,-10,-1,2,-8,-6,-21
132542,37,5,5,13,16,-8,11,22
132595,-31,17,7,2,-2,-20,-2,-73
132647,-52,-8,-1,-2,-3,-8,-4,-10
132709,6,-6,-5,-3,-1,-2,-1,13
132759,6,22,6,4,8,6,9,-9
132812,-2,-11,-3,3,4,11,6,-7
132865,-10,-7,1,3,2,-4,2,22
132928,-32,-21,2,5,7,10,3,-25
132971,37,-10,-5,-1,7,10,13,-4
133023,0,13,4,4,6,10,7,-21
133075,5,1,6,7,7,-28,-4,-27
133127,4,-1,-1,-1,-1,-7,-3,-24
133180,-23,-18,-4,-7,-6,-1,-2,-25
133233,11,8,1,-4,-5,-5,-5,4
133282,-35,-16,2,9,11,23,10,-1
133338,11,-4,2,-2,-9,-30,-21,-17
133390,-30,-6,-1,0,1,4,4,-2
133446,2,10,5,3,3,-5,2,5
133495,-20,-31,-14,-14,-14,-33,-23,-80
133547,-54,2,2,2,5,1,-1,-6
133608,13,-1,0,3,7,20,5,-2
133661,-30,6,3,3,6,0,7,-17
133717,12,11,-5,-10,-9,-10,-6,-1
133765,3,7,1,1,0,11,3,-5
133818,7,3,5,-2,1,1,-5,-7
133880,-4,3,-8,-23,-39,-17,-18,-3
133929,-4,-5,2,2,2,11,0,-1
133985,9,-4,-3,-4,-4,3,-1,7
134036,-15,1,-2,-1,-3,-6,2,-14
134087,1,3,0,4,2,-7,-1,8
134140,6,-7,-7,0,1,19,4,-19
134192,-7,-1,1,1,-2,2,0,2
134245,1,-3,1,-2,0,2,2,-1
134299,-11,2,3,3,11,-5,-1,-17
134357,1,10,2,5,10,29,8,10
134418,-8,7,6,7,7,2,0,-6
134471,-5,3,2,1,-1,-4,1,14
134523,18,-2,0,10,21,17,13,15
134575,-9,25,6,-3,-8,-5,-7,0
134632,-1,-3,-2,-2,-3,-9,0,-1
134695,-3,0,-1,-1,0,6,12,45
134741,-4,8,-2,-14,-16,-6,-8,-11
134800,17,4,7,19,39,28,21,14
134862,12,10,0,-2,-5,-11,-1,3
134913,-15,-2,-2,0,1,8,2,-36
134966,35,15,7,8,8,8,9,20
135018,-10,-14,-1,3,14,29,7,-4
135068,-10,-7,3,8,13,-5,3,-30
135124,14,-2,1,4,-7,3,1,23
135175,20,9,6,6,-2,-5,2,13
135227,23,9,1,2,2,-1,5,14
135283,3,-1,-1,-5,-1,-1,5,-2
135337,-58,1,4,5,5,10,-24,-52
135387,-13,4,-6,-8,-10,-14,-7,-6
135448,-4,-9,-3,-1,-4,-10,1,35
135498,-15,-14,-1,3,4,5,0,7
135557,-24,-3,2,2,7,1,-10,-8
135610,1,-11,-3,-3,6,7,2,14
135665,19,-4,2,3,3,3,1,15
135715,3,-13,-2,0,1,-3,-1,-6
135769,-19,-6,-2,1,6,-5,2,9
135820,17,-8,1,-1,-4,-18,-4,5
135875,-10,4,-2,-8,-21,-51,-11,-22
135925,26,7,0,0,1,-11,-12,18
135979,-4,-1,0,-1,-1,-8,2,1
136030,10,13,1,-5,1,12,1,7
136083,-1,-3,-1,-8,-14,-11,-2,-4
136142,21,-16,-4,-5,-5,-9,-3,4
136204,21,11,1,-4,-2,-2,3,18
136249,14,-2,-3,-5,-16,-25,1,88
136303,-12,9,-4,-4,-6,-5,-11,-86
136360,15,-8,-3,-3,-1,-2,-1,-11
136412,-21,8,0,-1,4,3,-2,4
136466,35,11,2,3,7,-5,-4,-12
136517,-11,31,4,5,-3,-2,6,43
136572,13,2,1,5,8,4,-1,16
136625,12,5,1,-1,-6,-24,6,58
136675,-34,-47,-12,-5,-4,3,-4,-27
136728,26,4,2,8,20,18,2,26
136790,-9,-23,-8,-3,-1,4,3,-3
136840,19,25,5,3,-1,-14,0,19
136901,5,27,9,9,4,6,5,65
136950,7,16,3,7,11,7,2,-3
137007,-17,-5,-5,-6,-7,0,1,-5
137058,-3,0,0,-1,-2,4,2,13
137109,16,-6,-2,0,7,2,0,26
137164,-6,9,3,10,12,3,1,18
137217,11,10,1,5,7,-2,3,4
137269,-2,1,-1,2,4,5,4,3
137320,-3,-8,-8,-9,-12,-31,-5,-22
137386,1,-10,-7,-6,-6,-10,-11,-14
137427,33,16,0,4,12,6,3,12
137489,9,-2,-1,3,7,5,5,7
137552,-11,-7,0,-2,2,-6,-7,-2
137596,24,6,-5,-15,-18,-13,1,6
137650,-2,7,5,-5,-15,11,-6,-16
137716,-9,-1,-1,0,-2,0,-1,-10
137764,-17,-45,-12,-2,-3,-3,-2,-8
137818,9,12,0,2,3,2,5,0
137869,6,-23,-4,-2,-3,-3,-6,-27
137929,-5,-5,-4,1,-2,7,5,8
137991,0,20,5,-1,-4,-13,-5,-4
138050,-11,-4,-5,-7,-11,-7,-6,-2
138106,23,-1,-2,-3,-2,1,3,9
138155,2,16,6,10,10,-2,12,8
138209,-25,-8,-3,0,3,2,0,-8
138258,2,0,0,1,-2,-2,0,-3
138312,18,19,1,0,1,11,1,-8
138372,-4,5,0,-10,-20,-6,-8,-8
138418,-12,-25,-5,-4,-3,2,-4,-4
138471,1,-35,-10,-5,-9,3,2,-1
138527,19,11,5,6,11,16,6,13
138589,5,23,6,3,1,-9,-2,-32
138649,5,17,1,-3,-2,1,-2,0
138701,-5,-37,-10,-3,0,9,2,6
138760,-5,-8,1,9,21,20,7,3
138814,7,2,-1,-5,-5,-6,-4,-4
138868,-6,1,2,3,4,-1,1,12
138927,14,10,-5,-11,-10,3,2,11
138989,-2,6,2,2,8,11,-1,-5
139046,19,20,4,1,-8,-4,-4,5
139106,-4,-9,-2,2,0,-7,-1,-3
139161,5,11,-2,-11,-20,-8,-3,0
139214,-2,6,0,-1,0,4,0,-31
139272,-3,-4,1,8,14,23,11,-6
139332,-4,9,-1,-5,-2,-2,-1,4
139393,-8,-7,-2,-3,-6,-11,0,-1
139448,-16,8,2,-2,-5,-2,2,-7
139496,23,23,7,4,5,14,0,-11
139549,-16,-4,-5,-4,-5,-3,-7,-9
139610,9,10,4,5,6,6,2,7
139665,-16,5,1,0,3,8,-2,4
139714,-23,-11,1,0,-2,-9,-1,-6
139766,-7,5,-1,0,-1,2,0,0
139818,13,15,1,-3,-7,-9,-3,-1
139874,-3,5,0,3,3,9,2,-10
139923,7,-18,-9,-8,-12,-20,-14,3
139978,-5,9,-1,2,6,7,4,4
140029,20,-8,-5,-3,2,-2,-1,9
140081,-16,-37,-10,1,4,0,0,5
140134,10,9,0,2,7,12,5,1
140188,15,6,0,0,-3,-6,2,8
140241,-24,5,-1,1,5,4,-1,-6
140291,33,4,1,0,7,19,4,3
140343,6,-6,-5,5,10,7,0,-8
140398,7,4,-10,-21,-29,-22,-26,-7
140451,-2,8,2,1,10,27,-1,-1
140501,-1,-4,-1,2,2,-34,-4,-5
140558,-20,-14,-5,-3,-1,3,-3,16
140606,-4,-4,1,8,16,11,0,-21
140659,-6,-4,-6,-4,-5,2,-3,0
140716,9,9,1,3,11,14,7,1
140778,9,-91,-21,-6,-13,-12,-12,-21
140824,-16,-18,-7,-9,-19,-33,-11,-7
140879,6,-13,-7,-6,-5,9,1,-4
140928,15,14,0,-2,-2,-2,3,-4
140981,25,-1,-1,-2,-2,-2,-13,0
141037,5,5,6,5,5,14,4,12
141086,-18,-15,-1,-1,-2,-3,-10,-5
141138,16,-4,-4,-5,-5,-5,-1,-3
141203,9,28,8,0,0,-4,0,-2
141250,3,-1,2,2,1,-43,-5,-14
141306,-14,7,4,8,17,36,9,19
141366,-32,-15,-2,6,17,29,7,-4
141410,12,37,4,-2,-6,-15,-5,-4
141464,7,-11,-4,-10,-8,-5,-6,-7
141514,7,26,6,7,8,1,3,2
141566,2,-6,-3,1,8,24,2,-7
141628,13,32,7,-6,-8,-14,-3,-1
141672,3,-31,-8,-1,-3,1,-3,-10
141727,-2,17,6,8,7,16,6,15
141776,-22,-32,-6,5,12,19,9,1
141829,-3,-7,-4,0,-2,1,-7,-5
141880,16,4,0,1,9,-8,5,5
141935,29,-2,-7,-3,-5,2,0,25
141991,8,33,7,8,3,5,0,3
142038,11,13,3,6,9,12,9,7
142100,-17,-29,-7,-5,-3,1,-4,-2
142152,6,36,1,5,9,1,11,5
142205,11,5,-2,-7,-5,1,2,11
142258,-8,-19,-7,-2,-4,-11,-2,-9
142314,3,-28,-10,-1,4,7,4,2
142362,3,-3,-2,-9,-17,-12,-1,4
142420,-6,7,-2,-5,-3,1,-2,-1
142475,16,11,3,12,15,12,9,2
142526,8,10,0,-4,-7,-6,-3,6
142577,-39,-9,-10,-14,-17,1,-11,-5
142639,-3,10,2,-7,-9,-30,-12,-7
142699,16,28,6,3,4,-2,-7,-7
142766,16,-3,1,-3,-7,-3,-8,7
142819,0,9,6,5,0,-29,0,-3
142871,9,7,0,0,2,-1,4,-3
142924,-14,-7,-1,-3,-3,-2,-4,-7
142977,12,10,0,4,6,4,2,2
143029,-2,-42,-14,-20,-32,-39,-19,-7
143084,-5,0,-1,-3,-5,-11,-2,-8
143142,-6,21,3,2,5,13,4,9
143195,5,6,5,4,7,12,3,6
143247,4,-30,-8,0,4,-6,1,-4
143300,-4,-3,-4,-5,-9,-10,-5,-3
143351,-4,0,0,-4,-5,3,-3,-2
143405,-7,-10,-3,-1,0,-1,-1,-5
143465,21,7,2,-3,-6,26,-1,14
143525,2,12,-2,-3,-1,4,-3,16
143578,-2,3,-1,-2,1,-12,-4,-11
143634,2,-30,-5,-3,-3,0,1,27
143682,-10,-28,-9,-8,-10,-10,-1,-10
143737,6,5,-1,-4,-9,-20,-4,11
143787,-3,1,0,-1,-3,-7,2,-23
143839,-8,-4,0,0,-4,-6,-3,2
143897,-9,10,-1,-4,-4,-3,-1,-4
143945,-3,-5,-3,-2,-8,-37,-5,-4
144004,-1,33,10,6,9,20,8,2
144065,2,12,1,-1,3,10,5,9
144116,0,3,3,6,12,23,8,-3
144170,-7,-1,5,1,-5,-27,2,1
144222,3,2,1,-1,4,16,3,15
144273,6,-5,1,-3,-1,-3,-3,0
144330,-9,-28,-4,2,0,-33,8,6
144385,-14,-18,-5,2,1,-7,4,-2
144450,15,-23,6,16,25,34,15,40
144510,1,11,3,4,4,14,3,-3
144574,-3,-10,1,0,5,15,5,1
144627,6,-3,0,-2,-10,-14,-2,3
144683,5,3,-2,-2,1,3,4,-4
144748,-56,-5,-9,-4,-4,-8,1,-14
144810,6,36,7,3,3,3,1,1
144860,22,26,9,3,9,21,5,14
144914,-10,-2,-3,-9,-17,-38,-12,-7
144970,-3,-2,0,-2,-3,-11,-4,-11
145026,-2,7,1,0,2,13,6,-4
145086,-2,1,-1,1,3,0,-2,12
145144,2,2,0,0,0,2,1,0
145205,15,8,2,1,-1,-1,-1,0
145265,2,10,1,-3,-3,-6,-6,-9
145319,22,4,0,3,3,5,3,4
145372,5,1,6,8,10,15,7,5
145428,-14,-2,1,1,3,7,4,-7
145490,2,1,-1,-3,-1,-3,3,2
145552,-3,7,-3,-1,-2,-7,1,-11
145606,5,-23,-10,-1,-5,-13,-3,22
145655,11,-1,-2,-2,-2,-3,-2,-6
145707,28,13,6,5,4,12,10,6
145767,-19,-9,-2,-1,1,7,3,-14
145813,16,20,3,0,-2,1,-1,7
145864,-15,-58,-6,1,0,11,2,0
145919,-42,-34,-7,2,3,4,4,-21
145971,-1,0,-4,-5,-2,2,-2,1
146029,11,13,4,-3,-6,-4,-1,-26
146085,12,2,2,1,1,3,-3,5
146136,-6,-33,-9,-9,-13,-3,4,1
146188,-12,4,4,8,11,34,7,4
146250,-6,20,2,0,3,-5,2,7
146299,17,10,12,14,21,57,18,10
146354,-4,18,1,-4,-2,3,-8,-13
146411,-12,-2,-2,-4,-4,7,-1,-10
146473,19,-2,4,-1,-2,1,5,22
146534,0,14,6,6,4,11,4,20
146588,2,0,-1,-6,-9,4,-4,3
146637,0,9,-1,0,-3,10,-3,5
146696,14,6,-4,-3,-2,-32,-10,6
146743,5,-5,-4,-2,-3,-4,0,2
146795,3,0,1,2,4,11,10,-8
146852,29,15,1,-1,3,12,2,-6
146902,14,7,5,7,13,36,5,4
146953,-3,17,6,0,-1,2,2,-2
147012,-7,-29,-7,-1,5,2,-1,-5
147076,17,12,-1,-3,-3,-3,-4,-2
147124,9,7,0,-2,-2,-4,1,4
147178,7,8,5,8,10,26,7,0
147230,6,-2,0,-1,-1,-3,-10,16
147296,15,13,0,4,7,17,2,-4
147344,-26,-4,-1,4,8,16,10,14
147399,2,-3,-6,-5,-11,-8,-9,-5
147455,-16,-9,-4,-3,0,1,3,-14
147516,16,17,12,5,8,-1,2,4
147566,8,13,4,5,6,4,4,-6
147629,-1,13,0,0,-3,4,-1,-3
147687,-3,11,2,0,-1,-2,-1,-12
147734,0,12,4,1,4,8,10,3
147786,-16,-12,-4,-14,-18,-8,-6,10
147850,13,-3,-3,-3,-5,14,8,-9
147898,-3,-1,2,-6,-9,-9,-3,1
147950,8,17,3,4,7,7,-2,-6
148009,23,-2,1,-2,2,2,-5,-11
148056,-32,-16,5,-1,-9,-25,-7,-27
148107,-3,-14,-6,4,9,9,11,-5
148160,-11,-12,-1,4,-2,-18,-7,14
148213,-6,19,5,2,2,-11,-3,-14
148264,-5,5,1,0,2,-33,-4,-2
148321,39,6,-4,3,0,-2,0,46
148370,13,-4,-9,-6,-37,-7,2,71
148425,-2,-11,-3,6,11,28,9,23
148475,8,-26,-8,-16,-87,-10,1,34
148527,9,-7,-11,0,-16,-1,-1,14
148581,39,13,0,2,-18,6,2,4
148634,-15,-1,2,-8,-70,-6,-9,-37
148690,18,1,1,8,22,8,6,6
148754,-97,-10,1,4,11,5,4,-9
148814,-12,11,-3,-10,-13,-28,-13,25
148869,0,-1,0,3,-3,-12,4,-6
148917,-10,-2,3,2,10,-3,-1,6
148971,-4,4,2,-3,-22,-20,-5,-3
149027,-12,17,12,5,19,5,-7,11
149075,10,14,10,11,18,40,6,-12
149129,8,-8,-1,5,39,6,5,26
149181,-12,7,7,0,6,5,8,18
149232,-2,4,6,5,5,13,3,5
149285,12,-13,-6,-4,-14,0,1,1
149340,23,0,-5,-15,-38,-30,-10,8
149389,-17,7,9,6,10,1,2,-29
149449,-24,33,10,-7,-16,-15,-9,-16
149495,-18,19,8,0,-18,1,0,4
149546,16,-4,-2,2,-1,0,4,-1
149610,-34,-8,-6,0,-6,20,0,4
149654,-23,16,4,3,6,19,8,-87
149708,2,-3,1,1,13,-4,-6,-22
149757,16,9,-4,-6,-11,-16,-9,-25
149810,1,-5,-1,2,-7,4,-4,6
149868,10,-12,-8,-1,-4,1,2,3
149924,-6,1,8,4,6,-2,3,9
149975,-4,10,1,0,-3,2,5,6
150032,12,8,3,2,-5,3,3,-2
150086,1,12,4,2,9,0,2,-16
150142,13,3,1,3,3,-18,-3,-52
150194,-13,-13,-4,1,4,14,4,-4
150245,-13,4,1,9,25,23,8,-2
150298,-7,4,-1,-6,-18,-70,-17,-66
150357,8,-12,-9,-9,-16,-23,-11,-33
150410,-18,-8,7,4,-9,-29,-3,-20
150464,-17,9,3,1,-9,2,-3,23
150519,-27,-28,-10,-13,-24,-43,-13,-6
150572,15,21,4,1,-1,2,-2,-41
150620,-10,-16,-8,-8,-8,-15,-8,3
150673,17,8,-5,-6,-15,-2,-8,13
150726,-22,3,-6,-19,-28,-23,-9,27
150778,14,-11,-5,-3,-2,17,-1,-22
150840,-40,-16,-5,-2,2,1,1,-31
150885,8,-2,-1,-3,-5,0,0,-3
150943,10,5,0,2,3,2,2,8
150992,-19,-1,-2,-2,1,-9,4,-7
151049,23,15,5,5,4,7,5,5
151101,-16,-13,-1,3,4,-9,9,0
151161,6,-5,-1,-5,-17,-46,-11,25
151208,21,18,5,-4,-3,-4,-4,-2
151261,22,8,7,10,12,-1,20,54
151311,-1,-9,-6,-4,-1,10,3,15
151363,13,-10,-2,8,20,25,10,37
151422,-2,-16,-3,3,5,4,8,-10
151469,-8,-7,-6,-5,-3,10,1,30
151522,2,7,8,6,7,-19,8,12
151573,9,-2,-3,-1,-4,3,6,19
151625,-10,19,-5,-12,-16,-14,0,-15
151685,-8,0,-7,-3,-7,2,-4,-44
151748,-11,-20,-5,-1,-1,-14,-8,-1
151812,19,13,4,3,7,3,-3,8
151860,11,-1,0,2,3,16,-3,-8
151912,-13,-5,-2,5,10,22,10,21
151963,-10,20,5,1,-4,-20,-10,-18
152017,14,25,6,-1,-12,-23,-6,5
152073,-20,-48,-15,-27,-47,-49,-28,-27
152137,-45,-25,-7,-3,0,11,-6,12
152190,19,23,9,4,-2,-13,1,4
152250,-3,-16,-6,4,11,7,6,80
152301,-4,4,-2,-2,1,-42,7,-35
152354,0,1,-7,-3,1,-6,5,-3
152406,13,3,2,1,2,11,4,18
152462,12,1,7,7,0,-7,0,10
152521,-19,9,0,-3,-1,-7,-6,-22
152564,-1,15,8,3,-4,-27,-6,-17
152621,-2,-5,-1,2,3,9,6,-16
152676,9,0,-2,-4,-5,-7,3,31
152730,1,-3,-1,0,3,13,6,19
152789,-6,4,3,1,4,16,0,-5
152842,1,16,7,1,0,17,4,0
152895,-20,23,9,-10,-27,-32,-18,-9
152946,-14,-1,-3,2,-2,6,6,-30
153001,-1,11,1,-2,-3,-6,-10,3
153053,10,4,1,3,1,0,0,23
153110,-22,-30,-6,-3,-2,1,-1,4
153172,10,-2,-4,5,3,11,-13,-30
153233,-1,-11,0,3,-1,-1,3,24
153293,-7,-10,-8,-10,-12,-6,-5,-19
153347,-12,-11,-5,2,4,-7,0,9
153396,-6,7,-3,0,3,12,4,-9
153455,16,30,6,1,3,14,2,4
153503,-8,-7,-2,1,4,8,6,-19
153555,-11,7,0,-4,-2,-5,-5,-11
153606,-9,-8,-1,1,5,-6,-3,-9
153658,0,-9,-9,-15,-11,7,-4,-28
153711,-14,9,2,2,-1,5,-6,-19
153771,1,-18,-4,-4,-3,4,-3,1
153831,-12,17,8,10,7,-16,10,-12
153891,14,4,1,0,3,-3,0,-19
153945,-12,-10,-5,-7,-10,-12,-7,-1
154002,-2,-9,-9,-13,-16,-54,-10,-16
154049,10,12,-1,-4,-5,-14,-5,10
154104,-34,-22,-15,-23,-29,-18,-18,-40
154155,6,0,0,-1,-6,-2,-5,-5
154213,7,5,-1,2,3,4,15,10
154274,-5,2,0,-4,-12,-6,-12,8
154335,12,-5,-1,5,5,7,5,15
154396,19,22,4,-3,-13,-8,-4,6
154450,-12,-16,-8,-1,7,25,9,7
154499,-27,6,0,6,12,9,0,8
154552,10,-15,-2,3,2,-17,1,45
154605,-19,11,1,-4,-6,3,-2,2
154657,-1,-7,-4,1,0,8,11,3
154717,19,12,7,4,3,13,-1,-5
154777,13,39,5,2,1,0,0,8
154834,-19,15,2,-3,-6,-3,-3,-10
154881,-5,-20,-6,-1,0,1,0,-18
154937,-12,-25,-10,-5,-1,16,4,-47
154987,-6,23,2,4,5,13,8,18
155039,-2,-16,-10,0,-3,2,3,-4
155092,10,-6,0,7,6,-21,4,12
155147,4,-2,0,-3,0,1,-3,35
155206,-4,-6,-5,-9,-8,-3,-8,4
155257,-3,-29,-9,3,7,-16,2,1
155322,3,30,7,0,3,-3,1,24
155377,-5,-30,-6,-3,2,13,2,12
155431,22,22,10,9,4,-6,4,3
155482,-14,13,1,0,5,-8,3,8
155537,-39,-18,-10,-1,2,-10,-3,-8
155591,52,45,19,12,13,21,8,16
155640,-3,7,7,6,15,-1,8,-2
155691,-27,-5,-6,-3,0,14,10,-28
155744,16,9,6,8,14,23,8,17
155795,13,10,1,-5,-12,-4,-4,3
155849,10,0,0,-2,-2,-3,4,7
155908,-5,9,2,2,1,-18,-2,-18
155955,1,2,0,3,-19,-13,-3,-26
156015,33,-4,8,2,-6,-4,4,52
156075,26,-11,-3,-5,-33,0,3,-45
156126,-15,-10,-4,2,11,25,4,-37
156180,11,29,16,0,-13,-7,-8,-21
156233,-3,8,7,6,14,43,11,12
156284,4,-14,-12,-3,-16,-8,-1,-1
156337,-12,-30,-9,1,8,4,-3,-8
156391,-5,-5,0,0,-8,17,2,18
156442,13,25,8,-3,-8,0,2,-9
156496,11,-6,0,3,7,5,7,41
156546,-8,11,8,9,18,19,9,-7
156599,8,-7,-2,4,-6,-8,-2,-15
156652,6,-1,-6,-15,-28,-77,-14,2
156708,15,-2,1,4,5,0,0,9
156758,-8,8,-4,-5,-2,-6,-1,7
156810,-7,-8,-4,-3,-1,-9,0,12
156862,-22,0,-2,-2,-5,3,0,0
156914,-9,2,-1,-9,-6,11,-6,-13
156969,-11,-33,-10,6,7,-3,5,0
157021,5,-14,-12,-15,-31,-28,-8,-8
157071,-15,-2,2,10,13,24,9,43
157124,-28,-40,-16,-9,-7,-11,-5,-18
157176,-14,9,3,-3,-12,-23,-9,-17
157229,2,11,3,6,5,4,0,-4
157284,0,-12,-4,4,8,14,1,-7
157344,3,-19,-13,-7,-1,11,1,22
157395,15,18,13,7,3,1,2,-17
157446,17,1,-13,-4,-1,6,-4,17
157499,15,13,6,4,2,6,7,25
157552,-6,-5,2,0,-10,-5,-4,11
157605,-1,14,8,3,2,6,3,4
157665,-9,3,3,2,-3,-14,2,2
157726,-3,-23,-7,-4,-10,1,-4,-29
157776,-10,10,2,7,11,18,1,10
157830,-6,2,-2,3,2,-6,3,-9
157885,-2,41,7,-6,-15,-10,-6,-7
157934,-7,4,-3,-5,-9,2,-5,-24
157987,-17,-19,-7,0,-3,-24,0,8
158039,7,-20,1,0,1,-10,4,32
158092,-3,-2,-3,1,-2,-1,-1,-28
158145,-10,-7,-5,-6,-6,-6,-4,0
158198,-32,-17,-12,-19,-28,-4,-12,-3
158250,3,-2,-1,0,-1,-3,-1,-40
158301,-6,7,4,11,8,-14,7,29
158355,-2,-3,0,0,1,-1,-1,-1
158407,-10,-1,-1,-1,0,6,-2,-53
158471,-6,-7,-1,1,2,7,-1,31
158538,10,18,10,13,13,11,9,26
158587,30,6,-1,-6,-7,-5,3,51
158644,-12,12,3,5,8,0,1,7
158698,1,8,6,12,20,21,8,-7
158763,1,5,-4,0,-3,-1,2,-8
158803,-11,3,-5,-18,-32,-8,-13,-33
158867,13,24,3,8,16,12,8,-6
158925,-21,-21,-3,-1,-8,-9,-11,-9
158976,-13,-33,-6,0,4,18,6,-11
159031,-25,-26,-3,2,1,8,-3,-57
159091,-14,-11,-6,0,-6,11,3,22
159144,10,12,1,-2,-1,-2,0,-2
159199,-17,-8,-2,1,5,3,6,9
159255,-5,-28,-10,0,1,-11,0,-21
159310,25,44,7,1,2,8,9,4
159360,-6,-1,-4,-3,-2,3,-4,-15
159420,-2,-16,-6,-3,-2,-3,-2,16
159473,-2,1,-1,0,-1,0,-1,-20
159531,26,-10,2,5,6,4,12,68
159577,-5,14,-2,-1,1,6,1,5
159634,-3,-14,-5,-1,-2,-1,0,10
159688,5,-1,0,-1,1,15,3,8
159751,5,7,3,5,0,0,0,24
159803,7,22,3,-6,-20,-15,-5,24
159856,-7,-6,-2,-7,-6,1,-8,-68
159907,1,22,1,-2,-4,-6,-2,0
159958,3,18,1,-3,-6,-3,-5,-8
160013,22,-9,-3,0,2,6,5,-16
160065,-24,-6,-6,-10,-14,-3,-10,-18
160118,5,15,3,-3,-3,-1,-4,-20
160169,2,19,2,5,12,6,4,63
160228,1,-3,-3,-2,-2,4,0,15
160275,2,20,3,-4,-8,2,-2,-8
160328,-7,-11,-4,-2,-2,12,1,37
160387,-10,-25,-5,2,7,4,0,27
160436,-2,-2,-3,-5,-8,-2,-5,-1
160495,7,-8,-3,-3,-4,-2,1,3
160557,18,11,5,4,8,7,7,11
160606,-1,-4,-2,1,0,1,1,26
160658,-18,-22,-8,-1,2,-4,-3,-57
160710,4,-6,1,0,2,-2,5,24
160764,11,-9,-3,-3,-1,3,4,26
160816,3,-17,-3,-4,-4,1,1,21
160868,-5,21,0,-5,-4,6,-2,-1
160922,-20,4,-7,-9,-11,-5,-4,-2
160981,0,2,-2,0,-1,13,1,-1
161035,-10,-10,-8,-4,-6,-5,-3,-22
161088,8,7,2,1,1,2,0,5
161138,4,26,4,3,1,-2,-3,-27
161190,8,-4,-3,0,1,5,-5,-4
161250,7,39,12,5,-2,-40,-6,-30
161309,-7,-4,-4,-7,-7,-1,-3,-2
161357,4,12,8,5,5,9,-1,7
161414,-7,-7,-5,-5,-9,-11,-4,-11
161477,6,-5,-3,1,0,-1,-4,0
161539,6,21,4,-4,-5,3,1,-2
161589,-1,-13,-6,-1,0,1,4,-6
161641,-2,17,6,-14,-20,2,-9,-8
161702,7,14,1,3,8,11,6,14
161748,-4,-5,-9,-17,-18,-12,-6,-8
161801,-4,3,-1,1,0,9,-5,8
161851,-5,-27,-9,-2,1,8,-3,2
161908,-28,-33,-11,-3,-1,-14,-7,13
161970,-10,-4,-2,3,10,14,2,1
162032,3,24,0,-6,-11,-8,-3,-3
162084,-14,-11,-4,2,1,8,-2,9
162136,-13,-38,-6,3,1,1,2,10
162192,-7,-28,-5,0,4,3,-1,8
162239,-3,-2,-4,-4,-2,2,2,-18
162294,1,-7,-3,-4,-7,-8,-3,-2
162351,2,-13,0,4,6,-26,2,4
162416,-2,-5,-2,-1,-2,-6,-1,-1
162479,-5,-5,-1,-9,-15,-1,-10,-18
162525,-9,-24,-5,2,2,-3,0,-9
162582,3,-2,-1,-1,0,0,1,7
162635,2,-2,-2,3,3,0,2,21
162699,-5,24,6,7,10,19,6,-7
162759,2,14,7,1,1,4,-2,-4
162810,-17,-18,0,1,0,-11,-3,-1
162865,5,2,2,-5,-13,-7,-5,-10
162919,-4,-3,-6,-2,1,15,7,15
162967,12,20,3,-1,3,8,2,9
163031,-16,-20,-13,-17,-28,-26,-22,-5
163081,-2,0,-1,-2,-7,-26,-8,-9
163132,-2,-8,-1,0,3,2,-6,-15
163187,-5,-16,-3,-2,-1,-2,-2,-20
163237,2,-12,1,2,4,2,2,-15
163299,-1,-1,-1,-6,-7,-8,-7,-34
163359,22,30,9,2,-1,-2,-1,33
163420,-6,6,-3,-4,-4,-5,-3,-1
163471,-5,-8,2,0,-2,-4,-10,-8
163524,0,-10,-3,-1,2,2,5,-11
163584,-20,-18,-13,-17,-26,-27,-23,-10
163644,-6,-11,-7,-2,-3,7,0,0
163694,4,-14,-2,-5,-2,-6,-13,1
163756,10,11,3,5,9,8,7,8
163808,-14,-20,-3,-4,-8,-6,0,-7
163861,3,9,2,3,3,3,3,-2
163913,20,15,2,1,-2,-1,3,-3
163970,7,7,2,1,9,7,-1,2
164018,-1,7,0,0,-2,-2,-2,-13
164073,-2,-7,-7,-1,5,15,7,2
164121,-4,-7,-1,-1,-3,-1,-6,11
164176,-8,-21,-2,1,-1,4,2,7
164229,-9,-10,-4,-6,-6,-1,5,1
164281,-12,-11,-1,1,4,10,1,-8
164333,-3,-6,1,4,4,-15,-1,-6
164385,-6,-8,0,3,-3,-4,1,-3
164437,-23,1,-1,5,8,12,9,5
164499,-3,2,-4,-6,-4,-6,3,-5
164563,4,10,4,6,5,5,2,16
164612,-5,0,-5,-14,-19,-28,-12,-9
164665,2,-7,-5,-1,4,5,4,-1
164715,-13,-20,-8,-12,-13,-10,-8,14
164769,-7,14,2,1,-1,4,-4,0
164820,-15,-3,-1,2,-2,4,-2,-11
164873,11,11,0,2,0,5,3,0
164927,-9,10,4,0,5,-8,6,-2
164978,10,0,7,5,7,15,5,14
165040,9,10,0,-4,-3,-5,-5,10
165092,-20,-19,-1,-1,-1,-2,-4,-20
165143,-9,8,7,0,8,8,1,-5
165196,-1,3,-6,-11,-17,0,-6,-24
165246,6,11,2,4,6,12,1,16
165301,-6,-18,-8,-15,-18,-15,-7,-28
165353,4,0,0,0,0,-1,0,-7
165405,-7,6,1,-3,-9,-5,-2,-1
165460,24,38,10,7,6,6,9,50
165515,1,-2,-2,1,1,-1,0,-14
165562,-1,-12,-3,-5,-7,-11,0,0
165615,4,-2,0,2,1,15,9,2
165677,-11,31,3,2,5,4,7,7
165724,-3,4,1,1,4,9,3,-19
165776,8,-14,-2,3,13,21,6,8
165826,-8,-5,2,-1,-1,4,-2,-4
165878,-15,-13,-4,-5,-14,-21,0,-6
165937,4,3,0,-2,-3,-1,0,-4
165984,-4,24,6,-1,0,-23,-1,-12
166039,-1,-10,-2,-1,4,8,1,27
166089,3,3,0,-7,-8,-11,-10,-21
166150,-5,-24,-3,2,3,1,-2,-6
166210,2,2,-1,-2,-3,-2,-7,14
166263,-5,-12,0,0,0,0,-2,-5
166315,2,-5,-4,-3,-5,2,-1,13
166367,9,37,12,3,5,2,-1,2
166419,2,4,-1,0,2,-2,-2,-11
166471,0,3,0,-4,-4,18,7,3
166523,7,0,-6,-13,-17,-36,-9,-4
166577,7,35,2,-4,-4,0,-2,-16
166630,-9,-16,-9,-2,6,6,1,-2
166689,-7,2,3,1,7,2,0,-8
166751,2,9,0,0,-2,4,-2,3
166811,-4,14,3,5,6,-8,6,24
166864,-7,-2,3,5,8,6,8,-16
166915,5,14,3,2,6,25,5,55
166967,10,16,6,1,-6,-8,-3,1
167020,6,1,1,2,0,7,-6,19
167072,0,-8,-7,0,1,3,-7,-5
167128,5,-13,0,7,13,24,6,2
167192,-5,-6,-1,-2,-2,-1,-3,-23
167254,18,33,8,2,2,1,2,20
167302,-5,3,0,-2,-7,-3,5,2
167357,-4,-3,2,2,4,-4,6,36
167412,-2,-10,-4,0,-1,-18,7,0
167460,0,-10,-1,1,2,4,5,11
167515,-8,7,3,2,6,14,0,13
167566,4,-8,-5,4,6,-14,-1,-16
167619,-5,7,2,5,4,-3,0,-11
167671,-5,-9,-2,-1,-4,4,-1,20
167735,7,4,2,2,4,2,0,12
167793,-4,-6,2,4,2,-17,-7,-13
167854,4,13,5,4,-2,4,-5,-10
167905,-6,-17,-3,1,1,6,4,17
167958,-6,17,2,-1,3,-2,2,-28
168011,-4,-20,-6,-6,-5,-12,-5,-25
168064,0,7,-1,-2,-2,-14,-1,-9
168121,3,0,-1,-1,5,9,2,-14
168168,-6,-6,-4,2,8,19,5,-17
168220,-17,4,0,-5,-15,-28,-18,-41
168282,-12,-1,1,3,5,14,-1,-51
168332,-7,-1,-8,-6,-4,-13,-4,-11
168392,8,1,1,4,5,5,3,-8
168443,-8,-9,-1,0,-3,-6,-1,-17
168497,1,3,2,1,-3,-5,-6,-42
168557,-19,-36,-9,-1,4,-3,2,14
168610,11,9,5,-1,-1,11,-1,13
168668,2,-7,-7,-6,-16,-32,-14,0
168729,18,1,-3,-1,-1,-7,-3,2
168775,1,3,2,3,4,12,11,14
168835,17,-4,-5,-1,3,1,-2,-29
168886,16,33,6,-3,-4,-4,-4,16
168941,-3,3,0,1,5,10,3,6
168993,0,-1,0,-6,-9,-4,-3,-7
169046,5,18,8,8,13,27,8,35
169098,-1,-9,-6,-3,-5,-15,-2,5
169153,-10,-16,-1,2,-1,-6,-1,15
169216,-4,-7,-8,1,6,3,4,5
169278,4,0,1,0,-5,-4,-8,-16
169339,2,-7,-4,1,3,0,-1,53
169398,-4,-1,-1,1,2,1,3,-17
169442,-10,9,3,1,0,3,1,-25
169496,-3,8,3,1,2,-1,3,6
169548,-6,-21,-2,3,9,10,10,9
169600,-20,-6,-1,1,-2,-7,-3,-13
169655,2,5,1,-1,3,-7,-3,-6
169709,-12,8,0,0,1,-3,-2,-3
169757,3,10,-1,-6,-6,-14,0,-6
169820,-3,-13,-3,-5,-10,-5,-3,0
169883,-2,-18,-1,1,0,-8,1,1
169929,-16,-18,-4,2,6,5,-1,-14
169982,0,-1,0,1,7,11,-1,-2
170035,4,14,2,0,-1,0,-2,-26
170089,5,-10,-1,1,4,4,6,7
170141,7,13,1,-1,-2,-2,-4,-9
170199,-10,-8,-1,0,1,10,-1,-5
170261,-12,15,0,-8,-14,-10,-7,-24
170321,2,27,8,2,1,-7,0,-1
170373,-15,-64,-12,0,3,5,3,-24
170427,-10,-20,-9,-5,-6,-13,-2,6
170479,-3,-7,1,6,18,15,12,28
170533,1,9,-2,-3,1,1,-4,27
170582,-4,3,-3,5,12,5,7,-10
170634,-2,-13,-5,-2,-4,-17,-7,-17
170687,6,4,-1,6,12,15,7,2
170740,1,1,-6,-9,-21,-22,-4,6
170801,-19,5,1,-2,1,3,1,5
170860,-5,-10,-1,3,5,-9,0,5
170915,5,-9,5,10,23,20,9,13
170964,-7,-27,-8,-12,-12,-13,-10,-63
171018,-8,-15,-5,-3,-8,-15,-5,-37
171071,4,11,-3,-8,-15,-9,-9,-5
171124,1,5,2,2,6,-9,6,-7
171184,-14,-11,-6,-19,-42,-49,-42,-73
171246,-12,10,0,2,9,6,4,26
171297,2,40,7,1,5,2,1,10
171348,27,7,0,-1,-4,-11,-1,4
171401,-5,-43,-4,3,3,1,5,24
171456,11,30,11,8,5,19,1,5
171506,-5,5,0,-2,-2,-1,-1,25
171557,-1,2,-2,-4,-2,20,0,2
171610,-11,-5,-2,0,1,-2,-4,-28
171662,4,-4,0,1,3,0,1,8
171716,-12,-36,-10,-4,-2,-3,0,-14
171776,5,7,-1,-6,-14,-11,-4,-25
171823,23,-6,-2,-2,-4,-9,1,34
171879,6,4,4,2,10,13,6,1
171940,4,-1,-1,0,0,-8,-2,18
171991,-8,-18,0,6,13,25,5,-38
172044,-9,-25,-12,-22,-38,-45,-24,-12
172097,-12,9,-3,-4,-4,-6,-4,-8
172151,-1,23,9,10,21,23,15,28
172203,-8,3,0,-6,-12,-24,-12,7
172258,8,23,3,0,-1,-26,-7,-2
172308,-7,-25,-8,-12,-19,-16,-17,9
172361,-10,-36,-7,-7,-5,-14,-8,-2
172421,4,22,-1,-7,-12,1,-1,-2
172481,6,-17,-4,-4,-1,-7,-2,18
172542,-1,10,2,0,-1,-15,-4,1
172595,0,-17,-3,1,0,-2,1,0
172644,-6,-17,-8,-7,-15,-31,-10,-7
172701,-5,-19,-11,-15,-15,-13,-9,-2
172750,16,23,9,5,7,6,3,5
172802,-2,29,10,5,2,-13,0,-12
172861,11,-8,-1,8,11,14,0,-12
172922,-6,1,-1,-2,-1,6,3,2
172968,-17,0,-1,-3,1,-2,-5,-10
173020,13,10,-1,-14,-25,-29,-8,5
173072,-29,-12,-12,-22,-30,-12,-26,-22
173125,-15,-11,-7,-10,-9,-12,-15,-25
173179,-1,13,0,1,1,3,0,-14
173230,7,12,3,6,9,1,-4,-6
173288,14,7,2,-2,-4,-12,-1,20
173335,5,13,3,4,6,11,5,25
173388,-8,0,-4,-2,-1,0,2,23
173440,-6,1,-2,-8,-13,-6,-4,5
173494,22,-3,-1,-4,-7,-12,-7,-27
173549,17,15,2,-2,-5,-16,-6,45
173597,1,-2,1,2,-1,-5,0,5
173651,-7,-15,-1,2,3,8,4,35
173710,-2,8,4,6,12,3,7,-2
173765,-21,-18,-3,-2,-5,-7,1,17
173816,19,-11,-4,-5,3,6,3,6
173872,16,-12,-8,-10,-13,-4,-6,12
173920,-1,-3,-1,-9,-14,-11,-7,8
173973,-2,-1,-2,1,6,5,3,-3
174033,5,-8,-4,-2,1,-1,-3,-10
174078,-4,5,4,4,2,14,0,1
174131,1,1,2,4,9,11,4,2
174191,-3,29,7,1,-3,2,-4,-36
174252,-13,-4,-4,-1,1,-14,0,-10
174311,5,-1,0,2,1,2,2,16
174364,-13,-13,-5,-4,-1,-16,-5,-7
174416,14,14,6,3,5,2,3,11
174467,3,-4,-1,-6,-11,-12,-5,0
174523,8,36,12,10,13,10,10,25
174575,8,-7,3,7,5,-5,-1,-3
174639,-3,-31,-6,-4,-4,-3,2,-1
174692,3,-15,-3,-4,-4,-4,0,17
174748,-17,0,-4,-3,-4,1,-3,-26
174798,-13,-9,-5,-8,-12,-10,-7,6
174859,20,5,2,-5,-6,-12,-5,44
174910,-19,-9,0,0,1,12,5,8
174968,18,19,2,5,12,10,5,17
175030,14,15,-1,-1,6,22,3,-7
175090,-5,-14,-7,-4,-7,-6,-3,27
175141,-1,-30,-8,-7,-13,-5,-1,16
175196,2,6,-1,-3,-2,-7,1,-3
175248,-1,-28,-5,-4,-7,-4,-5,-10
175301,10,11,-3,1,1,6,-1,5
175362,6,-39,-6,4,4,10,2,8
175414,-27,-14,-6,-7,-11,-2,-10,-26
175474,14,6,1,-5,-15,-6,-2,17
175538,1,-7,5,4,4,7,2,-5
175592,5,9,-3,-2,3,-2,-1,34
175647,5,-17,3,6,2,13,10,22
175699,6,-9,-3,-5,-5,-6,-5,8
175750,2,0,-8,-6,-6,-8,-1,-24
175803,-2,-2,1,5,13,10,6,-11
175854,1,-36,-6,0,4,3,-1,-19
175916,-22,-31,-4,-4,-11,-20,-5,-22
175976,3,9,0,-1,2,6,-1,-1
176026,-13,6,-1,0,1,5,-1,-5
176087,4,10,1,6,15,34,8,3
176132,5,-13,-1,-2,-12,-24,-3,5
176187,3,4,2,0,-11,-12,-7,-1
176239,16,25,-1,-9,-20,-27,-10,5
176290,-7,9,6,8,4,-5,-8,-26
176343,-6,-15,-6,-3,-6,-7,-4,3
176399,-3,2,2,2,3,0,5,26
176455,3,-10,-1,1,6,6,-1,14
176515,-1,8,1,5,10,12,3,8
176570,-16,-24,-6,-6,-4,-11,-3,-9
176621,3,-13,-3,-3,-5,-7,-2,-22
176673,-13,-21,-4,7,20,34,8,-3
176730,-13,-19,-3,-1,1,13,-1,-10
176779,15,31,4,7,4,13,3,13
176838,6,-14,-4,-1,2,-5,-1,2
176900,8,5,1,-1,1,7,-1,-9
176959,4,-13,-4,-2,0,-1,-2,5
177010,3,0,-3,-8,-18,-32,-8,14
177063,3,-2,-3,-1,-3,-7,-3,5
177117,-9,-16,-5,-2,-1,-2,-3,-3
177168,-9,1,-2,-5,-3,-2,-2,-13
177223,-3,7,-1,0,-2,-21,2,-14
177277,-11,-33,-10,-1,0,-5,-2,-2
177325,4,-9,-7,-8,-11,-7,-2,6
177379,15,14,3,7,12,11,2,18
177437,-5,-11,-1,1,5,15,2,-7
177502,-3,-34,-4,-5,-16,-14,-6,-1
177562,-3,1,1,2,6,7,3,-12
177612,-1,-9,-4,1,1,0,1,-3
177665,-2,6,4,-5,-8,-8,-2,-9
177715,1,6,-3,-4,-5,10,2,-1
177769,14,24,1,-7,-13,-14,-5,-3
177823,9,22,3,2,3,-3,3,-5
177888,2,-19,-3,1,1,4,1,-5
177942,-19,-17,-4,1,2,-6,0,-12
178003,-5,-20,-2,0,6,17,6,-9
178054,-13,-50,-17,-14,-21,-4,-12,-22
178105,0,-17,2,6,10,10,2,1
178159,10,0,0,1,5,20,5,16
178212,3,14,8,4,0,1,1,2
178271,3,8,3,2,9,10,1,12
178316,-13,-11,-2,1,4,-36,-5,11
178368,-2,3,-3,-6,-5,-6,-5,-2
178421,-10,-1,-7,-20,-28,-44,-39,-40
178480,-4,5,2,4,5,-2,0,-15
178542,2,-4,1,3,8,6,4,2
178602,7,7,6,10,8,-11,6,4
178656,-6,15,-8,-27,-42,-41,-18,-7
178713,-10,0,-4,-6,-11,-6,-4,7
178759,-1,-18,-17,-16,-28,-20,-10,-1
178815,7,-21,-2,9,12,27,9,16
178865,-6,7,-4,-1,-36,-8,-10,-44
178925,9,4,6,-2,-21,13,-2,-13
178985,-86,-46,-19,-2,32,-20,-6,-27
179037,-4,6,8,6,13,3,-2,-22
179090,-20,-33,-16,-11,-14,3,7,16
179143,-18,-9,7,17,14,10,4,25
179195,7,13,11,8,3,12,-1,25
179246,36,-3,-5,7,11,52,12,-15
179299,19,11,11,15,38,22,9,7
179354,0,7,-3,-4,0,11,-5,-49
179404,-19,-19,-5,-9,-13,-6,3,-48
179463,-7,9,-2,3,-6,-1,-12,-42
179524,17,26,17,-1,-12,-7,2,11
179586,-7,8,15,-1,-9,0,1,6
179635,-13,8,24,8,23,4,1,-1
179689,-12,-8,-15,-13,2,-1,-10,-46
179743,5,3,0,0,-13,-4,-7,-6
179793,0,-17,-9,-6,-12,-34,-1,-22
179847,-11,6,3,10,21,22,9,-6
179899,-27,16,16,11,13,7,2,-64
179951,-4,-16,-11,2,-12,-4,2,27
180004,11,27,15,-2,-3,-2,-3,11
180062,-9,2,7,7,6,1,-2,-19
180124,-13,-19,2,7,4,4,2,-20
180185,-4,6,9,-1,-18,8,-6,-59
180241,-3,18,9,6,7,10,2,22
180289,-15,-31,-13,-10,-15,-24,-5,-24
180342,1,-3,1,8,6,-3,11,8
180394,17,20,3,2,-1,8,5,61
180458,-6,5,4,3,-7,-20,-6,-14
180507,3,17,2,-6,-7,-16,-3,-10
180563,-14,-14,-8,-3,3,11,6,-4
180611,-16,-19,-5,-10,-15,0,2,12
180664,-15,-14,-4,2,0,-2,5,21
180721,1,2,-2,1,-3,-5,0,-6
180770,-4,-15,-10,-14,-23,-25,-14,-6
180823,13,14,6,-3,-2,-7,-5,15
180877,27,5,-3,1,3,-3,-3,1
180933,-44,-15,-2,12,19,27,8,3
180987,-1,-45,-17,-4,6,11,8,-1
181043,-1,1,4,6,1,6,3,-7
181091,12,13,13,8,5,16,7,14
181146,14,33,3,1,-8,-5,-5,27
181197,-11,-4,2,-4,-12,-8,-4,-1
181249,-6,-13,-10,-5,0,-18,10,28
181304,30,4,-3,6,8,7,13,9
181353,16,-3,-4,2,2,-4,-6,26
181407,-16,11,-2,-5,-7,-8,3,-13
181458,10,-2,-2,-1,0,-3,1,14
181511,-2,-12,-1,2,0,-1,-1,6
181564,28,32,17,1,-3,2,-17,46
181615,-2,-11,-5,-7,-2,-12,-3,15
181669,4,-9,-2,8,10,12,10,-7
181728,13,11,6,0,2,6,2,0
181781,-7,-15,-6,-1,1,3,4,0
181835,3,24,6,16,24,46,-3,-15
181889,4,-13,-9,-4,-7,-7,-17,-32
181940,-13,-2,-1,-4,-5,-21,-1,20
181995,-3,3,1,-7,-13,-9,-16,-7
182045,-17,-18,-7,3,9,-1,6,25
182097,-2,10,2,-2,6,7,-3,-62
182151,13,3,-5,-10,-9,6,-6,69
182202,10,11,-1,4,6,-2,4,-1
182255,3,27,11,4,0,2,-2,13
182316,17,-1,-4,-4,-4,-2,-5,-6
182360,3,-5,0,-7,-4,-16,-12,39
182412,10,8,3,-2,0,-1,-4,51
182475,-5,-7,-4,-10,-20,-11,-9,1
182539,-16,-8,-6,-1,-2,0,1,2
182583,-2,6,1,2,0,2,1,-3
182638,9,-8,-3,-3,-5,-9,-3,48
182689,8,-5,-4,3,9,7,4,-45
182742,0,3,-5,2,5,-6,1,-4
182797,-7,-3,-3,0,2,0,0,26
182850,16,27,7,1,5,5,-5,1
182901,-3,8,2,0,-3,-8,1,14
182963,3,3,0,3,3,3,2,-4
183011,-5,4,0,1,6,27,-1,-4
183070,-4,6,3,2,7,16,3,-10
183125,-10,-13,-1,-3,-1,-12,2,-26
183187,-8,-6,-2,-3,-7,6,0,19
183238,5,-13,-4,-5,-11,-11,-2,12
183290,-11,-11,-6,-6,-11,-15,-11,-87
183342,-32,3,-1,4,20,23,9,1
183395,-9,3,-4,-8,-4,0,-3,-8
183450,-22,-16,-6,-7,-9,-8,-5,-13
183500,6,-11,1,9,15,23,10,29
183552,-19,-11,-4,3,2,8,-8,-17
183605,-7,-6,-2,-5,0,-2,1,15
183657,-5,-3,3,-1,-4,-20,-9,-1
183711,-24,-31,-12,-16,-32,-37,-14,-15
183764,-17,-33,-13,-9,-9,23,-7,-48
183815,-6,2,0,2,5,1,0,-22
183874,-5,9,5,-1,1,-4,3,22
183920,-9,3,0,-2,-2,1,1,-8
183972,-1,-3,-5,-1,0,0,0,3
184025,-24,-15,-1,3,4,2,0,-24
184079,-4,-1,-5,-7,-9,-11,-1,-8
184137,-6,9,2,2,8,-14,0,8
184190,-11,3,1,2,5,7,-4,-47
184244,26,30,2,7,11,19,2,25
184294,-7,-6,-7,-16,-23,-11,-7,3
184344,-8,0,0,3,5,5,4,1
184396,-9,23,-2,-5,-2,7,-4,8
184460,-5,9,-6,-19,-43,-59,-30,-47
184521,14,20,0,3,9,5,4,13
184585,7,-7,2,1,-7,-2,2,0
184635,4,16,-6,1,9,-1,0,14
184686,-1,-8,-4,-11,-13,-7,-4,18
184741,-1,-7,-3,-1,3,7,4,7
184794,-2,-3,2,5,7,9,4,9
184857,-21,-12,-6,-2,-2,-7,-5,-13
184918,21,19,3,3,7,18,4,-3
184970,-4,-18,-6,-5,-2,6,-2,-27
185023,10,0,-6,-5,-4,-20,-3,3
185079,-15,-20,-12,-19,-24,-17,-9,0
185143,-4,-2,0,0,-1,10,1,-2
185204,-11,23,4,-2,-7,-16,-5,-7
185264,6,2,1,4,10,22,3,17
185315,-6,-24,-11,-1,5,7,7,4
185368,0,3,3,0,0,-7,1,-16
185420,-5,-7,-8,-5,-7,-7,-4,10
185471,6,44,12,-3,-7,-7,-6,16
185527,1,-15,-12,-10,-12,-3,-4,-9
185577,-13,-34,-9,-3,-5,-2,0,-2
185630,1,6,5,8,14,14,6,12
185683,-2,-7,-1,-3,-5,-9,-7,-13
185740,-1,-6,0,0,-1,-7,3,6
185804,1,4,-1,0,0,-7,2,-1
185863,4,12,1,6,8,8,1,5
185914,-3,0,3,4,11,6,2,-16
185967,10,6,-2,-3,2,0,3,-7
186022,-14,-16,1,-4,-5,5,-6,6
186072,-7,12,3,-2,-8,-21,-14,-31
186127,0,-5,-2,3,5,7,5,14
186183,-4,-15,-4,0,0,0,-1,-5
186248,-4,5,-3,2,5,14,5,3
186309,-5,-2,-2,-4,-6,1,-5,-15
186359,0,0,1,5,11,6,1,26
186411,7,-2,6,3,-3,-1,-1,13
186463,-1,-10,2,7,11,12,3,1
186516,-2,-6,-3,1,5,2,1,-2
186570,-8,-4,0,0,-1,4,1,-6
186620,-1,-14,-6,-10,-15,-21,-12,-27
186674,-8,-2,-3,-2,-1,-22,-6,-3
186732,-2,-1,2,5,8,27,3,6
186785,-17,-9,-4,-7,-11,-7,-2,-4
186845,7,14,1,-1,-5,-2,-1,-6
186896,-25,-55,-7,-4,-5,-6,-7,-48
186958,0,-12,1,-2,-7,-9,-1,-6
187011,6,14,-1,1,7,22,3,8
187064,-11,4,4,3,-1,2,-2,14
187120,17,8,-4,-3,-3,-7,-8,-19
187169,-8,-1,0,-2,-2,-7,-5,-37
187228,8,-7,-3,0,7,4,3,10
187289,4,5,-1,-9,-12,-5,-6,3
187349,-3,-6,-2,0,0,-1,-1,2
187394,-7,-6,-2,-2,0,-10,-6,-36
187449,1,4,0,3,5,11,4,-14
187498,-2,-8,3,-2,-6,-6,-1,11
187552,-18,-5,-3,-2,-2,-3,-5,-4
187604,-7,-10,-7,-13,-21,-9,-7,24
187658,-14,-11,-4,-3,-2,5,1,10
187710,10,-3,2,1,-1,-7,-3,-12
187759,-8,6,3,11,13,6,2,-1
187812,-15,0,-1,-2,-3,-7,-3,-12
187872,-10,-9,-3,-2,1,-3,-5,-48
187927,0,-1,-2,-5,-7,-8,-1,11
187986,1,12,4,3,2,0,0,-8
188039,-1,5,3,2,3,3,2,8
188091,2,-12,-2,-7,-15,-14,-5,0
188143,-8,-5,-3,5,8,2,0,-33
188197,-3,-3,-2,-6,-7,5,-1,5
188248,4,-6,2,7,6,3,3,16
188300,-1,1,-2,-4,-8,-5,-7,15
188352,4,-9,-5,-4,-5,-7,-2,-1
188404,-12,-13,-3,-1,0,-19,-2,-19
188466,-21,-19,-6,-3,-2,-5,-14,-74
188525,-2,0,-4,-10,-14,-21,-2,17
188582,13,11,7,3,3,6,0,9
188631,3,4,-3,-3,-2,-5,-2,-4
188683,-22,-28,-6,-4,-2,-3,-7,-27
188735,-8,0,-2,0,1,1,0,1
188787,8,-1,-3,-4,-5,-6,-2,-15
188841,-3,-11,-4,1,-1,-9,-2,-16
188894,-1,-14,-2,0,4,0,0,-2
188947,5,7,2,-1,5,20,3,-2
189004,-4,-2,-2,0,-1,-4,-4,-43
189051,-2,5,4,8,14,10,2,-29
189103,8,30,9,9,9,6,4,3
189155,-3,-5,-4,-11,-14,-10,-5,8
189209,-9,-4,-7,-7,-11,-20,-9,-38
189265,0,7,3,-6,-15,-9,0,12
189313,-13,-23,0,2,2,0,0,0
189365,-3,3,-1,2,9,16,6,26
189426,6,14,2,-1,2,-1,2,11
189473,-8,-14,-4,1,3,3,1,6
189525,-10,-16,-3,-6,-9,-1,-3,-5
189575,7,15,3,10,19,18,5,6
189627,-5,-11,-8,-13,-18,-17,-8,4
189682,3,7,1,1,0,-7,1,13
189732,-1,-3,1,0,0,9,0,10
189786,-11,-17,-3,-1,2,-1,2,8
189837,4,-6,0,4,-2,0,0,1
189891,7,4,-1,-6,-5,-5,-6,-4
189944,5,6,2,7,6,-25,11,6
189996,-4,19,5,-2,-4,-9,-4,-3
190050,-9,-15,-9,-1,-2,10,3,-24
190101,3,28,6,-2,-4,2,-6,-24
190154,0,-9,-2,-4,-8,-4,-8,-5
190206,-7,-7,0,1,1,-7,-4,-55
190258,0,-14,-4,-3,-2,6,0,-7
190311,8,-5,-4,-3,-1,3,1,18
190366,-2,-6,1,4,11,23,11,10
190415,2,-37,-3,-1,-2,2,0,25
190477,0,7,0,3,7,14,4,-13
190537,-1,18,2,5,7,6,1,-12
190591,-2,-13,-5,-1,4,5,2,0
190651,13,-6,3,5,10,17,5,18
190700,3,18,3,5,6,3,3,-7
190753,-24,4,-2,3,14,16,5,-36
190806,11,11,1,1,1,4,3,15
190859,-4,-8,-4,-7,-13,-13,-5,-11
190919,1,18,3,1,0,1,-1,-9
190970,10,21,6,12,17,57,8,-8
191024,3,-18,-6,-3,-5,-2,1,8
191076,0,-3,3,3,6,18,2,-7
191134,1,-5,-5,-3,-1,5,-3,7
191181,-16,-29,-7,-4,-7,23,-2,-1
191233,-8,-5,-3,-4,-7,2,-3,-1
191295,-1,13,2,5,5,15,3,-5
191339,11,0,1,-4,-6,3,0,16
191398,-15,-10,-6,-9,-16,-39,-14,-23
191458,-5,5,-3,1,2,-5,-4,-29
191510,0,-4,4,7,9,4,4,-8
191565,-11,0,-2,-5,-6,-10,-8,-32
191618,-8,-17,-6,-13,-14,-6,-8,-10
191668,14,16,-1,1,3,8,6,-3
191723,0,-32,-9,-3,-2,-3,-3,2
191781,-2,3,7,3,0,7,2,-9
191846,-7,-14,-9,-4,-2,-3,-2,-22
191903,4,9,2,-3,-11,-1,-2,2
191955,-8,-9,-2,-1,3,7,1,10
192007,-4,10,2,2,3,3,1,1
192059,-10,8,-2,-9,-15,-11,-10,3
192115,-13,-20,-10,-6,-12,0,-4,1
192168,4,4,5,3,2,-3,1,-1
192215,-1,8,-3,-2,-10,-2,-4,-4
192274,-15,19,6,5,4,-5,0,-9
192336,-15,-38,-10,5,11,9,0,-8
192397,17,34,5,4,5,12,3,-6
192452,8,5,-4,0,0,2,1,14
192502,-12,-3,-1,8,13,9,-2,-7
192559,-3,-12,-8,-9,-15,-8,-5,-26
192621,6,-7,-1,-4,1,0,-2,-8
192682,3,3,6,11,15,13,6,-7
192743,14,12,1,-2,4,1,0,-4
192794,-13,-35,-15,-10,-7,-6,-7,-9
192846,0,-11,-2,4,1,-2,7,45
192899,-2,0,-2,-1,3,4,-1,-29
192959,3,-18,-4,0,7,21,9,-8
193005,7,26,0,-7,-9,-22,-14,11
193067,-9,19,-4,-8,-12,-7,1,3
193126,-14,9,3,3,3,1,-3,-14
193175,-8,-15,-5,-1,7,22,1,-6
193229,9,4,-5,-7,4,12,3,2
193282,-11,-16,3,6,4,-7,4,-4
193336,-7,-32,-9,0,4,5,4,13
193390,3,-13,-4,4,13,4,1,-20
193444,-11,25,10,5,6,6,10,-32
193491,-2,9,-3,6,17,34,10,14
193544,-9,-12,-4,-4,-17,-31,-5,-5
193603,0,-4,-1,-7,-5,-6,-2,-7
193668,-22,-17,-5,-5,-8,-6,-6,-36
193715,-11,1,-1,2,4,0,5,-14
193769,-18,-1,-2,-3,-3,1,-5,-13
193822,-11,0,-5,3,13,20,11,8
193872,-22,-23,-7,-4,-6,-6,-4,-9
193928,3,14,1,5,4,2,2,7
193991,-20,-8,-6,3,9,2,-2,3
194055,-24,2,-3,1,-10,-3,-7,-13
194109,-72,-25,-9,-2,14,3,-9,-34
194168,-26,-31,-16,-17,-87,-15,-9,-1
194221,-64,30,7,13,32,4,-3,50
194271,3,-9,6,-5,14,-10,3,-1
194331,-32,-9,-9,2,10,15,-2,-64
194384,-8,19,5,-28,-93,-20,-12,-7
194442,72,66,46,11,11,6,7,26
194504,-24,8,14,9,13,9,2,-17
194565,-23,-21,-9,-3,-21,1,2,-26
194618,-9,-27,-9,-3,9,5,0,-23
194671,-21,-15,-7,-15,-20,-13,-13,-19
194729,-17,7,-6,-3,-13,-6,2,-15
194792,19,-14,-7,0,14,7,-1,-11
194853,-30,-17,-8,-4,-5,-3,-7,-10
194903,5,-1,-6,-18,-24,-36,-17,23
194954,-1,-6,-5,0,-3,7,-1,28
195010,-20,-7,1,2,0,-1,-3,2
195060,16,21,7,3,4,-2,1,-11
195112,-17,-3,-7,5,6,6,6,-6
195173,18,2,-2,-4,-13,-26,-2,15
195224,15,9,4,1,-1,-2,-6,-30
195281,12,13,3,-5,-7,-27,-10,15
195337,26,22,18,6,13,12,1,22
195400,10,14,0,-5,-16,-9,-5,18
195442,9,-18,-7,-2,2,4,3,16
195494,20,-5,-7,1,4,0,1,12
195547,-3,13,2,8,12,9,7,-7
195608,28,24,11,5,4,0,4,20
195661,3,7,8,7,6,19,25,6
195714,6,0,1,6,3,1,3,-2
195765,-28,-15,-5,-6,-22,8,-3,-20
195817,-1,-12,-8,-4,-1,-2,0,6
195867,6,-2,1,5,11,22,7,6
195921,16,-2,-4,-2,4,4,-2,-23
195979,-24,15,16,17,23,19,8,12
196029,26,-3,-3,-4,0,-5,-6,-30
196084,-38,-14,-5,0,2,1,-6,-50
196133,7,-7,0,-1,-5,-30,2,25
196184,-18,0,4,4,17,5,-1,26
196238,29,6,3,-5,-13,-13,-2,-4
196291,22,8,11,9,13,4,5,63
196343,-29,-15,-2,0,4,7,2,-21
196395,-50,-23,-5,4,8,11,4,-26
196447,3,-14,2,-1,-5,-1,-2,25
196502,24,-18,-9,0,0,1,4,20
196551,3,-20,-12,-9,-15,-40,-16,-57
196605,-24,-6,-3,5,9,12,7,8
196657,23,30,12,8,13,16,3,19
196709,11,-31,-6,-17,-30,-53,-21,-14
196763,2,3,-2,-6,-3,0,2,32
196823,-42,-7,-3,-15,-25,2,-7,20
196869,20,-13,-7,5,12,23,9,39
196921,1,-16,-8,1,7,4,3,0
196972,-8,-7,1,4,2,-17,-4,-35
197026,10,17,9,0,-2,-10,-6,-29
197083,-26,-20,-9,-4,-3,-8,-7,-59
197131,-19,-27,-12,-4,-1,-3,-1,4
197184,-31,15,-7,8,21,29,7,26
197234,27,12,0,-2,2,3,2,28
197287,-2,22,12,8,7,10,8,13
197345,0,-6,1,-2,-8,-8,-6,19
197392,21,13,0,-2,-4,-1,2,-33
197446,-13,-3,-5,0,0,2,-1,-25
197497,-14,-4,-1,4,10,4,1,-27
197558,20,6,10,6,3,-2,0,-24
197618,18,1,2,5,9,25,5,26
197675,-14,0,-8,-1,8,-1,-3,-51
197723,22,-10,-6,2,6,4,16,43
197776,43,8,-1,-7,-4,-13,-4,5
197826,-27,-61,-20,-8,-5,-3,-14,-89
197880,11,1,-2,3,4,5,3,19
197940,-43,-9,-2,-4,-10,-19,-10,-24
197985,-14,24,-1,-10,-12,-2,-12,-25
198040,-15,11,-1,-7,-10,-4,-6,42
198095,-31,-12,-5,-6,-7,-4,5,-18
198157,16,18,4,-2,-10,-5,4,21
198222,-14,-4,-2,-6,-3,-7,-7,-23
198278,14,-21,-9,-2,2,0,3,30
198332,-21,6,-7,-9,-15,-10,3,25
198383,-1,-2,1,3,0,5,-5,-8
198435,-11,-41,-5,1,14,23,3,42
198487,-10,-13,-9,-6,-9,-7,-8,-17
198540,-19,-36,-4,-3,-6,-15,5,-3
198599,-3,-10,-9,-5,-3,-31,0,-22
198660,-12,-3,-3,-6,-17,-34,-12,-11
198720,-23,-14,-1,7,8,6,6,-19
198774,-1,19,6,7,-1,-9,1,2
198825,-3,-3,-5,-8,-9,-33,-6,5
198877,24,-1,0,1,1,-3,-1,9
198932,2,-11,-3,-1,-3,4,4,27
198983,-21,-16,-12,-19,-35,-29,-10,9
199035,2,-12,-11,-7,-5,-1,0,13
199089,-3,-16,-5,2,9,3,4,4
199142,-3,-20,-1,6,11,6,-3,-14
199199,-23,-63,-18,-19,-26,-30,-13,-34
199259,8,51,10,-15,-30,-24,-11,-1
199313,12,-3,-1,7,12,12,3,27
199374,63,-13,-5,-1,-6,12,-3,23
199425,9,5,1,4,5,5,-2,12
199477,-22,-54,-19,-10,-4,1,-2,58
199533,11,-2,-1,-2,-4,3,3,11
199582,-18,-2,-2,1,12,14,8,54
199643,18,4,-5,-1,-3,-6,1,13
199699,19,-21,-5,-5,-10,-11,-4,9
199748,-45,-16,0,2,4,4,-1,-31
199800,2,-25,-3,-1,-2,-6,0,5
199853,16,-7,-10,-19,-28,-29,-11,30
199906,-38,-70,-15,-7,-9,-10,-4,-20
199965,-12,-22,-6,-13,-23,-10,-12,4
200011,-5,-42,-5,3,12,21,5,-23
200065,-6,-9,3,-7,-8,-11,-5,2
200121,-2,4,1,-4,-8,-27,-9,-27
200183,23,34,8,3,1,0,5,19
200235,24,9,3,2,4,2,3,-2
200292,1,-33,-10,0,3,4,3,-1
200341,-1,-11,4,1,0,-5,-4,3
200391,-10,0,-1,1,1,-41,-8,-21
200447,4,-14,-3,-5,-5,-13,-9,8
200498,16,-13,-8,-4,-1,9,-3,28
200551,2,13,0,-9,-16,1,-4,11
200605,-7,-14,-4,-3,-7,-5,-6,10
200659,-18,3,-1,-2,-3,-5,1,-36
200722,16,8,0,-14,-28,-38,-25,-11
200784,8,-7,2,7,9,-3,10,7
200846,5,-10,0,-2,-1,-2,2,16
200896,-9,-9,-2,4,10,9,4,-8
200948,9,-25,-7,4,11,13,8,22
201008,9,14,-1,-1,0,-2,4,-10
201053,-3,-11,-9,-11,-14,-14,-11,4
201109,-2,9,0,-2,-5,-8,-4,3
201165,6,-2,0,-3,-2,4,5,13
201226,12,13,2,-2,3,6,-2,-7
201277,17,-48,-6,0,3,-4,-2,39
201332,2,-1,-3,-6,-6,-12,0,-20
201383,17,0,1,0,-1,2,-3,8
201434,0,-6,-2,1,5,9,6,17
201489,11,-9,-14,-13,-15,-23,-10,-4
201545,6,-26,-11,-9,-13,-10,1,2
201609,3,-12,3,6,2,8,7,5
201671,2,9,0,2,5,27,4,21
201737,-14,0,3,1,4,6,7,21
201784,-9,-14,-3,-1,-8,-31,-8,6
201850,3,9,8,7,6,3,5,51
201909,0,-8,-5,0,0,7,-1,-2
201970,-12,-8,-4,-3,-6,8,1,8
202021,10,11,4,0,-2,0,-4,9
202073,-7,-15,-6,6,12,24,5,11
202132,3,-26,0,3,7,19,8,1
202181,29,23,-2,-9,-7,2,-8,2
202233,5,19,2,-4,-9,-5,-9,-14
202291,-9,-5,-3,-6,-8,-2,1,9
202351,7,7,-4,-9,-7,-5,-2,0
202412,9,15,2,-6,-10,-9,-4,8
202465,-2,-9,-2,2,3,0,-2,-12
202529,6,17,2,1,5,20,5,9
202592,4,0,0,0,0,5,3,6
202655,1,-30,-7,-3,-1,3,1,7
202713,16,-2,-3,-1,-2,-1,-1,-6
202766,-5,-33,-6,0,-2,-5,-7,19
202830,0,24,6,6,10,19,10,-63
202893,2,-1,3,1,3,0,1,9
202954,9,13,8,-1,-3,-4,0,-7
203005,-14,-41,-14,-8,-6,11,-8,0
203055,-1,1,-3,-10,-13,-20,-10,-10
203114,-18,-1,-2,-10,-16,-10,-11,-23
203162,20,25,-5,-2,3,24,6,9
203214,8,-7,0,-1,-1,9,4,16
203273,10,16,5,1,-1,-5,-1,25
203334,27,-6,-2,0,1,0,-3,27
203394,-1,-6,-5,-6,-3,-9,-2,-19
203446,5,-50,-9,-5,3,-5,-7,0
203499,-5,-21,-3,-5,-5,0,-6,20
203551,-19,-24,-5,-4,1,13,3,15
203610,13,11,4,2,-9,-20,-5,-19
203657,-16,-12,-2,0,-4,-5,-5,-13
203710,-11,-5,-6,-16,-21,-16,-15,-19
203763,9,18,0,-3,0,4,5,7
203814,19,0,2,2,-7,-23,-8,27
203866,10,6,-4,-1,3,7,-2,-34
203919,-10,-25,-9,-13,-15,-16,-3,2
203973,9,12,-2,-6,-6,-19,-2,8
204024,-1,9,2,4,2,3,-2,-5
204076,-9,-39,-12,0,6,-18,-16,2
204128,-7,-16,-1,1,1,-2,-4,16
204181,13,35,4,-1,3,2,0,10
204234,9,-2,1,2,3,7,3,11
204287,-6,17,10,2,-3,-25,-7,23
204339,13,11,1,-5,-13,-42,-14,0
204399,7,8,1,4,3,-8,-4,-1
204443,1,-36,-13,-17,-25,-53,-21,-30
204497,-4,39,3,-3,-2,16,3,-22
204556,-1,-5,-3,3,0,-8,-5,0
204601,-17,-15,-5,-3,2,-1,-1,9
204659,-16,5,-6,-19,-31,-43,-22,-9
204705,20,23,5,1,0,-3,1,24
204758,18,10,1,2,4,5,2,14
204817,11,35,9,7,-3,-35,2,8
204865,-6,-4,-3,-3,-9,-9,-7,-15
204919,-18,-51,-17,-6,-2,-9,-8,-6
204967,23,5,1,2,2,-6,4,-10
205020,0,8,2,1,4,-1,3,-24
205077,4,1,-5,-11,-10,-7,-6,-17
205135,12,-5,1,1,-1,11,7,-2
205186,-1,12,0,-3,-6,-7,-3,-9
205236,-4,1,-1,3,0,1,-2,5
205291,3,-7,6,9,20,29,11,9
205343,10,2,-1,-2,4,11,0,10
205394,-11,-5,-4,1,1,-2,-2,8
205449,6,-7,-1,-1,-1,4,2,7
205501,5,11,-5,-4,-2,-6,1,13
205553,3,20,1,4,5,1,2,-2
205606,-1,-1,-1,2,2,9,1,3
205661,-6,30,3,-2,7,27,5,-15
205711,-24,-2,3,5,16,1,3,-50
205763,-12,-2,-2,-1,-4,-20,-6,-9
205816,-12,-50,-16,5,9,15,6,15
205870,4,34,12,6,8,6,-6,13
205924,14,-4,0,-1,-2,3,5,-29
205977,3,-1,-5,2,1,-5,2,-1
206034,-11,-6,-4,-7,-4,11,-8,-25
206087,-10,3,-4,-9,-18,-44,-14,-19
206139,2,18,5,7,10,5,4,27
206193,-7,19,1,3,11,21,2,-2
206243,10,-25,-3,0,-4,-4,3,-21
206298,20,15,-2,-2,-5,-22,-6,-6
206349,7,0,3,-1,-3,-25,-7,-33
206403,-5,-1,0,5,13,28,12,-3
206463,-6,8,-2,-1,1,4,-5,-4
206519,-5,-24,-14,-1,5,0,3,33
206576,10,20,4,2,14,27,6,-36
206627,-7,-42,-7,1,1,-3,3,60
206683,-9,24,1,-9,-6,-5,-19,-38
206731,3,8,-2,-1,0,0,1,-23
206784,13,29,15,9,19,27,11,2
206846,-11,-6,-6,-4,6,8,1,-40
206906,-7,-12,-9,-14,-14,-22,-9,-4
206959,-15,18,6,7,-1,0,0,4
207012,-6,-15,-12,0,-1,0,4,-49
207061,20,2,0,4,7,18,4,13
207115,-35,-20,-4,-4,-6,-3,2,-20
207167,-4,-16,-1,3,4,-7,-3,-26
207221,23,19,2,6,9,15,19,61
207272,5,13,3,-1,-1,3,0,-41
207336,21,1,5,7,5,4,-5,78
207393,27,32,5,4,8,13,1,41
207447,16,-7,1,1,0,2,-3,10
207510,-12,23,6,-2,-5,-1,-4,42
207563,-22,-1,-1,-4,-3,18,1,-31
207629,21,42,3,2,-4,-12,-5,26
207693,7,0,4,2,7,13,3,-20
207733,-20,-8,-4,-2,-4,-3,-2,5
207792,-16,-49,-15,-7,-3,-3,-6,-3
207841,-10,-24,-4,4,13,13,9,17
207901,4,32,-2,-15,-16,-19,-16,-23
207955,-23,-63,-13,-11,-21,9,-13,-16
208020,-1,11,1,-8,-6,-5,4,-39
208067,5,6,5,3,-3,-5,-4,-16
208119,-1,-19,-6,-2,3,7,-7,-13
208176,10,-10,-1,-2,0,-3,-2,-21
208232,1,13,-3,1,4,3,10,-24
208284,3,-13,-6,0,5,9,-1,20
208344,14,2,-3,-5,-7,-11,-9,-8
208397,-3,11,3,2,2,-12,-6,-5
208458,3,0,2,0,0,13,7,19
208509,-4,-7,-2,-1,2,3,0,6
208561,14,19,1,3,4,7,2,22
208614,-16,-22,-1,1,-8,-3,0,-21
208668,-3,-14,-5,-2,-2,-16,1,21
208732,-8,-73,-20,-2,-1,-9,-6,12
208790,15,10,0,3,12,15,12,46
208840,12,31,8,7,16,24,12,23
208897,-9,-33,-12,1,11,15,7,-1
208951,-1,-24,-11,-5,-6,-8,-3,8
209004,-14,-8,-4,-2,0,-13,3,-6
209062,-14,-21,-12,-13,-14,-5,-9,-11
209116,7,0,-4,-3,-3,-1,-4,29
209173,13,25,10,3,2,-1,-1,11
209232,-9,-3,-5,-1,2,1,1,-4
209288,6,-11,-5,-15,-26,-51,-22,9
209332,-13,27,2,-1,-2,-1,1,-6
209389,-13,12,2,-2,-4,-11,-5,-7
209452,-1,0,-2,-6,-4,8,-5,-5
209492,3,12,1,1,5,19,8,22
209544,-3,0,-1,-2,-1,-6,-2,4
209597,-10,-6,-8,-1,9,14,5,15
209649,0,10,4,1,-1,-5,2,-6
209714,2,0,-2,-3,-2,-3,-1,8
209762,3,-3,-3,-3,7,24,1,13
209816,1,6,3,2,0,-3,-1,8
209867,14,-10,-1,0,-1,2,-2,14
209927,-9,-9,-8,-4,1,19,1,-13
209980,-1,7,4,-1,-7,2,-2,6
210035,-25,-15,0,0,0,2,2,0
210094,7,7,2,2,-4,4,-1,-22
210154,-1,13,3,-1,-1,-3,0,5
210215,0,-11,-1,2,-6,-28,-5,0
210268,3,-13,-5,-5,-6,-20,-8,-24
210317,8,26,1,-7,-7,-13,-4,-38
210378,-40,-7,8,6,5,0,-1,-27
210431,13,-6,-2,2,6,2,6,28
210490,-11,9,3,5,8,13,-3,-48
210535,-19,12,1,0,1,19,4,0
210596,-6,2,-3,0,4,12,2,-2
210647,-6,-15,-1,3,5,2,1,-2
210700,-23,1,0,0,3,-2,1,-35
210754,14,36,7,-3,-2,4,-6,-23
210804,-2,-1,-7,-4,-3,-30,-8,8
210858,-2,-27,-3,2,11,25,3,11
210912,-16,-24,-4,1,1,1,-2,-9
210960,9,11,2,0,0,1,1,28
211016,17,3,-3,0,-6,-5,-5,16
211072,9,-8,-1,-1,2,4,2,9
211137,-6,-28,-9,-5,0,17,0,27
211196,-9,4,0,2,7,0,3,-1
211257,-3,6,0,1,3,10,0,-1
211308,9,35,8,10,16,29,13,13
211360,13,9,1,0,4,3,5,9
211412,-4,11,1,3,6,7,4,-3
211465,-5,18,-4,-2,-1,-1,0,-14
211518,-5,-17,4,5,2,-18,-6,-6
211570,-2,-15,-14,-6,0,12,2,-10
211629,16,-1,3,1,0,4,4,17
211674,-45,-80,-18,-10,-5,2,-7,-42
211727,-15,-29,-3,-3,-8,-8,-11,-35
211779,-23,-20,-11,-2,-3,-9,-3,-18
211833,2,0,-1,3,4,19,3,3
211895,5,-4,-1,-1,-3,-3,-4,-3
211957,10,-19,-2,0,-2,-19,-5,-8
212005,-20,-17,-1,-7,-8,6,-2,23
212058,-21,-24,-4,2,5,-5,0,-9
212118,-2,0,-3,1,-1,4,-3,13
212164,1,14,0,-1,-1,12,-4,-15
212216,15,8,-4,-6,-5,1,-3,5
212267,4,-4,2,10,19,15,9,2
212321,18,26,-1,-5,-6,-12,-4,-5
212375,-39,-55,0,3,0,-12,-1,-27
212427,7,17,1,-4,-8,-14,-5,1
212477,-7,-18,-5,2,0,-3,1,4
212530,6,2,0,-4,-4,0,-1,2
212583,17,18,1,0,2,19,2,28
212635,4,14,7,-1,-4,-1,1,11
212686,0,2,3,0,3,25,2,-7
212742,8,10,-1,1,-3,-1,-3,-2
212795,-2,-21,-10,-13,-21,-41,-17,15
212844,-27,-92,-20,-7,-5,-1,-1,7
212897,-1,-13,-3,-4,-2,-7,-6,-30
212954,6,0,0,1,1,-2,0,0
213003,16,3,0,4,6,5,2,3
213056,5,0,3,3,3,8,1,14
213107,4,-11,-2,-4,-9,-36,-5,-12
213161,-27,-70,-4,5,15,30,4,-15
213216,-14,-7,-2,1,4,18,5,-13
213265,-1,8,1,1,2,2,2,4
213319,20,2,3,2,1,-24,1,17
213370,9,-23,-3,-3,-4,1,-4,3
213423,0,-14,-4,0,2,-3,1,-12
213484,9,11,2,4,5,8,8,32
213535,-5,4,-1,-2,-6,-7,-4,-19
213589,1,-3,4,6,6,2,7,36
213642,-8,4,1,-3,-3,-6,-2,10
213693,-5,-2,-2,-6,-7,-6,-5,-24
213745,34,24,-1,-1,0,0,-1,-22
213804,4,0,0,2,4,7,-1,1
213851,4,4,-2,1,8,16,4,0
213904,7,8,-2,-2,-7,-9,-11,3
213962,26,11,5,7,12,20,14,16
214023,18,15,1,2,-1,2,0,3
214083,21,-57,-12,-3,2,0,3,11
214136,27,26,3,0,1,2,1,8
214192,14,-32,-10,-4,4,2,4,1
214240,34,15,2,-2,-3,-5,0,6
214293,-9,-26,-1,1,3,3,2,-18
214345,6,6,3,5,10,19,10,27
214406,-4,-22,-3,-3,-4,-3,3,80
214465,-4,-8,0,4,3,-4,-1,-33
214516,23,-3,1,5,4,7,4,17
214578,-39,-1,-2,0,-2,-8,-4,-29
214623,22,30,9,10,14,19,8,-23
214683,-8,-4,0,1,0,1,1,-15
214737,-21,-7,-2,1,5,7,0,-33
214788,11,-11,-1,3,4,-2,7,-2
214841,-21,-2,15,0,-10,8,-8,-40
214894,-30,-38,-2,-2,-2,-6,0,-60
214947,-6,-2,-1,2,5,6,7,22
215006,18,31,11,5,6,7,8,-18
215066,2,10,0,0,0,0,4,51
215116,13,-23,-5,-7,-6,-8,-4,3
215171,1,-3,-4,-3,-3,-1,0,-17
215229,-12,-36,-16,-14,-19,-8,-6,2
215290,12,10,4,-6,-6,10,-5,-7
215336,11,-13,-6,1,-1,3,-3,19
215389,-4,4,1,5,11,9,5,34
215455,-17,-4,3,-2,-4,1,-5,-21
215512,8,7,-2,-3,-9,-11,-7,23
215569,15,2,0,7,10,7,8,21
215622,-31,-16,-5,-1,1,3,-3,38
215676,2,5,-4,-6,-8,-1,1,14
215727,-11,22,3,-1,-6,-5,0,0
215783,-19,11,3,0,2,-8,-3,-28
215832,14,21,3,3,13,0,-2,-36
215883,18,34,12,4,6,5,3,32
215944,11,11,1,0,-3,-4,1,-3
215989,19,0,-1,2,0,-3,-3,-14
216048,-7,9,-3,-3,-3,1,-1,-14
216108,-11,8,-3,-6,1,3,-6,-32
216161,-21,-80,-6,7,15,17,0,-9
216214,-7,-1,-1,7,19,10,3,7
216271,-2,12,0,-2,-2,2,-3,-2
216321,-3,18,4,-3,-4,-4,-4,-31
216372,-7,11,0,-1,1,3,2,-23
216433,24,22,-3,8,12,7,4,3
216492,-5,13,-2,-2,1,7,7,52
216551,-5,-2,-4,-4,-6,-7,-2,-1
216606,19,-8,-5,0,4,-5,5,16
216670,-13,-20,-5,1,13,13,0,-13
216732,3,4,6,3,1,-2,3,44
216791,0,19,2,1,4,8,-5,-65
216853,4,-13,-6,-5,-11,-13,-4,21
216898,-3,-19,-6,-8,-9,-10,-4,-10
216950,8,20,3,-1,0,-1,1,17
217001,-7,-4,-1,-4,-12,-34,-8,8
217054,-27,-6,-4,3,1,-12,-2,-13
217105,-15,9,-1,3,11,7,4,6
217159,7,10,1,0,-6,-7,-1,1
217213,0,3,2,4,5,4,0,-26
217275,8,1,3,9,16,13,9,24
217332,-2,11,-1,-3,5,-3,-5,-13
217391,-1,-2,2,2,2,5,2,18
217444,-11,-3,1,-2,3,6,0,13
217496,10,37,2,-3,-10,-2,-3,-21
217549,-18,-3,0,0,-2,3,-3,-4
217605,-1,-13,-19,-4,4,0,3,-7
217655,-18,8,3,-1,-8,-2,-14,-59
217715,1,-5,2,4,7,14,4,1
217774,-8,-5,-2,-8,-6,-2,-6,-1
217829,-5,-12,3,-5,-8,-15,-7,4
217893,-1,14,5,2,19,33,6,13
217941,5,10,0,0,1,14,1,28
217993,4,0,-3,-2,-9,4,0,3
218047,3,-1,4,8,11,8,8,9
218097,-6,6,0,0,3,18,1,-4
218151,0,-2,1,4,3,9,2,-10
218204,-1,-2,-8,1,5,-11,0,0
218252,10,-7,3,5,8,15,9,15
218315,-3,-2,-1,4,11,14,-2,16
218375,10,22,6,5,10,12,6,3
218426,-5,-23,-12,-2,0,-5,-3,-6
218480,15,-6,-1,-1,-3,-4,2,38
218532,4,6,2,3,23,-13,0,1
218586,4,18,4,-1,-1,-5,-2,9
218640,-3,7,7,0,-5,-13,-5,-9
218694,-2,-19,-7,-2,-3,-15,-7,-2
218760,-1,1,-2,-6,-10,-5,0,-6
218824,3,-16,-5,0,2,6,2,-3
218877,-11,-17,-3,1,4,4,1,-12
218928,-10,-5,8,9,24,47,2,1
218982,-6,-6,-6,-2,7,9,11,9
219034,-23,-11,-2,-2,4,-13,-4,-37
219092,11,-21,-9,-5,-6,-32,2,21
219147,-1,1,1,9,22,20,9,3
219192,-3,-42,-9,-3,-6,-5,-2,-8
219243,0,6,4,8,14,0,1,9
219296,7,-7,1,2,-3,-7,2,20
219356,-38,-27,-11,-15,-22,-13,-14,-12
219418,-9,4,-4,0,10,26,1,18
219477,3,15,0,0,0,-4,0,3
219528,-6,-11,-8,-5,-5,-4,-1,7
219581,6,11,1,-4,-5,-13,-5,-14
219636,23,32,9,0,-1,9,-9,26
219697,1,3,2,5,3,6,-4,10
219741,4,33,1,1,-1,-8,-4,12
219796,8,11,1,-1,0,15,-3,-2
219843,7,1,3,-4,-6,-4,1,13
219894,-2,12,1,-2,-17,-32,-10,-1
219949,-3,-8,1,11,19,26,11,8
220004,4,75,13,1,7,12,9,5
220052,14,29,10,5,4,9,5,13
220106,-22,-42,-14,-4,1,-3,-3,-25
220159,1,7,7,1,-2,0,-9,-34
220212,1,11,5,1,5,3,1,-1
220265,-2,4,-5,-16,-29,-47,-24,-33
220321,-15,-12,4,0,-5,-12,-12,-9
220369,8,19,0,-5,-4,13,-7,-10
220423,1,4,-2,-1,0,1,-3,21
220474,9,-4,8,15,10,23,8,-14
220526,2,3,-3,-4,-3,3,-2,4
220581,5,-7,-4,-3,-1,8,-2,-1
220632,-13,-36,-3,4,10,14,2,11
220685,7,-8,-9,-3,0,-6,-2,-1
220738,-13,8,-3,-9,-10,-30,-13,-14
220789,14,14,-1,-5,-4,12,3,33
220841,-1,20,12,1,-1,-3,-6,-15
220894,-5,4,0,6,4,-28,6,-28
220947,-9,-2,-7,-13,-21,-11,-10,-2
221000,7,15,4,-6,-16,6,-4,7
221052,25,31,12,13,11,11,10,-17
221106,-17,-32,-3,6,4,-4,3,-11
221160,-6,-29,4,0,2,0,7,11
221217,9,-25,-7,0,6,17,0,4
221269,6,11,2,-4,1,-1,-4,-8
221323,10,3,-4,-10,-24,-37,-18,-5
221377,-2,4,-5,-8,-6,-12,-4,-13
221427,-1,-13,-3,-3,1,2,-8,19
221479,11,16,3,-3,-4,-3,-4,2
221532,-26,11,-1,1,3,-6,3,-44
221585,24,36,11,8,5,-10,6,12
221648,-15,11,5,2,-8,-8,-11,-16
221698,6,6,7,2,6,16,-3,23
221751,16,38,7,-7,-24,0,-11,-11
221802,-15,23,4,6,9,8,6,16
221854,9,60,9,8,18,1,-10,-4
221909,17,22,1,-3,-1,-2,0,12
221963,-6,-14,3,8,4,2,1,38
222012,0,16,4,-3,-4,7,6,21
222064,-1,-27,1,-1,0,-4,-5,4
222124,-9,-19,-6,8,10,1,-2,-12
222174,-32,-41,-4,0,2,-4,3,-50
222231,-13,-4,-3,-7,1,22,1,-50
222286,2,9,-7,-13,-5,-2,-5,-39
222342,7,24,3,-8,-12,-13,-4,-9
222396,3,6,6,8,8,12,3,2
