timestamp,emg1,emg2,emg3,emg4,emg5,emg6,emg7,emg8,label
2.011213,4,1,7,4,2,1,0,1,0
2.011626,-8,0,3,-1,1,3,-1,-5,0
2.019199,0,-1,-1,-1,0,1,-1,-4,0
2.019205,0,-3,-3,-2,0,-2,0,3,0
2.032020,-3,-5,-3,-5,-3,-2,-1,1,0
2.032045,1,-3,-5,-3,-2,-3,-4,1,0
2.041352,-4,0,1,1,-4,-3,-1,-2,0
2.041361,-2,1,3,1,2,-1,-2,-1,0
2.046086,-5,-2,-3,-4,-1,-1,1,0,0
2.046110,-2,-1,-4,-5,-2,-1,-1,-3,0
2.056668,0,0,4,1,-2,-2,-1,1,0
2.056674,1,1,-1,1,-2,1,0,-1,0
2.068663,-1,-2,-8,-4,-4,-1,-3,-1,0
2.068681,3,-3,2,0,-4,-4,0,1,0
2.078333,1,4,-2,1,2,2,0,-1,0
2.078340,-1,-1,3,2,0,0,-1,-6,0
2.091087,2,2,0,1,-1,-1,-1,1,0
2.091100,-2,-2,-1,-3,1,-3,0,-2,0
2.101156,-3,-1,-5,-3,-2,-1,-4,-2,0
2.101162,0,-2,-2,-3,-1,-1,-2,3,0
2.106231,-2,0,1,2,1,2,-1,0,0
2.106251,0,5,2,4,0,4,0,-1,0
2.116025,2,5,5,1,1,1,-1,1,0
2.116031,-1,-3,-4,-3,-3,0,-1,0,0
2.128636,-2,-8,-11,-8,-4,-6,-2,0,0
2.128661,0,-3,-2,0,0,-2,-1,1,0
2.139234,3,9,3,3,4,1,-1,4,0
2.139249,0,6,6,6,-3,-3,-1,-2,0
2.151837,-5,1,8,1,1,0,0,-5,0
2.151872,0,-3,-5,-4,0,-1,-1,1,0
2.162204,-3,-6,-11,-7,-4,-3,-1,-2,0
2.162212,-1,-3,-5,-3,-1,-2,0,-1,0
2.166092,1,-1,-2,-2,-1,-1,-3,-1,0
2.166114,-1,0,-1,0,0,-4,1,0,0
2.176836,-4,-3,-2,-1,-2,-2,-2,-7,0
2.176845,-1,-3,-1,-1,0,1,0,4,0
2.188782,-1,0,-2,0,-3,-2,1,-6,0
2.188808,-2,-2,1,1,0,0,-1,-2,0
2.198939,0,-2,0,1,1,0,-2,-2,0
2.198946,-4,-2,1,-3,-2,0,-3,-2,0
2.211115,2,-2,-1,-3,0,0,1,0,0
2.211141,-1,3,1,-1,-1,2,-2,-1,0
2.226762,-3,-2,-2,-1,-2,-4,1,1,0
2.226780,-1,-1,-2,-2,-1,0,-2,-4,0
2.228659,-1,-1,0,1,1,0,-1,2,0
2.228665,-1,0,-1,1,1,-2,-1,-2,0
2.235044,-3,-4,0,-3,-2,0,-1,-1,0
2.235067,2,0,-2,-2,0,-1,-1,-2,0
2.248664,0,0,0,1,-2,-3,-1,0,0
2.248683,1,-1,1,1,-1,-1,-4,0,0
2.258929,-3,-3,0,0,-2,0,-2,-2,0
2.258936,1,-4,-2,0,-2,-1,-1,-1,0
2.271247,-1,2,1,0,0,0,-3,-1,0
2.271283,0,1,-1,-1,-3,-1,-1,-3,0
2.281068,3,-3,-1,-3,-2,0,0,4,0
2.281084,-5,-3,-1,-2,2,0,-1,-1,0
2.286514,5,-1,-1,1,2,-2,-2,1,0
2.286531,1,1,0,-1,0,-1,0,0,0
2.295056,-1,-7,-4,-1,2,1,2,7,0
2.295072,8,9,10,5,-1,-1,1,-1,0
2.309321,-17,6,-3,-5,-3,0,-4,-9,0
2.309328,6,-1,-3,-2,-4,-3,-2,-1,0
2.318762,4,3,0,6,1,-3,-1,3,0
2.318774,-4,-1,3,2,2,1,2,3,0
2.331250,-3,-15,-8,1,0,0,0,0,0
2.331266,7,12,3,-2,0,0,1,1,0
2.340420,-14,6,-2,-6,-1,-1,-4,-7,0
2.340426,-11,-13,-13,-7,-4,-3,-4,-8,0
2.346101,2,0,2,0,2,-2,1,0,0
2.346124,-22,-3,10,-2,0,0,-5,-20,0
2.355172,8,2,6,5,2,2,1,-1,0
2.355229,-1,-1,-1,1,-1,0,-2,2,0
2.370530,-3,-8,-12,-6,-3,-5,1,-5,0
2.370545,2,-6,-5,-2,-3,-3,2,5,0
2.379449,1,0,0,-4,0,-2,0,-3,0
2.379458,-8,-1,-5,0,-1,-2,0,-2,0
2.391434,6,1,-1,0,-2,0,-3,1,0
2.391471,-2,-2,-2,-1,-1,-1,-1,3,0
2.401790,-2,-2,2,-3,-2,-2,-2,-4,0
2.401797,11,0,0,-2,-1,1,0,3,0
2.406641,-4,1,2,2,0,-1,-3,2,0
2.406675,12,2,0,2,1,-1,0,0,0
2.421469,-9,-6,-4,0,-3,-2,-4,-3,0
2.421507,-9,3,-3,-3,0,-3,-2,-2,0
2.428643,2,2,6,1,0,0,1,13,0
2.428665,4,-1,-3,0,-1,2,-2,-5,0
2.437666,16,0,-5,-1,2,-2,1,7,0
2.437686,-10,4,1,1,1,0,1,-4,0
2.451002,9,-2,-1,-3,-2,0,-3,-9,0
2.451017,-11,-6,-7,-3,0,-1,-3,5,0
2.461163,-9,-3,-2,-2,-2,-1,-6,20,0
2.461172,6,1,3,-1,0,1,2,5,0
2.466313,5,1,0,-2,-2,-1,2,0,0
2.466329,-19,-3,-1,0,-2,-2,-1,5,0
2.476019,4,0,0,-1,0,0,0,-10,0
2.476032,24,-4,-5,-5,-2,-2,-4,-11,0
2.489012,-3,1,3,1,0,1,-3,41,0
2.489032,-7,0,-2,-1,-1,-1,-2,-8,0
2.498252,-2,-1,1,0,-1,0,3,-2,0
2.498258,1,-2,-1,-4,-3,-3,1,1,0
2.511199,9,2,5,-1,-2,-2,0,-14,0
2.511484,-28,-4,-3,-2,0,2,-1,-7,0
2.521895,-7,-3,-1,-2,-3,-1,0,-25,0
2.521904,-17,-2,-4,-3,-2,-2,-5,-39,0
2.526386,23,-5,-3,-1,-2,0,4,0,0
2.526412,-38,2,2,1,1,0,2,8,0
2.536712,14,-5,-3,-1,-3,-4,-7,-6,0
2.536724,8,-3,-4,-6,-2,-1,2,-37,0
2.548738,-20,3,0,0,1,-1,-7,-3,0
2.548754,31,2,2,4,0,-1,-2,61,0
2.558680,-6,2,-1,-4,-3,0,0,-38,0
2.558701,34,3,3,5,2,1,4,74,0
2.571450,-34,-2,-3,0,-1,-2,2,-40,0
2.571490,11,-4,-2,-3,0,-2,-4,-55,0
2.580097,-15,-7,-7,-10,-6,-11,-2,-58,0
2.580123,24,-8,-4,0,-2,4,13,-69,0
2.586596,-15,-7,-3,-7,-5,-8,12,-82,0
2.586619,20,-5,-3,-1,-2,3,17,25,0
2.595018,0,4,1,6,2,-1,-3,57,0
2.595034,-24,0,5,18,18,6,6,-20,0
2.609066,-7,-9,-9,-10,-13,1,-3,-31,0
2.609096,-5,-5,-5,-32,-36,-14,-16,-31,0
2.618721,3,2,1,-3,-4,0,0,-31,0
2.618733,-31,-2,-1,-4,-5,-1,-9,-18,0
2.631959,8,5,4,20,18,5,5,44,0
2.631977,17,3,1,4,7,-2,-9,-39,0
2.638672,-3,-4,-1,0,4,2,11,63,0
2.638692,-11,-2,0,-12,-8,-9,-5,-40,0
2.655299,16,2,2,1,2,0,-3,19,0
2.655308,-7,-4,-4,-1,-1,-1,-1,-32,0
2.656510,-1,-6,0,1,0,-2,-2,-26,0
2.656533,7,-2,-1,-1,0,-4,-4,-20,0
2.670041,13,4,2,-3,-3,-1,-2,12,0
2.670048,-29,-5,-3,0,1,1,10,-10,0
2.679515,22,1,3,5,3,3,-1,50,0
2.679524,-3,-1,0,-2,-6,-2,-5,-18,0
2.700401,-17,1,1,4,-2,-1,-26,41,0
2.700409,17,1,0,7,13,-1,-3,-3,0
2.701558,-2,3,0,10,8,3,0,19,0
2.701566,7,2,-1,-14,-28,-3,1,46,0
2.716731,-9,3,1,-1,0,-2,10,16,0
2.716740,6,-2,0,-16,-14,-5,-8,-7,0
2.716744,-3,1,0,0,2,6,1,5,0
2.716747,8,7,0,2,6,-13,-11,65,0
2.728704,4,2,0,4,9,1,2,-6,0
2.728722,-2,0,-1,5,2,-2,-2,26,0
2.739356,-3,1,-2,-3,-3,4,3,-24,0
2.739369,-6,0,1,5,7,2,2,25,0
2.751901,-2,-3,-4,-5,-6,-1,-3,-26,0
2.751924,-2,0,-3,1,3,-3,-1,-1,0
2.759048,-8,-4,-3,-7,-5,-7,0,-71,0
2.759087,-11,-4,-2,0,0,3,1,-14,0
2.776110,2,-2,-2,-5,-4,-2,-5,1,0
2.776141,15,0,1,5,1,3,-4,-25,0
2.778130,-11,-2,-1,0,0,-1,-3,18,0
2.778137,5,-1,0,-1,0,1,-2,14,0
2.788768,20,1,1,-1,1,0,-4,-3,0
2.788801,-33,-2,-1,5,0,1,1,-2,0
2.798660,4,1,0,-5,-6,-4,0,-12,0
2.798667,-4,1,1,1,2,2,-2,7,0
2.812183,-13,-3,0,-1,-3,0,10,-9,0
2.812195,25,-2,-2,1,3,-1,2,2,0
2.818525,-6,-1,-2,-4,-4,-1,-1,7,0
2.818548,-5,-3,-5,-6,-3,-1,1,-46,0
2.834972,-7,-4,-6,-6,-2,-1,7,4,0
2.834996,-3,0,-2,-3,-1,-1,0,2,0
2.836349,1,-1,0,-2,-2,-1,-5,-4,0
2.836364,-2,2,5,11,4,2,1,-1,0
2.848595,0,0,2,2,0,0,-4,0,0
2.848618,1,-4,-2,0,0,0,-1,11,0
2.859121,-3,-4,-6,-8,-4,-3,-5,-5,0
2.859128,2,-2,-7,-5,-2,-2,-2,13,0
2.872221,-2,-10,-9,-9,-2,-5,-4,-8,0
2.874737,0,7,5,3,0,-2,-2,15,0
2.878704,4,11,16,9,2,-2,-5,-6,0
2.878728,-23,0,2,4,0,2,-1,17,0
2.895001,0,-2,-2,1,-1,0,-4,6,0
2.895017,1,-8,-7,-4,0,-1,3,-6,0
2.896945,0,-4,-3,-3,-4,-4,0,0,0
2.896951,-3,-1,-4,-5,-3,-2,-3,4,0
2.908890,-6,-2,-4,-3,1,0,-3,-2,0
2.908915,7,-1,2,7,1,0,-3,-2,0
2.918471,3,1,-1,2,2,-1,-8,8,0
2.918477,-1,-6,-2,-3,-2,0,-5,2,0
2.932006,-3,2,-4,-5,-2,-1,-2,-4,0
2.934202,-2,6,3,3,2,-1,7,-18,0
2.939056,8,-3,2,3,1,1,0,12,0
2.939100,-14,1,-2,-3,-2,-2,-5,-10,0
2.955245,-12,-8,-5,-4,-2,-4,-5,6,0
2.955263,-10,-6,-13,-6,-5,-2,-1,-31,0
2.956520,-9,-6,1,0,0,2,2,-5,0
2.956539,7,11,14,9,4,3,-5,36,0
2.977642,14,1,-6,1,-2,0,3,5,0
2.977667,-4,-9,5,-2,-3,-4,-6,4,0
2.979847,-14,4,-10,-11,-3,-2,0,-3,0
2.979857,19,5,1,-1,2,1,-1,-2,0
2.992284,8,8,10,6,2,2,-1,-4,0
2.992334,6,-7,-8,-3,-1,-1,-4,28,0
2.998791,9,-6,-11,-4,-4,-3,-1,-17,0
2.998820,12,1,5,-3,2,-2,8,35,0
3.016046,9,3,-7,-1,0,0,-12,-34,0
3.016133,7,6,12,5,3,2,1,-16,0
3.016413,0,-6,-5,-4,-1,1,6,19,0
3.016422,-6,-8,-7,-7,-4,-2,-4,-17,0
3.028688,7,2,7,6,0,-1,3,11,0
3.028711,1,3,-1,0,1,0,-2,14,0
3.039588,1,-5,-1,-6,-2,-1,-3,-11,0
3.039595,-29,-7,-15,-5,-5,-1,1,0,0
3.052047,-3,-3,3,-2,0,-2,-5,-11,0
3.052078,-11,-9,-13,-8,0,-1,-3,4,0
3.059064,14,1,-22,1,1,-1,2,-23,0
3.059097,-28,7,30,14,4,0,-3,-2,0
3.075298,21,2,-4,-4,1,2,4,17,0
3.075325,-33,3,19,3,0,2,1,8,0
3.077580,-5,-3,-5,12,3,2,-5,23,0
3.077588,29,0,7,0,-3,-1,-6,17,0
3.088904,-18,-4,-3,0,-2,-3,-5,-6,0
3.088946,5,0,-12,-5,0,2,4,24,0
3.097486,-7,-11,-11,-18,-9,-7,-12,-41,0
3.097509,-11,-9,-15,-6,-1,1,10,-11,0
3.111763,-10,-3,8,2,0,-2,-4,20,0
3.111783,17,-2,-10,-8,-5,-1,7,25,0
3.118562,1,8,12,2,1,3,-1,-2,0
3.118586,7,1,-3,-1,2,1,-3,-12,0
3.134968,4,-5,-3,-8,-4,-5,0,-12,0
3.134985,1,2,-1,3,0,0,0,-12,0
3.136355,-6,-1,5,2,2,1,0,7,0
3.136426,11,-7,-25,-10,-4,-3,-1,-10,0
3.148671,-18,0,8,-1,-3,-1,1,-6,0
3.150650,6,10,38,18,3,1,-5,-6,0
3.157511,-6,-5,-11,3,3,1,-2,6,0
3.157521,9,-5,2,0,0,1,6,9,0
3.172642,6,5,-17,-12,-3,-5,-6,-11,0
3.172655,-15,0,-4,-1,-5,-1,5,-9,0
3.178592,22,8,17,4,-2,-1,-10,7,0
3.178608,-21,7,-5,3,-2,-2,-5,-6,0
3.194942,-28,-22,-5,0,-4,-1,-5,-8,0
3.194965,25,3,-3,-4,-3,-4,2,-2,0
3.196614,-15,-5,-4,1,-3,-3,10,2,0
3.196630,8,-5,-5,1,-3,-2,5,0,0
3.208990,-1,5,7,4,-1,-2,6,4,0
3.209022,-13,-6,-10,1,1,-1,-2,-2,0
3.219200,1,-5,2,-2,-4,-2,2,-4,0
3.219209,16,4,5,-1,-1,-2,-3,-6,0
3.231845,-12,4,8,7,1,2,0,3,0
3.231868,4,-5,-8,-4,-1,-1,-3,-2,0
3.238988,6,4,3,0,2,-2,0,10,0
3.239015,-1,-6,3,-1,-1,-1,-3,-4,0
3.255462,2,-2,-5,-2,0,2,0,3,0
3.255493,6,-3,-4,-3,-1,0,-5,0,0
3.256691,-5,3,6,5,0,0,1,5,0
3.256712,-2,-4,-5,-2,1,1,-7,14,0
3.268460,10,-2,-2,1,0,3,0,20,0
3.268469,-8,-1,-1,-2,0,0,-6,1,0
3.278801,8,6,6,-1,1,1,-7,48,0
3.278808,-1,-2,-7,-7,0,-3,-2,-18,0
3.306746,8,4,1,1,0,0,-1,1,0
3.306772,-3,4,0,-1,-1,-1,-4,1,0
3.316333,-6,-3,-5,-2,-2,-2,3,-8,0
3.316339,7,0,0,-1,-2,-2,1,-2,0
3.337065,-6,3,1,-2,-2,-2,2,7,0
3.337088,4,-1,-5,-4,-4,-3,1,-16,0
3.346186,-2,-1,1,-2,-2,0,2,16,0
3.346192,-19,-4,-4,-6,-5,-4,5,-59,0
3.346195,1,-7,-4,1,0,0,8,22,0
3.346198,6,-2,-2,2,-3,-3,0,3,0
3.346391,-10,-2,-2,0,-1,-1,-6,-13,0
3.346398,-8,-2,1,3,0,-3,-2,0,0
3.351740,2,2,-2,-3,-1,-4,-4,-13,0
3.351763,-8,-3,-2,-3,0,-3,-2,-1,0
3.359015,-4,1,1,-1,-2,-3,-1,6,0
3.359052,-2,-5,-4,-6,-1,0,11,-34,0
3.375274,17,3,1,6,2,3,-13,20,0
3.375312,6,3,1,0,-1,-2,-2,-9,0
3.376725,-2,1,0,-2,-1,-2,-2,-31,0
3.376738,-3,-3,-3,-3,-3,0,3,-14,0
3.388952,-9,-3,0,-1,-1,-3,1,-66,0
3.388972,12,0,0,1,2,3,-1,49,0
3.399071,7,2,3,-1,1,1,-4,63,0
3.399079,-11,-2,-2,0,0,2,-10,22,0
3.411742,7,4,0,-2,-2,1,0,-29,0
3.411758,-11,-3,0,-6,-3,-2,10,-36,0
3.418640,-12,-5,-2,-5,-1,-2,5,-34,0
3.418665,2,1,0,3,1,0,-7,24,0
3.434994,-1,2,2,-3,-1,-3,-7,17,0
3.435016,-3,0,-3,-4,-2,-1,-2,-24,0
3.436324,17,-1,-1,0,-1,2,-1,3,0
3.436332,-9,1,3,2,1,0,-1,2,0
3.448608,2,-5,-5,-2,1,-1,1,-18,0
3.448626,-3,-2,-1,2,-1,-1,-2,6,0
3.458071,-8,-5,-2,-1,-2,-3,0,-27,0
3.458079,12,2,1,2,0,2,-10,28,0
3.474278,-15,2,-3,-3,-2,-1,0,-1,0
3.474286,0,-3,1,-2,0,-2,-5,0,0
3.478698,-5,5,-1,-3,1,-1,-6,0,0
3.478721,-3,0,-1,-2,0,-1,-1,-10,0
3.494641,-11,-5,1,-2,-2,-2,-1,17,0
3.494674,20,-4,2,1,-1,0,1,5,0
3.501201,-61,-6,-4,-1,1,-3,-2,-36,0
3.501228,-1,3,-3,-2,-1,-1,-2,4,0
3.508993,13,4,1,-3,-3,-3,-1,-5,0
3.509246,-16,0,-3,-2,-2,-2,-6,-11,0
3.536265,34,0,2,4,3,2,5,7,0
3.536273,-1,-2,-1,-2,-1,0,-2,8,0
3.536276,3,-1,-6,-5,-3,-3,-5,0,0
3.536278,0,0,0,-1,-1,1,0,0,0
3.538759,-6,-8,-6,-5,-4,-1,-4,-11,0
3.538780,9,-1,-1,-1,-2,-1,3,6,0
3.554220,6,2,6,5,3,1,3,6,0
3.554237,-7,-3,1,1,0,0,-2,4,0
3.561196,-2,-3,1,-3,2,2,4,2,0
3.561220,0,-3,1,-1,-3,-1,-6,-11,0
3.568530,-1,0,-3,2,1,0,0,4,0
3.568538,-10,-2,-1,-1,-2,2,-3,-6,0
3.578721,1,1,-5,1,-2,-2,-6,-29,0
3.578726,6,-1,1,-3,0,-1,5,2,0
3.592182,4,1,2,3,-1,1,0,40,0
3.592222,-42,-9,-9,-2,-1,-2,-8,-50,0
3.599745,16,-1,-8,-8,-3,-2,5,-18,0
3.599751,-7,0,-4,-5,0,2,-2,-17,0
3.614685,32,1,1,-5,-5,-4,5,-59,0
3.614700,-28,-8,2,8,0,0,13,23,0
3.621548,10,-2,11,8,-1,-3,-5,-4,0
3.623535,-13,3,-17,-9,2,-2,-15,0,0
3.637825,-1,-1,-1,-3,-1,1,-11,-74,0
3.637864,-13,-5,-3,-4,-2,3,-8,51,0
3.640054,-5,-8,-7,-11,-8,-11,35,-83,0
3.640060,-17,-12,12,17,3,11,49,-13,0
3.652002,6,-10,-11,-8,-8,-6,19,-109,0
3.652025,-8,0,-3,-4,-5,-4,-12,32,0
3.659193,6,-4,-4,-2,-1,0,7,-57,0
3.659253,-30,-3,-1,0,1,3,2,23,0
3.674694,35,7,-1,2,-1,-3,-7,56,0
3.674722,-14,1,3,3,0,11,17,-34,0
3.681131,-42,-2,-8,-5,-2,-3,-15,31,0
3.681154,24,4,2,1,-2,-6,-3,-15,0
3.697661,-4,-2,4,6,5,4,-4,64,0
3.697685,72,5,4,4,2,-1,-1,4,0
3.699432,72,10,2,5,2,5,0,70,0
3.699438,-77,-14,-10,-14,-5,-5,-18,-51,0
3.711937,-3,1,-6,-9,-2,-1,6,59,0
3.711961,-4,-2,0,-6,1,-5,-3,-12,0
3.719010,11,9,7,9,4,2,-8,-24,0
3.719044,24,2,4,5,-2,-3,-12,-14,0
3.734711,-42,-12,-16,-13,-8,-8,-12,-18,0
3.734735,5,9,10,11,5,0,20,-8,0
3.741248,4,0,4,10,2,3,-18,16,0
3.741269,58,6,3,5,0,-1,-8,21,0
3.757587,-2,-3,-1,13,-1,-2,-9,-18,0
3.757614,4,-7,-2,12,1,-2,9,-17,0
3.759374,-1,4,-2,37,0,2,-9,-39,0
3.759405,11,-4,-4,45,-2,-2,-3,6,0
3.771836,-22,-2,-1,88,3,4,9,1,0
3.771854,3,-3,-8,116,-3,-3,-4,-4,0
3.778578,-10,1,-2,123,-4,-1,-9,-11,0
3.778596,2,3,-1,127,3,4,-8,5,0
3.794434,-12,-4,3,127,0,3,-5,30,0
3.794459,-37,-4,-8,44,-2,-2,-15,0,0
3.801396,-40,-19,-9,-65,-3,5,22,0,0
3.801423,15,2,-11,-114,9,9,-2,13,0
3.817371,-27,-7,28,-128,3,10,-13,34,0
3.817381,-1,16,27,-128,-4,-7,-18,-46,0
3.818867,11,11,8,-111,-8,-15,-3,-10,0
3.818882,82,-45,-52,-106,12,37,-8,45,0
3.832878,27,-6,-45,-126,2,7,-5,-4,0
3.832886,3,6,-35,-128,0,-5,-9,14,0
3.838906,-41,61,21,-4,-11,-38,21,-16,0
3.838936,-54,50,57,51,-20,-50,30,-69,0
3.854659,-6,-7,15,-30,-6,-10,13,-19,0
3.854686,13,-29,-13,59,10,11,0,5,0
3.861151,12,-22,-3,98,40,13,-11,32,0
3.861176,-81,81,42,127,-84,-70,20,-63,0
3.879258,-38,41,50,-72,-77,-49,33,-55,0
3.879265,3,-14,9,-128,-26,-12,25,-15,0
3.879657,18,-55,-19,-128,23,35,0,37,0
3.879691,34,-51,-27,-128,68,49,-25,87,0
3.891390,40,-20,-20,-45,47,31,-22,21,0
3.891413,24,-7,-14,7,18,18,-15,21,0
3.900886,14,-9,-17,45,12,17,-17,18,0
3.900892,21,-10,-5,36,18,13,-10,-7,0
3.914267,-4,-6,-9,84,3,1,-12,-8,0
3.914282,9,7,-11,70,0,-2,-11,18,0
3.921210,-16,6,-1,55,-14,-5,-7,-4,0
3.921244,11,7,10,11,-5,0,11,19,0
3.937673,-8,-4,-6,38,6,1,-5,-14,0
3.939817,-1,-2,-1,45,-1,-3,7,9,0
3.939824,-14,-4,-3,0,-23,-11,-4,-7,0
3.939827,-2,6,-8,1,-8,-3,-3,-8,0
3.951118,3,2,8,40,14,5,3,-17,0
3.951133,-8,8,4,14,-5,-5,-2,-1,0
3.959986,-2,5,6,-13,-11,-4,1,3,0
3.960027,-4,-17,-7,-27,0,1,-7,-6,0
3.974753,-5,-1,-8,7,3,-2,0,7,0
3.974762,-9,8,4,29,-5,-7,-1,-18,0
3.981260,11,1,5,5,-4,-2,8,-22,0
3.981291,-17,-6,-3,14,3,0,-6,-9,0
3.997604,4,2,-4,13,-1,-3,-5,-12,0
3.997627,4,10,6,-8,-5,-3,-1,-22,0
3.999540,3,1,1,-1,-1,-1,2,11,0
3.999548,13,-3,-1,-9,-1,-1,3,34,0
4.011235,-1,-2,-2,-12,-2,0,0,8,0
4.011370,6,-1,-3,-16,1,-1,4,-23,0
4.027873,0,5,3,-8,0,-2,0,24,0
4.027898,1,-2,0,-20,-3,-2,-2,-22,0
4.034815,-5,-2,-2,6,0,-1,-3,12,0
4.034839,2,-2,-1,6,-1,0,-3,-1,0
4.041262,-2,1,-1,-8,-4,-4,-7,-19,0
4.041292,-4,-3,-2,-16,-2,-3,-2,-11,0
4.057654,7,2,-2,2,4,2,1,-2,0
4.057706,-6,5,4,-7,-2,-2,-4,8,0
4.059329,-5,-3,-2,-11,-2,-1,-3,-2,0
4.059365,-3,-6,-4,-12,-2,-2,-1,-1,0
4.071443,7,1,-5,-3,0,-1,0,-54,0
4.071467,11,-3,1,-10,-3,-1,1,-9,0
4.086064,-21,-2,0,-5,-2,1,2,37,0
4.086087,35,1,-1,1,0,0,-1,-11,0
4.094420,-35,-6,-5,-2,-4,-2,-1,4,0
4.094449,11,6,1,-2,1,-1,2,3,0
4.101059,-1,-10,-1,-9,-2,-2,-4,-19,0
4.101075,-1,2,0,-7,-1,0,-5,6,0
4.117557,-8,-3,-5,-9,-4,-4,2,21,0
4.117585,8,7,6,1,2,1,0,49,0
4.118960,-1,1,1,3,-1,-1,1,11,0
4.118993,-5,-3,1,2,-2,-3,-2,-10,0
4.131209,8,1,2,12,4,2,2,17,0
4.131228,-3,-2,-2,12,-4,-3,3,-34,0
4.141376,-6,-4,-4,8,-3,-2,11,18,0
4.141387,-1,-3,-1,4,-2,1,-1,-2,0
4.154422,-2,3,-3,3,-1,-1,-6,46,0
4.154454,-12,-9,-6,-6,2,1,4,-34,0
4.161156,14,5,3,-6,-1,1,3,16,0
4.161174,0,-1,-2,-12,-5,-2,6,-41,0
4.178130,-6,-3,2,-5,1,1,20,-6,0
4.178136,-6,-8,-2,-7,1,1,2,-25,0
4.178909,-18,-4,-4,-8,-3,-4,-9,-76,0
4.178927,11,-1,-1,-6,-5,-6,69,-115,0
4.191446,-11,1,6,3,6,8,106,69,0
4.191484,-10,-4,-7,-6,4,6,100,-16,0
4.200389,-13,-13,-2,-7,1,4,127,-37,0
4.200395,-23,-6,-8,-11,-7,-14,71,-50,0
4.214316,12,6,-6,-7,-5,-4,-25,-112,0
4.214373,-2,8,5,-2,-2,-3,-67,60,0
4.221317,19,10,8,5,0,-4,-128,39,0
4.221345,8,-7,-8,-13,-2,2,71,-55,0
4.237884,-1,-3,5,10,6,7,-103,3,0
4.237917,3,24,12,12,-10,-20,-100,-79,0
4.240156,6,7,1,5,-10,-12,-87,-77,0
4.240168,-13,2,3,9,-2,-5,-21,60,0
4.251214,19,-6,0,0,-3,-2,127,-10,0
4.251232,0,-12,-3,0,8,11,127,6,0
4.260010,13,0,-2,1,3,8,127,69,0
4.260027,-10,-16,-8,-4,18,23,55,101,0
4.274293,51,14,0,-11,-4,-9,-91,-26,0
4.274313,-103,-8,1,-2,0,0,103,30,0
4.281193,39,5,-2,-6,-2,-3,-107,-23,0
4.281220,16,18,6,10,-1,-6,-118,-6,0
4.297627,16,2,1,3,-8,-11,-120,-17,0
4.297659,-46,-13,-1,-5,-6,-8,65,-34,0
4.299376,-11,-9,-3,0,2,2,127,-8,0
4.299380,-15,-6,-3,-1,4,6,127,23,0
4.311183,-16,-9,-4,0,5,8,127,39,0
4.311208,27,2,-1,-3,1,1,47,-3,0
4.322550,0,-4,-4,-6,3,5,84,14,0
4.322559,0,4,1,4,2,0,-28,42,0
4.334445,-14,0,-1,-4,-1,-3,35,-20,0
4.334469,23,-1,-4,-4,0,0,-20,-13,0
4.341493,-9,-1,-2,-3,-1,-3,-35,-18,0
4.341522,9,-1,2,-1,-2,-4,-40,-14,0
4.357751,-11,-1,-5,-4,-3,0,22,-6,0
4.357783,29,3,1,1,1,3,-39,52,0
4.360150,-10,1,-1,-3,-3,-1,-32,-38,0
4.360156,-1,4,5,7,0,-1,-14,76,0
4.371522,-8,-6,-7,-5,-1,2,18,-64,0
4.371564,26,0,-1,1,-2,-2,-33,-75,0
4.381630,-12,-9,-6,9,-3,0,2,6,0
4.381644,1,1,0,8,-3,-2,-8,-45,0
4.394259,-6,-5,-2,4,-1,-2,-8,-14,0
4.394276,6,-2,-6,-7,-4,0,-27,-23,0
4.401190,2,6,2,-5,0,-3,-2,13,0
4.401213,-6,-3,-2,-9,-4,-1,8,-59,0
4.416768,13,-4,3,-6,-4,-2,6,-8,0
4.416775,-7,-1,3,0,1,4,3,45,0
4.423596,-10,5,-1,-6,0,0,-4,-41,0
4.423623,-6,-8,-5,-2,1,1,-10,-20,0
4.431249,-1,-1,-2,-4,-2,-4,-2,-28,0
4.431274,3,-9,-6,-4,-2,-2,-9,5,0
4.447491,5,6,-1,-1,0,-1,-1,20,0
4.447507,-5,3,1,-3,-1,-1,-2,0,0
4.454440,-15,-2,-2,3,1,1,6,11,0
4.454467,6,1,-1,7,-2,-4,4,-38,0
4.461124,6,-10,-4,-6,-4,-3,1,-54,0
4.461149,-14,-6,-11,-3,-1,-3,2,-44,0
4.476824,-12,0,0,-6,2,-2,-4,24,0
4.476845,12,3,-1,-9,0,-2,-24,-27,0
4.483585,-12,-3,-2,-1,-2,-1,-7,-20,0
4.483608,24,3,2,-2,-3,-5,-9,38,0
4.491313,-19,-4,-3,-2,-1,-1,1,-7,0
4.491351,-18,-2,-3,1,-3,-1,1,59,0
4.501154,7,1,2,-1,-1,1,-4,30,0
4.501160,5,1,4,9,6,4,-17,35,0
4.514329,26,14,2,2,-3,-7,-31,-60,0
4.514430,13,-4,-5,-2,0,1,-8,-17,0
4.528620,-3,3,0,2,1,0,8,15,0
4.528636,3,2,0,-5,-5,-5,-10,-49,0
4.537129,4,-4,0,-2,-1,-1,8,-14,0
4.537151,-34,7,4,1,0,-3,-8,65,0
4.543567,5,-3,-2,1,1,-2,-8,-23,0
4.543586,-9,-1,0,-2,-1,1,6,41,0
4.560017,-3,2,2,4,3,4,7,107,0
4.560028,16,-3,-4,-7,-4,-1,-4,-39,0
4.561518,16,2,0,-1,-4,-4,-1,-67,0
4.561539,-25,-6,-4,-2,-4,-3,-3,-42,0
4.574607,7,-8,-3,-1,-1,0,5,-18,0
4.574623,-45,-6,0,-1,1,-1,-5,8,0
4.581281,-2,2,-1,1,0,-4,-12,-1,0
4.581311,-16,2,3,0,1,-2,-2,-5,0
4.596941,-3,0,-1,-1,-3,-1,-10,-7,0
4.596972,14,5,0,-3,0,1,0,9,0
4.604411,-9,-9,-2,0,0,-1,7,58,0
4.604445,-29,-10,-7,-4,-4,-3,0,27,0
4.621007,3,0,-2,-3,0,3,8,-2,0
4.621015,8,6,4,1,-2,-4,-11,-49,0
4.621565,7,-1,-1,-1,1,1,-8,-23,0
4.621585,22,1,0,-7,-6,-5,-19,-48,0
4.636799,-44,7,9,10,3,-2,-1,47,0
4.636806,16,-4,-7,-1,0,-3,-15,-78,0
4.643799,10,4,-2,1,-2,-4,-28,-29,0
4.643806,16,1,-2,-2,-2,0,6,-91,0
4.656918,3,-9,-10,-4,-1,-6,-5,-70,0
4.656949,56,-1,3,4,4,4,3,-79,0
4.663729,-76,0,2,-1,-1,0,0,-28,0
4.663753,-1,-5,-3,-5,-1,-2,-10,-15,0
4.680053,27,3,1,-4,-4,-2,8,3,0
4.682292,16,-1,1,4,1,2,4,53,0
4.682299,39,-1,-4,-6,-1,1,8,22,0
4.682302,1,0,4,3,-5,3,6,29,0
4.694452,-33,-7,-1,-2,-6,-1,2,31,0
4.694477,-2,-10,-4,0,-5,-2,8,-3,0
4.701574,-5,4,4,-2,-1,-8,-20,-8,0
4.701605,6,6,5,7,14,1,5,-47,0
4.716824,12,1,-5,-3,-16,4,-8,-25,0
4.716848,-7,9,-1,-4,-12,-4,-16,-9,0
4.723619,7,0,-4,2,15,-3,-2,-17,0
4.723639,-12,-2,0,-10,-3,-1,-12,62,0
4.740029,19,3,-1,4,26,-5,-20,-46,0
4.740048,-20,-8,-4,-4,15,0,-35,-17,0
4.741847,18,-2,-1,-17,-23,-1,41,21,0
4.741857,-8,-1,-2,-3,-4,0,105,14,0
4.754607,-12,-1,0,-6,-3,0,-73,-10,0
4.756613,-5,4,-1,8,2,-2,-60,35,0
4.761294,0,-1,1,11,4,1,-36,27,0
4.761312,13,5,0,1,-4,-2,88,-59,0
4.778261,1,-8,2,2,0,5,40,25,0
4.778268,-53,-7,-5,-4,-3,-3,-67,14,0
4.783652,16,-4,-4,2,-1,3,-31,72,0
4.783796,-18,-5,-6,-3,-6,-6,-6,-35,0
4.800031,-5,3,0,0,-1,-3,12,-33,0
4.800054,23,0,3,11,8,0,13,9,0
4.801516,-3,1,-2,27,-2,-4,13,-78,0
4.801551,5,-8,2,13,-3,4,72,17,0
4.813756,5,-10,-6,-14,0,-1,-48,-32,0
4.813781,-12,2,-4,-24,-7,-1,-47,3,0
4.823856,-9,-3,-1,-22,0,-4,-38,-10,0
4.823864,24,6,7,9,19,3,-61,16,0
4.836787,-7,0,1,-9,-5,-4,41,14,0
4.836812,-4,-3,-4,-13,-17,-1,53,5,0
4.843790,1,2,1,-4,-5,2,19,18,0
4.843816,-1,0,-2,1,-5,-1,-33,34,0
4.859985,0,0,-4,2,2,1,13,15,0
4.860006,3,-7,-3,5,6,-3,26,-40,0
4.861500,7,6,4,-2,4,3,27,4,0
4.861534,-49,0,0,-3,2,0,-43,14,0
4.882563,19,1,0,6,0,-2,18,-7,0
4.882580,-15,-11,-3,-4,-8,-2,0,-15,0
4.883928,-15,2,-4,-8,-3,0,0,8,0
4.883936,13,5,-4,-3,3,1,-39,1,0
4.896822,-8,2,9,4,1,0,7,8,0
4.896839,13,9,4,7,1,1,37,22,0
4.903643,-17,-11,4,13,5,4,11,13,0
4.903658,16,-2,-10,-8,-3,-4,-33,7,0
4.920340,-2,2,-3,-13,-16,-1,5,-1,0
4.920348,7,2,4,-1,3,5,26,45,0
4.922243,-4,2,-3,-8,3,0,-6,-19,0
4.922272,2,-7,-4,-12,-7,-5,-15,-6,0
4.935692,-8,-8,-7,-9,-9,-5,-3,-9,0
4.935698,0,2,0,-10,4,-2,7,-5,0
4.943771,0,-3,-1,-7,0,-3,6,4,0
4.943781,4,-2,-9,-3,-2,-3,-11,5,0
4.956996,9,2,18,1,-5,1,-2,3,0
4.957018,3,-3,13,18,6,-1,6,-26,0
4.963610,14,9,-18,22,4,6,9,7,0
4.963635,-9,-7,-10,10,0,-1,-8,2,0
4.979979,19,-21,-20,8,-4,-7,-14,-7,0
4.980002,18,23,24,1,1,-1,7,3,0
4.982035,-15,9,-5,-5,-2,3,6,-3,0
4.982042,12,-13,18,-3,5,2,-7,7,0
4.993860,-14,20,-1,5,0,-1,-2,-1,0
4.993877,-4,-10,5,12,-6,-2,4,-26,0
5.004328,-3,-18,-13,-12,-8,-3,-7,-56,0
5.004339,-2,-3,-14,5,6,0,-1,-3,0
5.016844,-11,-13,-6,16,12,1,1,-11,0
5.016931,0,-7,-12,-11,-7,-3,0,-6,0
5.023685,-4,1,2,-5,-3,-3,-8,-16,0
5.023704,-5,-4,-4,-10,-10,-4,-3,-7,0
5.040043,-3,-8,2,-13,-1,-2,0,13,0
5.040064,16,10,-4,0,0,0,3,12,0
5.041757,-30,-2,-1,-4,-3,-6,-2,-25,0
5.041788,-4,-9,-8,-3,-5,-1,3,13,0
5.053782,4,28,14,-1,-1,-4,-5,-2,0
5.053812,-4,-5,-14,-9,-1,1,2,11,0
5.063005,8,-16,10,0,3,1,4,25,0
5.063018,3,34,30,10,2,1,-5,-4,0
5.076740,-13,-11,-15,-3,6,5,0,-9,0
5.076750,3,-1,2,4,0,-3,-2,-9,0
5.083638,-4,1,13,1,-4,-2,1,19,0
5.083664,3,-11,-11,0,-3,-3,-6,1,0
5.099998,-16,-9,-11,-2,-4,-1,-1,1,0
5.100021,-15,-5,-13,-17,-4,-4,-2,1,0
5.101521,12,-4,-5,0,2,3,10,19,0
5.101543,-8,5,4,0,-5,-11,-24,-3,0
5.113659,13,2,0,-16,-6,-1,-1,0,0
5.113686,-14,-8,-8,-33,-1,-1,1,2,0
5.123208,12,4,6,-25,-4,-1,-1,6,0
5.123217,16,8,3,3,5,3,6,0,0
5.139381,-13,0,6,10,4,2,3,2,0
5.139395,4,-10,-20,9,-4,-1,-3,1,0
5.143717,-29,-3,2,8,-4,-1,-1,14,0
5.143749,7,7,8,9,-4,0,-1,-5,0
5.160249,8,3,12,16,2,1,0,-3,0
5.160274,-14,-3,-4,10,2,4,3,1,0
5.162424,12,-12,-17,-2,-4,-6,-2,14,0
5.162439,3,0,-3,-2,-4,-2,-4,-19,0
5.173768,4,21,13,8,3,1,1,3,0
5.173799,20,6,8,8,2,2,0,5,0
5.183730,-3,-2,-7,4,-1,0,-5,12,0
5.183736,2,-12,-9,-7,-3,1,3,-3,0
5.197309,-7,-10,-9,-7,-4,-3,-4,58,0
5.197334,-4,-1,3,3,-1,-4,-4,-12,0
5.204002,7,1,2,3,1,-3,3,8,0
5.204028,1,5,2,1,-1,1,6,2,0
5.219998,-4,1,-1,-3,-1,0,-7,11,0
5.220020,-1,-2,-7,-6,-5,-3,10,-85,0
5.221908,-3,-8,1,5,0,0,11,25,0
5.221945,1,-1,-1,-5,-1,1,1,-29,0
5.233533,2,-3,-3,0,0,0,6,5,0
5.233549,2,-3,-3,-3,-4,-5,-2,-69,0
5.244091,5,1,2,0,-2,2,10,-46,0
5.244099,-2,-6,-4,-3,-1,1,3,-35,0
5.256932,7,-4,-6,-4,-2,-1,-2,-11,0
5.256960,1,3,1,2,-3,-1,-7,57,0
5.263607,10,22,12,13,10,6,-24,86,0
5.263623,12,-1,4,-1,-1,-3,-8,-90,0
5.280012,-50,-14,-10,-7,-2,1,6,-42,0
5.280035,-23,3,0,3,2,3,4,25,0
5.281564,11,3,5,-1,-3,-3,-9,0,0
5.281588,-19,-2,-7,-2,1,1,-4,-2,0
5.294569,6,2,2,-1,2,-2,-9,-18,0
5.294578,1,-1,1,-3,-2,-3,-4,-8,0
5.303356,-20,-7,-4,-4,-4,-3,1,-81,0
5.303369,-8,-4,-2,-3,-1,-1,-12,32,0
5.316841,-2,-9,-2,-4,-5,-4,21,-8,0
5.316861,-8,3,-1,3,0,0,0,46,0
5.323782,-9,5,2,-3,0,-2,-5,-29,0
5.323807,90,-5,-2,-1,-1,4,19,68,0
5.340659,116,10,6,6,5,-1,-25,33,0
5.340667,-2,-7,-1,-1,3,3,0,-20,0
5.341798,-103,-3,-5,-5,-2,-2,-3,-20,0
5.341836,-128,1,-1,-2,-3,-3,-8,14,0
5.354025,-128,8,1,2,-1,-2,-9,52,0
5.355979,-2,-7,1,-2,-2,-3,1,-10,0
5.363102,78,0,-1,1,3,1,-1,-1,0
5.363109,85,1,-3,-3,-2,0,1,-2,0
5.376871,79,1,-2,-6,0,3,0,-11,0
5.376895,56,-3,1,0,-1,4,1,12,0
5.383755,-43,-9,-5,-7,-4,-2,1,-5,0
5.383791,35,3,-3,-5,-2,-5,-13,-16,0
5.399705,-14,2,-1,-5,-3,-3,5,-47,0
5.399728,-24,5,0,1,-5,-5,2,3,0
5.406543,9,3,4,0,-3,-1,6,-1,0
5.406564,-22,-1,1,2,-2,-2,4,-12,0
5.413578,-14,-1,-3,1,-5,-5,1,-31,0
5.413602,-1,1,1,4,-1,-2,2,-8,0
5.424207,29,-1,0,3,-4,-4,-2,3,0
5.424219,-11,0,2,3,-3,-5,2,17,0
5.436764,22,-3,0,6,-3,-4,1,-18,0
5.436787,3,-1,0,3,0,-2,1,4,0
5.443742,6,-4,-2,-1,-2,-2,-7,-22,0
5.443762,-9,-2,-1,2,0,1,-1,3,0
5.459746,2,0,-1,0,-1,1,-1,-7,0
5.459765,-5,0,-2,0,0,-1,0,6,0
5.467632,2,-2,-1,0,2,0,1,5,0
5.467655,-11,-2,-1,0,1,0,0,3,0
5.481896,-2,-6,0,-1,1,2,0,2,0
5.481913,-2,2,-1,-1,0,1,-2,1,0
5.482479,6,-5,-3,-5,1,-1,1,2,0
5.482584,1,0,-1,0,2,2,-2,7,0
5.497623,-6,-6,-7,-7,0,2,-3,-13,0
5.497638,-3,-1,-2,-4,0,2,-2,8,0
5.503878,8,1,-2,-2,0,1,-4,1,0
5.503901,-9,-2,-2,-5,0,3,-2,2,0
5.518978,1,-1,-2,-5,0,-1,-3,-7,0
5.519062,3,1,1,-3,1,-1,-2,-1,0
5.526221,2,-2,-2,-1,-4,1,1,13,0
5.526260,-5,1,-1,-3,0,0,-2,-3,0
5.542214,-4,1,-3,-4,0,1,1,2,0
5.542256,-6,0,-3,0,0,-3,-5,-6,0
5.544481,5,2,1,0,0,-1,-1,6,0
5.544489,1,0,0,-3,-2,-2,-3,4,0
5.559247,-2,0,-1,-2,-2,-2,2,-2,0
5.559262,0,-3,-1,0,-1,-2,-3,0,0
5.563845,3,1,-1,0,-3,-2,-1,-5,0
5.563870,-15,-2,-1,2,-2,-1,-2,-7,0
5.578832,2,-5,0,-3,-1,-1,-2,2,0
5.578859,1,-1,-1,-2,-2,0,-2,-10,0
5.586276,-6,0,-2,-3,-2,-3,0,4,0
5.586376,0,-2,-2,-3,0,-2,-2,-6,0
5.601688,-1,1,0,1,-2,0,0,3,0
5.601703,-3,3,-1,-1,0,-1,-1,-4,0
5.602670,5,-4,-3,-1,0,-1,-1,-1,0
5.602675,-1,-1,-1,0,-3,-3,1,5,0
5.618107,-2,-2,-2,-1,-2,-1,-3,-4,0
5.618112,-1,0,-1,-5,0,0,0,3,0
5.623684,-2,2,-1,-3,0,0,2,4,0
5.623705,1,-1,0,0,0,-3,-2,-3,0
5.638694,-1,-1,-1,1,-1,-1,-4,-5,0
5.638713,2,-3,0,-3,-4,-3,-2,-1,0
5.646229,-3,-1,-3,-2,-1,-2,-2,-6,0
5.646255,0,5,0,5,4,3,5,3,0
5.661775,-7,3,4,1,1,-1,0,-3,0
5.661798,0,-3,0,2,0,0,-2,1,0
5.664626,-1,-3,-1,-5,-3,-4,-3,-5,0
5.664633,-2,-2,-5,-5,-3,-2,-1,-5,0
5.677601,1,0,-1,0,1,1,2,0,0
5.677632,-4,-1,-2,-2,0,-1,0,-2,0
5.684135,1,0,-5,0,-1,-2,-2,-3,0
5.684167,-1,-2,3,4,0,-1,-2,1,0
5.698830,1,0,-1,-4,-2,-1,0,-1,0
5.698866,-1,-2,-1,0,-2,-1,0,-5,0
5.706232,2,0,1,1,0,1,0,-1,0
5.706269,4,0,-2,0,-4,-1,-3,-1,0
5.721971,0,-1,-2,-1,-2,-2,-1,1,0
5.721998,-31,-6,-3,-2,0,-1,-4,-8,0
5.723380,17,0,-1,2,2,0,0,0,0
5.723390,13,1,0,1,1,-1,-2,1,0
5.738431,-3,3,1,1,-2,-1,4,3,0
5.738457,-7,-1,-2,7,9,3,3,4,0
5.743807,12,-7,-5,-23,-27,-6,-7,-8,0
5.743832,-2,-2,2,-3,1,0,-1,1,0
5.759117,2,0,0,-3,-3,-1,-1,1,0
5.759155,20,5,1,7,4,1,1,9,0
5.766283,-25,0,1,6,9,-1,0,7,0
5.766312,-12,-1,-3,-5,-3,0,-3,-10,0
5.781835,0,0,-2,1,4,-2,-2,-14,0
5.781848,-10,0,-1,-4,-4,2,0,-4,0
5.782564,-6,-4,2,6,8,0,1,-5,0
5.782588,-4,3,0,-7,-17,-3,2,6,0
5.797553,-7,-2,-2,2,4,-1,1,9,0
5.797585,10,-10,-10,-9,-8,-5,-9,-8,0
5.803581,-2,3,0,4,7,-3,-2,1,0
5.803598,15,1,1,1,9,-1,1,7,0
5.818572,-45,-7,-2,3,7,0,-5,-5,0
5.818590,10,1,2,-6,-18,-1,3,11,0
5.834523,5,-1,-1,-5,-7,-2,-2,1,0
5.834549,-2,-4,-4,-12,0,0,0,-3,0
5.842624,21,-1,-1,20,18,0,-1,-3,0
5.842663,14,2,1,-8,-13,-4,-4,-1,0
5.844620,-4,2,2,6,4,3,3,9,0
5.844629,-10,0,1,-2,-5,-1,0,-15,0
5.857895,7,-4,-6,-7,-5,0,0,-13,0
5.857906,-4,-4,-5,0,8,-5,-7,-5,0
5.863541,13,1,3,3,-5,2,1,-3,0
5.863558,-22,-6,-7,-5,0,-1,-1,0,0
5.878583,17,-5,-6,-3,-10,-1,-1,-7,0
5.878600,-14,5,2,1,11,-1,0,-5,0
5.886013,9,0,-1,-3,-12,-8,-3,4,0
5.886029,0,6,4,7,9,2,1,9,0
5.901659,0,-2,2,2,-8,-3,-1,3,0
5.901674,-6,0,-2,0,-3,1,3,5,0
5.902983,-2,0,-4,-9,7,7,0,3,0
5.902998,-11,-9,-11,-6,1,-6,-8,-5,0
5.918120,-1,2,-2,0,2,-6,-4,2,0
5.918126,4,4,12,12,5,3,2,3,0
5.923818,-6,2,0,3,8,0,3,0,0
5.923853,1,-3,0,-1,-9,-1,-1,-4,0
5.939853,2,-2,-9,-35,-16,2,1,0,0
5.939861,3,0,1,15,8,-3,-2,-3,0
5.946181,-10,-5,-5,-3,-3,0,0,-5,0
5.946204,5,1,9,12,3,-2,-2,-6,0
5.961806,-3,0,1,4,-3,0,-2,-1,0
5.961824,-3,-7,-14,-10,2,0,2,-1,0
5.963917,-5,3,1,-5,-6,-1,-3,-5,0
5.963931,3,1,-7,-5,1,1,1,2,0
5.978293,-2,4,11,3,6,2,0,4,0
5.978299,-5,-4,0,-7,-9,-3,-2,0,0
5.983516,-3,-11,-24,-3,1,-6,-6,-5,0
5.983532,2,-4,16,14,3,2,0,1,0
5.998547,0,11,7,7,4,-1,2,0,0
5.998565,6,2,-5,-4,-7,1,-1,1,0
6.006354,6,-5,7,-12,-8,0,-3,-3,0
6.006382,-3,-5,-24,-11,-8,-5,-2,0,0
6.021910,7,-6,19,6,-1,0,-4,-4,0
6.022045,3,17,3,-1,3,4,3,1,0
6.028651,-6,2,-3,4,5,2,2,4,0
6.028674,2,0,9,5,5,2,-1,2,0
6.037619,-5,-10,-18,-7,-11,-4,-5,-1,0
6.039315,0,-4,-4,-7,-2,-4,-5,-3,0
6.043686,1,2,-10,3,-2,-1,2,-1,0
6.043703,0,-1,-5,-7,-5,-1,0,2,0
6.059125,-6,-2,-1,-2,8,-4,-3,2,0
6.059168,-3,-2,0,0,-1,0,-2,0,0
6.066610,-4,1,1,9,2,-1,0,1,0
6.066642,1,-11,3,0,-4,-2,-1,1,0
6.082188,-8,1,-33,-22,-11,-3,-3,-8,0
6.082211,-3,-12,35,-7,-2,-3,0,-1,0
6.082631,12,36,14,31,7,5,2,0,0
6.082646,-9,2,17,13,3,3,2,-2,0
6.098326,3,-8,-7,2,2,2,-2,3,0
6.098351,-1,-22,-40,-19,-7,-5,-4,-2,0
6.111819,-15,-13,8,-20,-9,-7,-8,-11,0
6.111835,10,15,3,-2,1,-1,-2,4,0
6.118681,4,-5,2,-1,0,2,3,1,0
6.118704,-10,1,-2,5,3,1,-1,0,0
6.126242,0,-5,0,-1,-1,-1,-2,-6,0
6.126259,1,3,-6,-3,-3,-1,-2,-3,0
6.143142,-5,-2,1,-5,2,-1,-1,-4,0
6.143157,6,-7,-2,-9,-5,1,-2,-5,0
6.144150,-2,-8,-26,-6,3,-1,-1,0,0
6.144167,8,-15,-3,4,-2,-2,1,3,0
6.158407,8,33,21,5,1,-1,-2,-5,0
6.158425,-27,12,15,21,8,6,2,4,0
6.163591,-3,-2,15,-3,-2,-2,1,9,0
6.163615,-38,-23,-28,-11,-4,-3,-8,-17,0
6.178609,8,-8,-7,-3,-4,-3,-2,9,0
6.178631,-2,0,-13,-7,-3,-4,-2,1,0
6.186208,13,6,0,-4,-1,1,-2,-4,0
6.186231,7,5,0,-2,1,0,2,4,0
6.201915,-13,-1,9,6,0,-1,2,1,0
6.201947,-13,2,-2,2,-1,-4,-5,-19,0
6.203728,-2,-9,-5,1,-2,-2,4,8,0
6.203735,3,4,2,-4,-1,-4,-3,-7,0
6.224673,2,-1,1,-2,-2,-2,0,2,0
6.224702,16,2,-2,2,-2,1,2,0,0
6.226698,-9,-6,3,4,-2,-2,-1,-3,0
6.226707,-2,3,3,0,-1,-2,1,2,0
6.238865,2,3,-3,3,0,-1,3,4,0
6.238889,0,-9,0,1,-2,-3,-9,7,0
6.246152,2,-4,-1,-3,-2,-1,1,-5,0
6.246176,11,11,3,0,1,1,-1,2,0
6.262015,-17,-10,-3,2,-2,2,-5,-12,0
6.262032,10,2,2,0,0,1,5,-9,0
6.263331,15,14,9,6,2,2,-9,61,0
6.263342,-12,-20,-5,-4,-1,-1,-7,2,0
6.278198,11,-2,-4,-6,-4,-2,-2,-10,0
6.278210,8,1,-1,-3,0,-2,-1,-1,0
6.283576,-3,-2,-3,-5,0,2,2,-20,0
6.283600,11,7,0,-4,-2,0,11,-38,0
6.298671,10,6,5,8,3,4,-9,85,0
6.298694,-3,-2,-1,-2,-2,-3,1,9,0
6.306257,-8,-5,-2,-4,-2,-1,-3,-30,0
6.306283,-2,0,-2,-2,-1,-1,-1,-34,0
6.321411,-6,-7,-2,-1,-2,0,4,-22,0
6.323381,-9,2,-6,-1,-3,-1,-4,-15,0
6.328679,-3,-8,-4,-7,-4,-3,-4,-5,0
6.328703,0,2,0,-2,-1,-1,-4,17,0
6.340020,1,3,6,4,2,2,4,-2,0
6.340030,4,3,3,2,1,1,1,18,0
6.343587,-9,-12,-7,-6,-4,-4,-5,-19,0
6.343604,-7,-2,-4,-1,-2,-1,-3,18,0
6.359071,-6,-2,-3,-3,-2,-3,-2,-6,0
6.359113,4,-5,-3,-4,-2,-2,0,-5,0
6.366527,-3,1,-2,-1,-1,-2,4,6,0
6.366551,8,7,5,0,-2,-3,1,17,0
6.381087,-23,-4,1,-1,-1,0,-1,-4,0
6.381109,-1,-2,-5,-5,-2,-3,-3,-8,0
6.389392,-5,2,0,3,0,-1,0,-5,0
6.389425,4,-6,-6,-4,-2,-1,-6,-3,0
6.404416,-13,-8,-6,-5,-3,-2,-5,-31,0
6.404439,-5,-4,-3,-1,0,-1,0,-1,0
6.406551,0,-1,-1,-4,3,0,3,1,0
6.406568,-9,4,1,1,-1,1,0,0,0
6.418929,5,0,2,1,1,-2,-1,-9,0
6.418945,0,-1,-4,-1,0,1,-1,-2,0
6.426307,0,0,3,-4,-2,-1,-1,0,0
6.426327,3,1,0,3,0,-1,0,1,0
6.441619,8,-4,-5,-3,-2,-2,0,10,0
6.441628,-1,-1,-2,1,-2,-2,-1,-3,0
6.449274,0,2,3,2,0,0,4,8,0
6.449304,-13,-3,-1,-4,1,0,-6,-22,0
6.464352,5,-1,-3,-1,0,-2,3,3,0
6.464368,-1,-2,0,-2,-3,-3,-1,-2,0
6.465801,-3,-2,-3,1,-1,1,-3,-1,0
6.465812,1,0,2,-4,-2,-2,0,4,0
6.478667,6,-2,1,1,-2,-3,1,-1,0
6.478690,-9,1,-4,0,0,0,0,-4,0
6.486258,4,-6,2,2,-2,-2,-3,-4,0
6.486281,3,1,-5,3,-1,0,4,15,0
6.501262,-2,3,4,-3,-1,-1,-1,-7,0
6.501285,4,3,10,3,3,2,1,-2,0
6.509056,-4,0,1,-1,-1,-1,-1,0,0
6.509086,6,-6,-15,0,0,-2,1,-2,0
6.524554,17,0,1,0,-3,-3,-2,-8,0
6.524686,-5,5,7,2,-1,0,0,4,0
6.526335,-16,-1,-3,-2,1,0,-2,-8,0
6.526343,0,-3,0,-4,0,-2,-1,-2,0
6.538800,5,-5,-10,-6,-2,-1,1,6,0
6.538829,18,1,-2,-3,-1,0,0,1,0
6.546324,-5,-3,0,-3,0,-2,-1,-3,0
6.546349,-7,0,0,-2,-2,-3,-1,9,0
6.561178,-4,0,-4,-2,-1,-1,0,-5,0
6.561278,-1,-2,1,3,0,0,0,2,0
6.568540,11,0,0,0,-1,0,-1,5,0
6.568555,-15,-1,3,3,0,1,1,0,0
6.584376,2,-2,-5,-2,-1,-1,-4,-15,0
6.584400,8,-1,-4,0,-2,-2,1,6,0
6.586703,-15,3,-3,0,-1,-2,3,5,0
6.586708,20,-1,1,-7,-2,-3,-1,-2,0
6.598593,-16,-5,8,6,-2,1,2,7,0
6.598609,7,5,9,0,1,2,2,-1,0
6.606249,23,4,3,1,-1,2,1,9,0
6.606274,-28,-4,2,-4,0,2,-3,-11,0
6.621700,-1,-5,-11,-6,-2,-2,-4,0,0
6.621738,-14,-8,-6,-5,-4,-3,-3,-4,0
6.628691,7,4,-2,2,-1,-1,-3,-4,0
6.628711,10,1,-1,2,-2,-1,3,8,0
6.644401,-4,2,-2,-3,-2,0,-1,-7,0
6.644450,17,1,-2,1,-1,1,-1,1,0
6.646773,2,1,1,2,1,-2,1,-5,0
6.646780,-10,-2,-3,-4,-1,-2,-6,-11,0
6.658984,-6,-1,1,8,9,-2,0,1,0
6.659024,-2,-2,-1,-10,-8,0,1,-2,0
6.666685,-3,-2,-3,-4,-7,-2,-1,-5,0
6.666717,7,0,3,0,1,0,1,4,0
6.681279,-26,-4,-2,-2,-2,-1,-6,-15,0
6.681302,-14,-3,-6,7,8,-1,0,6,0
6.688695,4,-4,-5,-10,-9,-2,-4,-9,0
6.688800,18,6,4,5,1,0,2,9,0
6.704390,-2,3,8,1,2,3,1,3,0
6.706204,-10,-4,-16,-4,-1,-3,-3,-10,0
6.706211,4,-4,-1,-6,-3,-3,-4,9,0
6.706214,-6,-1,2,4,3,-2,0,5,0
6.718565,8,4,5,2,1,2,5,44,0
6.718581,-1,-4,1,2,-1,-3,-3,114,0
6.726332,5,8,1,22,29,6,4,93,0
6.726353,11,-2,-5,-23,-36,-7,-6,1,0
6.741688,-54,-5,-3,-5,-3,-3,-7,-90,0
6.741697,-1,0,4,27,25,2,4,-128,0
6.748734,-22,-11,-11,-23,-24,-7,-6,-95,0
6.748757,11,0,-3,-13,-6,-2,0,-34,0
6.764285,29,4,-1,-5,0,1,3,-4,0
6.764302,-4,3,7,-2,2,2,1,14,0
6.765526,-3,-5,3,19,19,4,-2,-36,0
6.765531,-9,-3,-4,3,-1,-1,-2,-45,0
6.778666,7,-4,-10,-13,-13,-6,-3,-56,0
6.778692,-2,5,6,5,7,-1,-2,-80,0
6.786252,20,6,9,7,3,2,7,5,0
6.786274,-27,-15,-6,0,-3,-1,0,51,0
6.801572,-9,1,1,4,2,-2,-2,77,0
6.801603,-1,3,-5,-10,-13,-5,-5,66,0
6.809049,-27,-8,-7,-11,-11,-3,-5,27,0
6.809082,-9,0,-4,-7,3,-4,-8,10,0
6.824721,27,4,5,16,-2,-3,2,33,0
6.824742,-5,-14,-10,-7,-6,2,4,9,0
6.826551,-3,15,12,-2,-10,0,3,1,0
6.826560,27,13,12,15,25,2,5,14,0
6.838851,-15,-6,-3,2,4,3,-2,9,0
6.838881,-8,-8,-2,-9,-11,-4,-8,-11,0
6.846157,13,-16,-11,1,-6,0,-2,-6,0
6.846181,22,1,-6,-8,-9,-2,0,-4,0
6.861201,-36,1,0,-1,5,-2,-3,-17,0
6.861219,6,1,1,-23,-27,-2,1,10,0
6.869106,-6,-3,-4,-4,5,-4,-3,-7,0
6.869130,11,4,4,10,12,2,1,-3,0
6.884426,14,2,-1,-12,-10,-5,0,8,0
6.884449,-7,-6,-4,1,-7,-1,-2,-1,0
6.886332,-5,-2,-2,-4,0,0,-1,0,0
6.886337,19,-7,-7,-6,-2,1,-2,1,0
6.898621,-47,-16,-25,-4,11,-1,-5,-16,0
6.898644,19,22,15,-5,9,2,4,8,0
6.906284,49,13,18,21,4,-3,3,4,0
6.906314,-60,-3,12,26,8,10,6,3,0
6.921500,40,-16,-6,-12,-9,-3,-5,6,0
6.921533,21,7,-8,4,-8,-3,-4,-1,0
6.928617,-22,1,-9,-8,-1,-2,-4,-1,0
6.928633,20,-1,-6,-3,1,-3,-3,7,0
6.944301,13,0,3,-1,-12,0,1,2,0
6.944320,-27,-15,-11,-8,10,1,-4,2,0
6.945883,10,-4,1,4,2,2,1,2,0
6.945892,-10,-3,-2,9,2,1,-4,-2,0
6.960674,-21,-10,-3,-32,-26,-5,-2,1,0
6.960689,14,17,-9,-8,-5,-4,-1,-9,0
6.966473,3,7,25,2,9,7,6,9,0
6.968664,-28,-4,0,2,2,0,-6,-6,0
6.981457,2,-5,-4,12,9,-1,-2,-7,0
6.981572,11,-11,-7,-2,-5,-4,-1,0,0
6.988714,-5,0,-8,-5,-4,-5,-3,-8,0
6.988736,-31,1,3,2,2,2,0,-2,0
7.004196,29,-7,-3,3,2,-3,-1,3,0
7.004221,-20,-2,-6,4,-6,-2,-5,-9,0
7.006848,16,12,1,-11,2,-1,-4,-10,0
7.006860,10,1,14,13,-5,0,3,19,0
7.018730,2,10,-1,3,6,1,0,4,0
7.018894,-4,-3,0,-1,6,2,2,2,0
7.026443,-21,-15,-7,-4,-5,-2,-3,-5,0
7.027498,10,11,-1,-11,-10,-4,-5,-9,0
7.041198,-13,9,12,7,3,2,1,1,0
7.041220,7,-6,6,9,6,3,0,9,0
7.048645,-8,-8,-6,-7,-11,-3,-1,-5,0
7.048670,-12,-12,-11,-13,-4,-3,0,4,0
7.064305,32,5,1,3,1,0,2,3,0
7.064321,-33,-5,3,2,3,0,-5,-7,0
7.065593,-25,-7,-6,-3,-5,-4,-7,1,0
7.065604,15,2,-5,-8,-1,-2,-2,-11,0
7.078684,3,7,2,-1,1,-1,1,1,0
7.078708,7,2,3,2,1,1,2,8,0
7.086268,6,-3,-4,0,1,1,1,-7,0
7.086285,-9,3,0,1,-1,0,2,25,0
7.103011,12,5,2,5,2,1,1,6,0
7.103017,4,-4,1,2,0,-2,-7,19,0
7.108948,-14,-4,-7,-1,-3,-3,3,4,0
7.108995,12,1,1,-2,3,4,3,41,0
7.124387,0,2,3,2,0,1,1,-1,0
7.124418,-7,2,1,4,2,-2,-3,13,0
7.125955,-2,1,-2,0,-2,0,0,2,0
7.125963,4,-2,-6,-7,-5,-2,-1,13,0
7.139003,-27,-4,1,2,2,-2,-20,21,0
7.139043,-1,-2,2,-1,-3,-2,-4,15,0
7.146078,6,-4,-4,-2,0,0,3,-26,0
7.146141,8,-10,-3,-1,-3,-2,3,15,0
7.161129,1,13,5,4,0,2,3,11,0
7.161146,-15,-6,-1,-6,-3,-6,-4,-31,0
7.168553,-2,-6,-2,-2,-2,-1,0,10,0
7.168576,-4,10,2,3,1,-1,1,12,0
7.184255,26,-4,-4,-3,-3,-4,-2,-56,0
7.184278,-3,-1,0,0,-2,1,6,-9,0
7.186196,-4,-1,-4,-4,0,-2,2,4,0
7.186210,0,4,0,-3,-4,-7,4,-35,0
7.198726,2,-2,2,3,1,3,4,19,0
7.198750,22,5,3,5,-2,-1,-1,-12,0
7.206264,2,1,1,-1,-3,-6,-14,-18,0
7.206294,-8,1,-3,-4,-3,-2,-11,-60,0
7.223677,31,0,1,0,-2,1,22,42,0
7.223686,-34,-6,-2,-2,0,-3,-5,-8,0
7.228666,0,0,-4,-2,-1,0,0,38,0
7.228686,-1,-7,-7,-4,-4,-3,6,-59,0
7.244322,30,5,1,0,3,1,4,1,0
7.244332,-26,-1,2,-1,-1,1,-4,-14,0
7.244936,-5,-1,-2,-4,0,-1,-3,-25,0
7.244951,14,-22,-6,-5,-1,2,-4,-16,0
7.258967,-35,1,-4,-3,0,-1,0,18,0
7.258998,30,5,4,2,1,-1,-5,54,0
7.266218,1,5,0,6,1,0,-6,17,0
7.266248,-19,-1,-1,-2,-3,-4,-13,-19,0
7.281118,16,-6,-3,-5,0,-1,0,-21,0
7.281142,27,5,-1,-2,-1,0,-4,27,0
7.288681,-39,1,5,4,2,1,-9,46,0
7.288713,26,2,-4,-1,-1,-2,-5,1,0
7.306853,3,2,-1,2,-1,-3,-12,-5,0
7.306860,-41,-14,-5,-1,0,0,-5,-31,0
7.311857,26,2,-3,-3,-3,-3,2,-107,0
7.311968,4,-2,-3,-7,-6,-2,22,-69,0
7.318894,-30,-6,-3,-1,-1,3,20,-11,0
7.318918,20,0,-1,-3,-1,-1,17,-16,0
7.326348,5,2,3,5,3,2,-9,70,0
7.326377,-11,-2,2,0,0,0,-1,21,0
7.341272,-20,-7,-7,-6,-5,-3,-8,-13,0
7.341305,9,3,-4,-8,-3,-1,4,69,0
7.348708,11,-15,-2,-7,-1,1,7,-116,0
7.350969,-53,13,5,1,-1,-4,-7,-30,0
7.363693,22,1,1,-5,-5,-5,19,59,0
7.363718,-32,-18,-1,6,-1,0,16,-128,0
7.372175,26,9,-3,1,-3,-5,10,-42,0
7.372219,18,3,-2,5,2,1,38,42,0
7.386849,-26,-5,-3,-5,-3,-3,107,1,0
7.386864,4,1,-3,-6,1,2,55,102,0
7.387356,11,-1,-1,-1,-1,-4,-80,31,0
7.387371,10,-5,0,-2,0,2,-125,-66,0
7.401093,-40,0,-1,0,-1,-5,-78,-43,0
7.401118,22,0,1,-2,-1,-1,41,-17,0
7.416929,-23,-4,0,-4,-3,0,65,64,0
7.417027,6,-2,-4,-1,2,1,48,51,0
7.423854,12,4,3,0,1,1,11,2,0
7.423891,-1,0,2,1,1,-4,-15,-47,0
7.431884,-42,-5,-4,-1,1,0,13,6,0
7.431908,-5,8,2,4,1,1,9,107,0
7.446699,-14,-7,-10,-11,-3,-4,-15,-89,0
7.446830,-7,-6,-5,2,-2,-1,-9,-28,0
7.447383,29,11,8,5,2,-1,-3,10,0
7.447390,-18,-4,-2,-4,-3,0,14,21,0
7.462154,-15,-12,-9,-10,-8,-3,-12,-106,0
7.462161,2,8,-6,-5,-1,1,-30,37,0
7.468917,2,-3,-1,-1,-2,-2,2,0,0
7.468941,3,6,-2,-4,-2,-4,5,-73,0
7.484167,12,-8,3,7,2,0,-8,13,0
7.484198,1,4,-3,0,2,-1,-18,-1,0
7.492659,2,-1,-5,-5,-3,1,12,7,0
7.492665,13,-8,0,0,0,-4,-8,-12,0
7.506941,5,0,-1,2,2,1,-9,39,0
7.506981,14,12,4,9,5,2,-44,100,0
7.509214,-1,-6,-3,-2,0,1,2,-52,0
7.509223,6,2,2,-1,-1,-2,0,4,0
7.521204,-2,0,-1,-4,-1,1,4,15,0
7.521282,1,3,5,7,-2,-3,2,42,0
7.528580,-8,-1,-2,-1,1,0,43,-38,0
7.528603,7,-7,-2,-4,-3,3,10,22,0
7.543665,25,11,6,5,2,-2,-90,13,0
7.543683,-33,-7,-4,-10,-4,1,-26,-24,0
7.552170,15,6,3,0,-3,-2,-44,-11,0
7.552193,-24,-2,2,-1,1,-2,24,20,0
7.566911,24,-2,-3,-3,-1,-1,44,18,0
7.566935,0,-2,-1,-5,-2,-1,-15,-27,0
7.568173,-21,-6,0,0,1,-1,0,2,0
7.568179,9,-1,-4,-4,-1,0,-4,-40,0
7.581135,-10,3,4,1,-1,-2,-2,8,0
7.581159,3,-4,-3,-2,-2,-1,22,-24,0
7.588726,3,-2,-4,-6,-2,-3,10,-8,0
7.591234,8,2,-1,0,1,-2,-21,-42,0
7.603564,-6,3,5,6,2,-5,-26,-61,0
7.603627,13,-8,-8,-8,-4,1,24,-52,0
7.611947,-20,-1,-1,0,-2,-2,-1,8,0
7.611970,1,0,-3,5,0,0,-14,21,0
7.626802,-4,-3,-5,3,1,2,11,5,0
7.626820,-16,-4,0,1,-3,-1,5,-16,0
7.628810,12,2,-3,-5,-5,-1,-9,-26,0
7.628817,2,-1,-3,-4,-2,-1,6,7,0
7.641436,10,0,-1,0,1,3,13,15,0
7.641475,32,2,0,-1,0,0,-3,-19,0
7.648581,-31,-6,-6,-4,-1,-1,-5,10,0
7.648596,20,1,-1,1,0,-1,10,16,0
7.663646,10,0,0,1,-1,3,11,23,0
7.663669,-14,-5,-2,-3,-3,-6,-14,-30,0
7.671935,12,5,3,5,2,3,6,22,0
7.671958,11,-1,-1,-3,-2,0,-4,12,0
7.686901,-24,2,-1,-1,-2,-1,5,37,0
7.686924,30,0,0,-1,1,-3,-1,-26,0
7.689061,-27,-7,-4,-4,-5,-4,14,44,0
7.689069,-8,-6,-5,-4,-1,3,9,8,0
7.701853,-11,3,3,3,-3,0,6,20,0
7.701883,-24,-3,1,0,-1,-1,-7,-3,0
7.709047,7,0,0,-1,0,2,-16,39,0
7.709093,-5,-1,-1,1,-1,-2,-2,-6,0
7.723865,12,-2,-6,-7,-2,-3,-7,-14,0
7.723911,-3,3,4,6,5,3,11,23,0
7.732042,-3,-1,0,-1,1,-1,-3,-1,0
7.732065,14,0,-1,-3,-1,-2,-4,-35,0
7.746769,-10,-6,-1,6,4,3,4,-13,0
7.746792,21,5,-6,-6,-1,0,1,-17,0
7.747673,-7,-6,-1,-3,-1,-5,-7,-17,0
7.747731,-16,-1,-1,-6,-9,0,0,-1,0
7.761184,-7,-4,-7,3,1,-3,-8,-22,0
7.761207,-14,1,15,3,0,1,11,19,0
7.776807,9,7,-5,12,16,2,22,-1,0
7.776825,-1,-2,-5,-13,-14,-3,7,4,0
7.783552,15,-5,-2,-28,-34,-3,20,12,0
7.783575,-6,-6,0,21,17,3,50,2,0
7.791930,15,-4,-2,0,-36,-5,108,-18,0
7.791986,9,-2,1,53,15,0,29,-5,0
7.807650,16,-3,-2,80,4,1,18,10,0
7.807668,3,-2,-14,116,0,0,-36,-25,0
7.807672,11,-9,-77,127,13,8,-37,22,0
7.807750,14,-22,-70,81,8,18,-55,58,0
7.823548,6,-2,91,-72,8,9,-108,81,0
7.823555,-26,7,102,-120,-7,-7,-92,-4,0
7.828678,19,-6,4,-128,9,8,-5,14,0
7.828732,21,-47,-102,-49,104,31,98,78,0
7.843727,4,0,-121,60,127,17,17,15,0
7.843746,-101,95,65,119,-76,-78,-52,-94,0
7.852385,-85,83,100,124,-107,-81,-49,-110,0
7.854750,-47,38,54,9,-90,-51,16,-69,0
7.866920,9,-35,-24,-67,48,3,81,9,0
7.866951,73,-61,-67,-128,127,39,72,91,0
7.869027,27,-31,-30,-128,127,27,28,46,0
7.869033,12,-13,8,-128,67,16,5,35,0
7.881229,11,-8,6,-117,33,9,4,-17,0
7.881245,19,-11,-37,-128,11,12,23,27,0
7.888744,20,-10,-1,-107,18,13,-14,-14,0
7.888772,12,3,22,-65,11,4,-16,1,0
7.903717,-1,13,8,-32,-29,-10,-12,-23,0
7.903739,-29,-3,-19,-2,-13,-4,4,-19,0
7.911791,6,-14,-4,-14,-8,9,-5,17,0
7.911808,8,12,24,-12,-10,-2,-23,-3,0
7.926826,-13,16,11,10,-30,-13,-2,-25,0
7.926852,-5,-16,-21,20,-18,2,6,-20,0
7.928434,10,-8,2,32,13,5,-12,8,0
7.928445,-9,14,15,-3,-6,-5,-14,-6,0
7.941463,-23,3,3,41,-28,-11,-1,-6,0
7.941502,8,-13,-14,33,-2,7,9,11,0
7.956699,-8,-6,-4,50,-2,1,-7,6,0
7.956725,-6,12,10,51,-5,-5,-7,-11,0
7.975270,-11,0,3,47,-16,-3,3,-7,0
7.975289,12,-3,-8,61,1,4,5,4,0
7.975295,-3,-4,-2,32,0,0,-2,0,0
7.975300,-11,-2,3,33,-11,-4,-8,-17,0
7.986923,-4,0,4,49,-11,-2,-2,-8,0
7.986946,25,-2,-9,43,-1,2,7,12,0
7.989699,0,0,-3,51,1,1,-2,6,0
7.989708,-14,-1,2,31,0,-5,-10,5,0
8.001608,-1,2,0,10,-3,-3,-5,-16,0
8.001631,11,-1,-3,-17,1,1,7,3,0
8.009078,-11,-2,-2,-37,0,1,-5,-16,0
8.009106,2,-1,1,-21,3,-1,-3,-10,0
8.025134,-1,-4,-5,-41,-8,-8,-3,-33,0
8.025242,13,4,1,-27,-3,0,8,38,0
8.031927,-18,-3,-2,-15,4,2,-2,-6,0
8.031958,-5,2,2,2,0,-2,-3,-6,0
8.046812,3,1,2,1,-6,-3,2,-20,0
8.046828,-3,-6,-8,-2,2,2,5,5,0
8.048508,12,-1,-2,11,3,0,-2,15,0
8.048519,-7,2,5,15,-1,-1,0,12,0
8.063610,1,1,-2,11,-3,0,-3,14,0
8.063616,0,-3,-4,14,-2,-5,-18,-6,0
8.070017,1,-5,0,17,3,3,11,11,0
8.070029,9,1,3,20,-3,-8,-21,-32,0
8.083797,-39,-3,0,62,2,1,-7,-7,0
8.083879,4,11,-2,26,0,-3,-23,-58,0
8.092076,17,-5,-3,7,0,-2,-4,-4,0
8.092108,18,4,2,6,0,1,-2,-14,0
8.107022,-39,-9,-4,-10,-4,-3,-8,-50,0
8.107042,-17,1,6,-5,1,3,16,40,0
8.108193,-4,-13,-9,-25,-4,-2,-5,-9,0
8.108202,7,0,1,-14,0,1,5,-9,0
8.121443,14,7,2,-15,1,4,13,49,0
8.121481,-12,-8,-5,-15,0,1,7,-1,0
8.128787,12,6,2,-19,1,-1,-6,-7,0
8.128805,-20,2,4,-1,2,0,-12,36,0
8.143848,16,0,-1,-11,-1,1,3,39,0
8.143873,0,2,4,-10,1,-2,-11,-46,0
8.152227,-1,0,0,-3,-1,1,0,12,0
8.152257,-16,-6,-9,-10,-2,-2,-4,-44,0
8.166745,3,-5,-6,-12,-4,-4,-3,-34,0
8.166768,-10,-11,-2,-7,-1,2,15,19,0
8.167461,-5,4,-1,-1,-1,-2,-10,-1,0
8.167476,-18,-7,-4,-3,-3,-1,10,18,0
8.181138,27,3,1,-8,-1,-5,13,-2,0
8.181161,0,-1,0,2,3,6,5,26,0
8.188890,10,0,0,0,-1,-2,26,-2,0
8.188929,-24,-4,-2,-4,-3,-2,25,-9,0
8.203873,12,1,1,-3,0,2,3,32,0
8.203891,1,0,-3,7,-2,-3,-77,6,0
8.211895,16,6,2,3,-1,-1,-67,-37,0
8.211912,14,-7,-3,-1,-4,0,71,-8,0
8.226415,-67,-8,-3,1,2,6,109,-3,0
8.226449,22,-3,-6,-4,-1,1,-62,2,0
8.234762,-24,-4,-3,-5,-3,-3,-90,-18,0
8.234785,1,-5,-1,0,-3,-2,-126,-53,0
8.241289,9,-1,1,1,1,-2,34,-16,0
8.241321,-7,-6,-2,2,10,0,127,-17,0
8.248565,-7,-2,-5,-22,-22,-1,115,18,0
8.248580,9,8,4,-1,1,-4,-113,-12,0
8.263759,16,3,2,4,6,0,-81,28,0
8.263783,5,4,2,-2,0,-4,-15,-26,0
8.272025,2,-7,-4,-3,-3,-2,116,-11,0
8.272049,-6,-12,-9,-7,1,4,2,31,0
8.288127,11,-2,-5,-10,-7,-7,-128,-36,0
8.288142,-2,6,2,4,1,-5,-103,-6,0
8.294346,8,8,10,12,9,6,-7,111,0
8.294365,-15,-5,-4,-5,-5,2,105,-48,0
8.303873,16,-3,-3,3,7,7,123,13,0
8.303880,-5,-6,-5,-4,-2,10,120,101,0
8.308854,12,10,2,3,2,-1,-55,-31,0
8.308880,-15,-3,-3,-2,4,4,59,-6,0
8.326689,-1,8,4,-2,-4,-6,17,-128,0
8.326697,5,5,0,-3,-5,-3,5,-44,0
8.331917,-6,-2,-1,3,-2,-15,-128,-78,0
8.331933,2,10,13,15,1,-7,8,-75,0
8.346116,25,2,0,-19,-30,-6,60,0,0
8.346140,-47,-11,-3,1,0,-8,92,12,0
8.361767,19,-2,-2,5,12,9,127,105,0
8.361785,-40,-24,-16,-8,14,13,82,124,0
8.369310,14,-2,-6,-5,-1,9,-72,83,0
8.369332,10,9,1,-16,-16,-10,104,-97,0
8.372176,22,-11,-11,-4,18,20,63,-128,0
8.372206,14,19,7,1,-5,-6,-25,-128,0
8.383562,-14,30,24,20,1,-16,-84,92,0
8.383585,-42,0,11,10,-8,-13,-128,102,0
8.392178,-31,0,9,3,-11,-9,-29,69,0
8.392224,29,3,11,10,4,-2,127,37,0
8.406338,1,-20,-13,-4,5,8,127,28,0
8.406363,53,-30,-24,-13,17,31,106,58,0
8.414300,-6,9,-2,-1,2,1,-65,127,0
8.414325,19,16,3,-1,-17,-11,-128,-41,0
8.429345,-39,15,10,4,-4,-16,30,-128,0
8.429364,-3,13,10,10,-5,-17,112,59,0
8.430071,-5,-18,-6,1,-6,10,127,82,0
8.430092,-2,-21,-14,-9,-1,-8,127,75,0
8.443658,-25,-9,-14,-11,-4,14,-120,93,0
8.443676,6,4,9,8,5,0,-31,-128,0
8.451529,1,2,-4,-7,-1,-9,30,-35,0
8.451553,11,6,5,5,0,-3,61,10,0
8.466216,-31,-13,-8,-4,4,4,127,66,0
8.466242,-20,-16,-12,-13,-1,8,-52,37,0
8.476260,2,12,4,-1,1,-9,-128,-62,0
8.476268,11,2,6,-1,-4,-2,-35,-38,0
8.490988,26,-6,-2,4,7,1,-8,37,0
8.490996,17,9,0,1,-1,-2,2,-34,0
8.490999,-3,2,1,-1,-6,-9,32,-68,0
8.491002,-21,-5,-7,-11,-6,2,-19,65,0
8.503711,4,-4,-5,-5,0,-1,9,-26,0
8.503735,-5,19,12,13,-1,-5,-18,62,0
8.511984,-8,-9,-5,7,5,1,14,-7,0
8.512008,20,3,-4,-5,-3,1,-18,15,0
8.526639,-5,0,2,3,0,-3,-22,-49,0
8.526725,12,-2,-5,-11,-7,3,1,-36,0
8.534247,-2,-9,-3,-8,-5,1,-9,-36,0
8.534271,13,6,3,9,8,6,-9,127,0
8.549246,4,-2,-2,2,2,-2,-18,-60,0
8.549270,13,-2,-6,-5,0,0,-14,-49,0
8.550407,-29,-6,-2,-2,0,0,7,-1,0
8.550419,-14,-3,-1,-1,1,1,-10,-70,0
8.563745,16,-5,-4,-3,0,0,-6,-4,0
8.563769,-8,-2,-1,-6,-3,-3,-11,-23,0
8.572077,20,5,0,2,1,-1,-4,-28,0
8.572097,-18,-6,-5,-6,-3,3,0,-7,0
8.586062,12,2,2,-5,-1,-5,-23,-30,0
8.586071,-23,0,-4,-5,0,-1,11,-10,0
8.594449,9,-3,2,4,1,0,13,45,0
8.594472,14,1,0,0,0,2,-10,-9,0
8.609529,-4,0,0,-4,-1,0,2,-4,0
8.609548,12,-2,-2,-1,-1,-4,-28,-18,0
8.611437,0,-1,-3,-6,-3,-3,-2,-39,0
8.611444,-13,-1,2,3,1,-2,-3,7,0
8.623779,2,-6,-3,3,-1,-2,-14,-41,0
8.623803,3,1,0,-4,-4,-1,0,-5,0
8.634330,-21,2,0,-1,-3,0,-6,-7,0
8.634337,5,-3,-1,-1,0,1,-4,-11,0
8.646361,-6,-1,-2,-5,-4,-4,-12,11,0
8.646386,11,1,0,3,0,-2,-1,15,0
8.654622,-11,-3,-2,-2,-2,-1,8,-46,0
8.654646,-23,-4,1,7,3,-1,7,-9,0
8.669480,-10,-1,-2,-2,0,-2,-3,-19,0
8.669502,1,-8,-5,-5,-1,3,2,-14,0
8.670004,-16,-2,-2,-2,1,0,-2,47,0
8.670019,-3,9,4,-1,3,0,-10,20,0
8.683602,-4,1,1,2,5,2,-3,20,0
8.683626,9,-2,-3,-1,0,-1,4,-11,0
8.692198,16,-2,-2,-3,-4,-1,-2,-30,0
8.692239,-7,-3,-1,-3,-1,-3,-2,-5,0
8.706185,10,-2,1,1,-2,0,5,18,0
8.706201,8,1,-1,-2,-9,-1,3,2,0
8.714439,-16,3,4,4,-3,-5,-5,45,0
8.714552,-1,-6,-6,-3,-3,-5,-5,-7,0
8.729277,8,2,0,1,8,2,5,4,0
8.729294,-1,-5,-7,-4,5,-2,4,-12,0
8.730046,-12,-7,-4,-3,4,-1,12,19,0
8.730070,20,2,4,3,2,-2,5,30,0
8.743697,-12,3,-3,-6,-5,-10,-32,-60,0
8.745242,-2,-6,-2,0,0,0,0,-7,0
8.752131,5,1,-3,-4,-4,-1,-2,-15,0
8.752147,7,-5,-8,-5,-7,-3,-8,-20,0
8.766628,17,4,2,1,-1,1,8,13,0
8.766651,-10,-1,1,2,-3,-1,-6,12,0
8.775799,17,4,2,0,0,-1,-6,-17,0
8.775808,12,2,0,-2,-2,-2,0,-9,0
8.789488,-20,-10,-5,-1,-3,-1,2,0,0
8.789506,-3,-3,-3,-3,-3,-4,-13,-3,0
8.791258,4,-8,-1,-1,0,1,-2,3,0
8.791268,5,8,-4,-4,-3,1,27,-5,0
8.804101,-11,-10,-4,-4,-1,1,45,17,0
8.804133,-8,16,7,3,0,-3,-71,-4,0
8.819330,17,8,7,6,3,1,-37,4,0
8.819345,-3,-2,-2,-1,-1,1,77,-5,0
8.826392,-3,3,0,0,0,3,-28,20,0
8.826419,-9,-12,-4,0,1,-1,-49,-14,0
8.834340,-4,0,-4,-4,-3,-6,60,-23,0
8.834364,-3,-7,-6,-3,-1,-1,22,13,0
8.849214,13,4,1,3,0,-1,-41,15,0
8.849232,-24,-6,-5,-3,0,-1,-56,2,0
8.850691,-3,-3,-3,-3,-2,-1,-128,-12,0
8.850697,-11,2,2,0,-1,-4,-49,-24,0
8.863653,13,2,-2,0,-1,-4,66,-14,0
8.863678,-10,-3,1,-3,3,1,101,-4,0
8.872086,-3,-1,-3,-3,3,0,-70,-10,0
8.872106,8,-1,0,-7,-2,-3,-82,3,0
8.885992,-12,2,2,-3,-3,1,-58,14,0
8.886000,-7,0,-2,0,-4,-3,57,7,0
8.894356,2,-2,-3,1,-2,1,67,12,0
8.894382,-14,-3,0,5,-1,1,25,26,0
8.909836,2,-1,-1,4,0,0,78,6,0
8.909867,16,-3,-4,-1,-3,-3,-73,-2,0
8.911507,-20,-6,-9,-13,-8,-5,-80,-19,0
8.911519,-1,7,7,3,3,1,-125,-23,0
8.923663,20,8,15,19,16,8,18,7,0
8.923700,-16,-6,-1,4,0,-2,127,41,0
8.931878,-12,-11,-4,2,-1,0,-72,-13,0
8.931902,-1,-1,-9,-7,-10,-6,-89,-53,0
8.946718,1,3,-6,-7,-8,-7,-42,-16,0
8.946725,6,0,4,3,4,-2,-21,89,0
8.955149,8,-2,1,-3,-2,-2,68,31,0
8.955177,-3,-4,-5,-3,-1,2,78,33,0
8.969822,-4,-2,-1,-3,0,1,-16,-37,0
8.969849,0,2,-3,-1,0,0,-27,-57,0
8.971401,-4,0,0,0,-2,-3,104,-17,0
8.971418,1,1,0,1,2,1,125,7,0
8.984164,-5,-3,-3,-6,-2,-4,-111,19,0
8.984185,-1,0,-1,-5,-5,-2,-97,-31,0
8.994169,2,1,4,2,1,0,-30,5,0
8.994204,-3,-7,-2,1,1,-2,-8,10,0
9.006321,-6,-4,-5,-5,-4,-2,43,12,0
9.006349,4,1,5,7,6,4,42,27,0
9.014344,-7,2,4,1,0,0,6,-44,0
9.014361,6,2,0,1,-1,-3,-18,-103,0
9.029303,-7,-2,-5,-3,-6,-4,10,-32,0
9.029372,15,-2,-5,-8,-4,-3,-16,-3,0
9.030324,-34,-1,-2,-3,0,1,33,56,0
9.030329,10,-2,-1,-3,1,2,4,67,0
9.043723,2,-6,-2,-2,3,0,-10,22,0
9.043745,-1,1,-1,-2,-1,-1,7,-6,0
9.051879,12,4,-2,-2,-1,0,11,14,0
9.051902,-2,-4,1,-4,0,-1,-17,4,0
9.066154,-11,0,-1,0,-3,1,-8,-8,0
9.066171,1,2,-1,0,1,-3,5,1,0
9.074640,5,-2,-3,-3,-3,-3,2,-7,0
9.074676,-5,0,1,2,3,0,-17,-1,0
9.089406,2,0,0,0,0,-2,9,7,0
9.089427,-4,2,2,3,2,2,6,1,0
9.090233,5,-2,-2,-1,-2,-2,-8,-16,0
9.090253,-4,-6,-4,1,-1,-1,-3,92,0
9.103567,-20,-5,-5,-2,-2,-1,1,-89,0
9.103585,9,-1,-3,-3,-4,-3,-9,-78,0
9.113923,9,9,0,2,2,-1,-1,-31,0
9.113945,1,2,2,0,0,0,-3,22,0
9.126496,-2,-8,1,-2,-1,-3,4,63,0
9.126537,1,-6,-8,-5,-4,-1,-6,13,0
9.134227,5,10,6,6,0,2,7,15,0
9.134247,-6,0,-5,-5,-2,-2,-2,-6,0
9.149561,0,-4,-6,-3,-1,1,-2,12,0
9.149581,-12,-2,2,-2,3,-1,-2,-26,0
9.150031,4,1,8,6,0,-2,1,18,0
9.150052,-7,-5,-2,0,-1,0,-5,-18,0
9.163656,5,1,-1,-2,-1,-2,-2,-10,0
9.163680,-1,3,2,-2,1,2,4,17,0
9.171957,1,-4,-6,-3,0,-1,4,5,0
9.171986,-4,1,0,-1,-3,0,-6,-26,0
9.186099,0,-2,-3,1,-5,-3,0,0,0
9.186116,-1,-2,-2,-2,-6,-4,-1,12,0
9.194379,-1,-4,-3,-2,-2,-1,-3,-1,0
9.194393,-1,-2,0,2,0,2,0,-18,0
9.209789,4,1,2,-1,-1,1,-1,9,0
9.209804,-2,3,0,1,1,0,0,8,0
9.217884,-2,-7,-4,-4,-1,-2,-2,-14,0
9.217890,2,0,3,0,1,-2,-1,-2,0
9.223652,-1,0,-13,-3,2,0,0,10,0
9.223675,-2,-2,6,-4,-4,-1,-2,-1,0
9.238739,-1,3,-3,0,1,2,2,-1,0
9.238765,3,-1,2,0,-2,-1,-2,-6,0
9.246160,-7,-2,4,3,1,-2,-1,7,0
9.246178,7,1,-5,0,-2,-1,-1,-3,0
9.256124,1,-3,-4,-4,-4,-2,-3,-1,0
9.256133,1,3,-1,2,0,-2,-1,-2,0
9.268711,5,-2,3,1,1,0,1,0,0
9.268731,-7,-2,-6,-2,-2,0,1,4,0
9.278185,-2,-2,3,-3,0,-1,-1,2,0
9.278192,2,-1,-3,-4,2,0,-3,-13,0
9.283730,3,0,0,-2,-2,0,1,5,0
9.283757,-7,-4,-4,-4,-1,0,-3,-10,0
9.298616,1,1,2,1,1,-1,-1,0,0
9.298639,-1,-4,-4,-1,0,-1,-2,-6,0
9.306143,-2,1,1,-4,-1,-2,-1,1,0
9.306166,4,1,1,1,-1,0,-1,-5,0
9.316077,2,1,0,4,0,1,1,0,0
9.316094,-4,-2,-3,-1,-3,-3,0,5,0
9.328715,-6,1,0,1,-1,0,-6,-19,0
9.328731,5,1,-1,1,2,0,1,7,0
9.337517,-2,-4,-2,-1,-1,-2,-2,-4,0
9.337541,-3,1,1,0,-2,-4,-1,1,0
9.360008,1,-1,-1,-1,-3,0,-1,2,0
9.360030,-6,-4,-2,1,-2,-2,-2,0,0
9.361607,-7,-3,-4,-3,-3,-2,-1,-3,0
9.361624,-2,-2,-4,-4,-2,1,-2,-9,0
9.366084,0,0,0,-4,-2,-2,0,7,0
9.366107,-1,0,1,0,0,-1,2,1,0
9.376394,-1,-2,-2,-2,0,0,0,6,0
9.376402,3,-3,0,-1,-3,-1,-3,-7,0
9.388717,2,1,-3,1,-1,-4,-1,0,0
9.388744,-6,0,0,-1,-1,-1,-2,4,0
9.398479,1,-1,-1,-3,0,0,-2,-7,0
9.398484,-2,-3,-1,-1,0,1,2,0,0
9.412012,-2,0,1,1,-2,-1,1,0,0
9.412021,8,2,0,0,0,-1,-5,-4,0
9.418632,-5,-3,-3,-1,-2,-4,-4,1,0
9.418658,-4,0,0,-1,-1,0,0,-1,0
9.427533,-3,-4,1,-3,-3,-1,-1,-7,0
9.427539,2,-1,0,-1,-1,0,3,0,0
9.437013,-7,-3,-1,-4,-2,-2,-2,-29,0
9.437020,-1,-2,-1,1,-1,-1,-1,-1,0
9.448636,-3,-1,-2,-2,-1,0,0,-12,0
9.448659,-9,-5,-3,0,-1,-2,8,13,0
9.459288,5,1,-1,3,-1,0,2,-23,0
9.459294,-5,-2,-1,5,-2,1,6,23,0
9.472047,2,-1,0,5,-2,-2,-5,1,0
9.472082,-1,3,-3,2,0,-2,-2,-4,0
9.478642,-2,-1,0,4,2,0,2,-9,0
9.478659,-3,-1,-2,-2,0,-6,-3,-64,0
9.486297,0,-6,0,1,-1,2,10,-19,0
9.486315,-2,-2,1,-2,0,1,-1,16,0
9.495634,1,1,-1,-4,-2,-2,-9,-19,0
9.495640,1,-1,-2,-5,-3,-3,-5,-21,0
9.508910,-3,0,-2,-3,0,-3,-9,-45,0
9.509341,-12,-13,-7,-6,-3,-3,8,-78,0
9.518277,1,2,3,2,1,2,8,-13,0
9.518284,7,5,4,1,1,0,-2,80,0
9.532451,3,1,-3,-3,-2,-2,-5,-4,0
9.532524,1,3,1,0,0,-1,-3,5,0
9.534014,0,-2,-2,-4,-4,-3,4,0,0
9.534029,4,7,2,0,0,0,1,2,0
9.546139,-2,3,3,2,0,-3,2,19,0
9.546158,-2,2,1,-1,-1,-4,-10,-7,0
9.555191,5,4,3,1,-1,-3,-1,64,0
9.555217,-12,3,3,1,0,-1,-6,30,0
9.569183,6,0,-1,-3,-2,-4,-5,-7,0
9.569189,3,3,3,5,1,0,-6,48,0
9.578174,-6,-7,-4,-4,-1,1,3,-5,0
9.578180,-1,-8,-5,-6,-1,3,2,-15,0
9.592790,3,-6,-6,-8,1,5,4,33,0
9.592843,2,-3,-3,-6,-1,3,-2,-16,0
9.594435,4,-2,-4,-4,2,2,-1,-6,0
9.594446,-2,-2,-2,2,-1,-3,0,-15,0
9.606426,-13,-1,3,6,0,0,-3,7,0
9.606452,13,1,-3,4,-2,1,-2,6,0
9.615820,-1,2,-1,3,-2,-3,-4,4,0
9.615834,-1,-2,-3,-2,-3,-4,3,-9,0
9.637450,2,3,2,0,-2,-4,-3,-9,0
9.637475,-4,4,0,-3,-2,-4,-3,-7,0
9.639302,-1,1,2,-2,-1,-3,-4,3,0
9.639319,4,4,1,-1,-5,-3,-1,-19,0
9.652490,2,2,0,2,-3,-3,4,-3,0
9.652508,-3,0,2,-4,-2,-5,2,-5,0
9.653940,-10,0,4,5,1,-1,1,-10,0
9.653971,3,-3,4,2,0,-3,-1,-4,0
9.666150,-1,-4,-1,-3,-1,-2,3,5,0
9.666222,0,-4,-2,-3,1,1,3,-4,0
9.675843,-1,-6,-5,-5,-2,2,-3,10,0
9.675851,-2,-6,-4,-7,3,3,1,8,0
9.688819,-2,-4,-4,-6,3,3,1,16,0
9.688843,1,-6,-8,-9,1,5,-3,3,0
9.698572,5,-3,-7,-9,1,4,0,14,0
9.698579,-1,-4,-5,-10,1,3,-3,7,0
9.711559,-8,-1,-3,-6,0,1,-4,-10,0
9.711578,-2,0,0,-2,-2,0,0,-2,0
9.720967,3,1,0,-1,-2,-2,-5,1,0
9.720991,-3,1,-2,-4,-4,-6,-1,0,0
9.726264,2,-1,2,0,0,0,-2,1,0
9.726290,-3,-2,1,1,0,-1,-2,-3,0
9.735621,-9,-1,0,3,-1,0,0,9,0
9.735637,-1,-3,-2,0,-1,1,-4,-9,0
9.748541,0,-1,-1,-3,-2,-2,-2,2,0
9.748559,-5,2,2,0,0,1,-1,2,0
9.757776,1,-2,-4,-5,-1,-1,-2,-19,0
9.757804,-5,2,4,2,1,0,1,5,0
9.772851,4,1,1,1,-1,-2,-2,5,0
9.772861,-3,0,-2,-2,-3,-1,-1,4,0
9.774020,4,1,-1,-1,-1,-2,-4,-8,0
9.774037,-2,-3,-1,0,-2,-3,1,-1,0
9.788570,1,0,-3,-2,-1,-1,-1,-9,0
9.788578,-2,-1,0,3,1,-1,-1,-2,0
9.797511,-2,2,-1,4,2,-1,2,-2,0
9.797519,6,2,-2,-3,-7,-2,0,-4,0
9.808930,-10,-7,-2,-2,1,0,-3,13,0
9.808958,6,0,-2,-5,-6,-3,0,-37,0
9.818348,-6,-6,-1,-4,-2,-1,5,12,0
9.818359,-4,-1,0,1,0,-1,-5,19,0
9.832475,2,2,1,3,-1,-2,-3,-6,0
9.832495,-1,0,0,0,-1,-1,-1,-4,0
9.834289,5,2,0,-1,1,0,-5,-6,0
9.834302,-10,-1,-1,2,0,-1,1,-1,0
9.846199,-5,-5,-4,-3,-2,0,-3,-10,0
9.846218,-7,-1,-1,-1,0,-2,-4,10,0
9.856700,0,-2,-2,-1,-3,-2,-3,-9,0
9.856722,-2,-3,-3,1,-1,0,1,2,0
9.868762,1,-1,1,2,-2,-1,0,1,0
9.868789,-4,1,0,3,-1,0,0,6,0
9.878992,12,0,-1,-2,-1,0,0,4,0
9.879001,3,0,-2,-2,0,0,-1,-12,0
9.892370,-3,-2,-4,-1,-1,-3,1,-2,0
9.892429,-1,-5,-3,-4,-5,-2,-1,0,0
9.898622,3,1,5,3,-1,0,3,7,0
9.898644,-23,3,4,6,4,4,0,0,0
9.914955,1,3,-3,1,-1,0,-1,1,0
9.914974,3,-2,-4,0,0,-2,-1,10,0
9.916436,-7,-3,-1,-2,1,-1,-1,-3,0
9.916452,9,-2,-1,3,10,-2,-2,-11,0
9.928770,2,-1,1,-4,-11,1,2,13,0
9.928787,-9,-3,-3,-5,-2,-2,-2,-7,0
9.938129,-3,-1,-1,-3,0,0,0,-2,0
9.938142,3,-2,0,-2,-3,1,0,-7,0
9.951916,-1,2,2,-1,2,-2,-2,-5,0
9.951934,10,-1,0,0,0,1,-1,3,0
9.960325,-7,-2,-2,-1,1,-1,-2,1,0
9.960335,2,-1,-1,-2,-4,0,-1,-6,0
9.966248,16,-2,-3,-2,1,-2,-1,-8,0
9.966270,-43,-1,1,-1,-2,1,2,-2,0
9.975469,-6,-6,-2,-4,-2,-2,-4,-8,0
9.975479,-3,-1,-1,-4,-1,-1,2,6,0
9.997528,18,-5,0,-2,-4,-3,-4,-5,0
9.997553,18,2,1,3,0,-1,-1,7,0
9.999039,2,-1,-2,3,-3,-2,-1,1,0
9.999080,-6,-6,-4,-3,-5,-3,-4,-4,0
10.011810,-16,-1,-1,2,3,-3,0,-3,0
10.011829,10,6,0,4,1,0,1,3,0
10.018579,7,3,0,1,0,-1,1,-1,0
10.018602,-4,-4,-3,-1,-6,-1,-3,2,0
10.026361,11,-1,1,2,2,1,0,5,0
10.026466,-14,-8,-2,-4,0,-2,-5,-6,0
10.035863,-3,3,1,1,-3,-1,0,7,0
10.035875,10,1,0,-1,-1,-3,-1,-8,0
10.048630,4,3,-2,-1,-1,-1,0,-3,0
10.048654,-35,-3,-1,-2,-1,1,-3,-9,0
10.058585,5,-1,-2,0,-2,-3,0,-4,0
10.058595,7,-4,-2,0,-1,0,2,3,0
10.071982,5,0,0,-2,-1,-2,-2,1,0
10.072010,2,1,1,0,-1,-1,1,5,0
10.078657,-22,-2,-2,-2,0,-1,-5,-13,0
10.078676,-4,-2,-4,-5,-3,-3,-4,-9,0
10.086061,-2,0,-3,0,5,0,-5,-18,0
10.086077,22,-5,-3,-8,-14,-2,3,10,0
10.096317,-17,0,0,-1,-1,0,-1,-2,0
10.096325,8,1,0,-3,-5,-2,-4,-5,0
10.109018,-8,-2,-1,1,2,-3,-1,3,0
10.109060,1,-3,-3,2,3,2,-4,-5,0
10.117648,-21,-2,-1,-1,-3,-1,0,10,0
10.117656,-6,2,0,-2,0,-1,-2,-10,0
10.133154,-9,-2,0,3,-1,0,2,6,0
10.133162,23,1,1,3,5,-1,0,1,0
10.138768,14,-2,-3,-6,-11,-2,-2,0,0
10.138789,9,2,1,6,5,-3,-3,-1,0
10.146257,-6,2,1,-5,-10,2,3,15,0
10.146283,-2,-1,-2,2,1,-3,-4,16,0
10.157013,-11,-3,-3,-2,3,-2,-7,-12,0
10.157022,-2,-3,-4,-4,1,0,8,-10,0
10.168642,7,4,6,5,1,2,3,55,0
10.168669,-5,3,4,3,1,-2,-3,-7,0
10.179567,15,-4,-5,-2,1,-2,-3,-5,0
10.179583,-9,0,-2,-3,-5,-1,2,1,0
10.192172,1,0,-1,-2,-1,-1,-2,-2,0
10.192214,2,0,-2,-2,1,1,1,3,0
10.198731,16,1,3,4,4,1,2,17,0
10.198748,-34,-2,-2,3,0,4,-2,0,0
10.206242,21,-2,-4,6,10,-4,-3,-24,0
10.206272,-15,-3,-1,1,-4,-1,-1,-6,0
10.215706,-3,-3,-3,-14,-23,-3,-2,-11,0
10.215720,33,3,0,-2,1,-1,-1,12,0
10.228673,-21,-2,-1,-5,-4,0,-1,-10,0
10.228689,-13,-4,-3,3,8,0,-2,-20,0
10.238707,22,3,3,6,8,-1,4,-1,0
10.238716,-24,-4,-1,-1,-3,0,4,30,0
10.251898,-33,-4,-4,-3,0,-3,-5,-17,0
10.251922,27,2,0,-3,-2,0,-1,2,0
10.259381,-11,-4,-3,-3,-2,-1,0,-4,0
10.259389,8,2,-3,-1,5,-1,-3,-5,0
10.275220,6,4,6,5,-5,2,4,0,0
10.275235,1,2,3,0,-4,1,4,10,0
10.276537,13,1,-1,0,-1,0,-4,4,0
10.276563,11,-5,-4,-4,-4,-3,-8,-11,0
10.288930,-30,-5,-7,-9,-2,-2,-3,-13,0
10.291228,10,1,4,3,1,1,1,-5,0
10.298376,3,0,-1,-2,3,0,1,8,0
10.298383,-5,0,0,3,5,0,-3,-8,0
10.311934,-15,-2,0,-4,-7,-3,1,-7,0
10.311954,3,0,2,4,4,-1,-2,-1,0
10.318921,-12,-3,-6,-8,-12,0,-1,-3,0
10.318947,15,0,1,-2,-3,-2,-1,3,0
10.335069,5,-9,-7,-4,2,-3,-6,-10,0
10.335098,7,4,1,2,7,-1,0,-5,0
10.336505,-6,2,6,1,-1,-3,-2,-5,0
10.336517,5,2,-3,1,-5,1,0,3,0
10.348833,11,3,4,3,-1,1,3,8,0
10.348853,-16,-7,-4,-1,-1,-1,-2,-2,0
10.359338,-2,-9,-9,-3,4,-2,-3,-3,0
10.359347,8,4,1,-1,-3,-2,-1,3,0
10.372092,-13,3,-4,-8,2,0,-1,-4,0
10.372120,-19,0,7,-3,-2,-1,-2,2,0
10.378604,-12,5,1,9,5,0,2,5,0
10.378625,1,-8,-1,-1,-4,-1,-2,-1,0
10.395110,-8,-14,-16,-7,-5,-1,-2,-9,0
10.395127,8,4,-4,-6,-8,0,-2,0,0
10.396908,3,4,8,2,1,1,2,2,0
10.396917,-9,-1,4,10,5,-2,0,-3,0
10.409074,8,-6,-5,4,3,-3,-3,0,0
10.409119,4,6,1,-1,1,-4,1,-3,0
10.417918,-7,-2,5,-6,-14,2,-1,3,0
10.417927,4,-5,-9,-5,4,-1,-1,-4,0
10.433383,11,6,8,3,0,3,2,8,0
10.433389,-24,-5,-8,-9,-6,-5,-5,-7,0
10.439012,-2,3,-3,1,4,-2,-2,-9,0
10.439041,-9,-14,-11,-6,0,-2,-4,-4,0
10.455220,6,11,9,-1,-3,-1,-1,-4,0
10.455241,11,9,11,9,3,3,1,6,0
10.456980,3,-2,2,6,6,2,0,1,0
10.457003,-5,-7,-5,-6,-8,-2,-3,3,0
10.469251,-3,-13,-9,-6,-1,-5,-4,-16,0
10.469276,2,-2,-11,-13,-3,-2,2,3,0
10.483713,4,7,9,5,1,0,-1,0,0
10.483738,0,5,10,14,3,3,2,2,0
10.492233,8,-8,-8,1,-6,-2,-3,-1,0
10.492281,-21,-4,2,-8,-5,-1,-4,-10,0
10.498672,7,-10,-22,-9,1,0,-1,-3,0
10.498691,-8,7,14,3,-1,-5,-1,-2,0
10.515144,5,20,26,18,4,2,4,9,0
10.515161,10,-7,2,2,-2,-1,-2,4,0
10.516604,-10,-9,-14,-8,-3,-2,-2,-4,0
10.516628,-3,-6,-13,-13,-3,-1,-3,-15,0
10.528657,-11,-11,-13,-7,-5,-5,-2,3,0
10.528726,6,-1,2,-7,-4,-1,1,-3,0
10.543656,7,12,12,11,11,2,3,5,0
10.543677,-11,2,5,4,1,3,2,2,0
10.551857,-5,-30,-30,-12,-3,-2,-1,-3,0
10.551874,1,21,-6,-3,-6,-6,-6,-7,0
10.558896,0,21,33,15,5,4,3,5,0
10.558937,1,6,21,11,4,2,0,7,0
10.575180,-1,0,-2,1,1,1,2,0,0
10.575210,4,-23,-20,-5,-2,0,-2,-1,0
10.576580,1,-9,-16,-10,-6,-5,-1,7,0
10.576601,1,2,-6,-5,-5,-5,-1,1,0
10.589829,-1,1,4,0,-1,1,0,2,0
10.589836,-1,-4,-8,-2,-2,-1,0,-2,0
10.598296,-6,-3,-1,-2,-2,-4,-2,-7,0
10.598302,1,-4,0,1,1,0,-1,2,0
10.612110,-2,3,1,-2,0,-1,0,6,0
10.612129,3,3,4,5,0,2,1,3,0
10.618910,-12,-7,-3,-3,-1,1,-2,-3,0
10.618935,-41,-6,-10,-7,-4,-2,-3,-2,0
10.636285,22,11,6,-2,-1,-2,1,11,0
10.636291,-12,-3,3,4,0,0,0,2,0
10.636900,33,-9,-8,-3,-5,-4,-3,-7,0
10.636939,-18,-4,-8,-5,-3,-3,-2,-9,0
10.649192,-1,11,11,4,1,0,-1,-4,0
10.651121,-8,-3,0,2,0,-1,-1,-7,0
10.658587,2,-2,-1,-1,-1,-2,-2,13,0
10.658602,9,1,0,-2,0,1,0,6,0
10.672080,-8,-2,-2,-1,-3,-1,-3,10,0
10.672107,6,-5,-3,-1,2,-1,4,35,0
10.678689,-8,0,-3,-4,-2,2,2,-3,0
10.678709,11,2,-1,0,-1,1,1,12,0
10.694989,-11,-4,0,-1,-1,1,-1,-4,0
10.695007,12,1,-1,1,0,-1,-2,-6,0
10.696532,-6,-1,1,-1,0,-2,2,-1,0
10.696564,9,4,0,-1,2,1,-5,51,0
10.709095,5,-1,0,-3,-1,-3,1,-4,0
10.709126,3,0,1,3,-1,0,2,-3,0
10.718445,-13,-4,-3,-2,-1,-1,-5,-1,0
10.718457,7,0,-2,-2,-1,-1,0,-19,0
10.731967,-2,0,1,0,1,0,-2,-10,0
10.731986,-37,-7,-2,-1,-2,-1,-3,-3,0
10.738829,-5,-2,-2,-1,0,0,0,-8,0
10.738864,4,-1,-2,-3,-2,-2,-4,-14,0
10.755203,1,-2,-2,-2,-1,-2,2,-4,0
10.755239,0,-5,-5,-6,-2,-2,3,-44,0
10.757185,9,-7,-1,-2,-4,-3,10,-26,0
10.757192,-8,1,3,1,0,2,4,21,0
10.768717,-2,-3,-3,-3,-2,-2,-2,37,0
10.768742,9,3,4,5,4,4,-14,86,0
10.778264,-4,2,-1,-4,-3,-4,-16,-78,0
10.778277,21,6,1,2,0,1,1,26,0
10.793614,18,11,-2,3,0,4,5,9,0
10.793623,0,-14,5,5,-1,-1,5,2,0
10.798609,9,6,1,3,2,0,-10,56,0
10.798659,-15,-6,-3,-7,-4,-3,-1,-73,0
10.815028,5,8,7,2,1,-1,-12,36,0
10.815048,16,7,-3,-4,-2,-5,-5,-42,0
10.816598,-1,2,-4,-1,-1,-2,3,-6,0
10.816604,-6,-10,-3,-2,-3,-4,10,-27,0
10.828626,-10,-6,-5,-6,-3,-3,6,-81,0
10.828653,-17,-2,-4,-7,-3,1,3,-64,0
10.838293,-6,-7,-1,1,-1,2,7,16,0
10.838302,8,12,0,-1,-2,-2,-12,-39,0
10.852044,-19,-5,-4,-2,-3,-5,2,7,0
10.853748,1,-9,-6,-1,-1,-1,5,-3,0
10.858918,-47,-6,-3,-1,-1,-2,-2,-17,0
10.858949,14,-3,-1,-4,-3,-1,1,6,0
10.875278,-3,1,1,2,1,3,-5,11,0
10.875315,13,1,0,-1,-3,-1,3,2,0
10.876427,10,-3,-4,1,0,0,3,49,0
10.876444,-1,0,-2,1,2,-1,-2,9,0
10.889567,-13,-1,1,-3,-2,0,-2,-9,0
10.889577,-4,4,1,-3,-3,-2,-5,2,0
10.899530,7,3,1,-1,-2,-2,-2,-4,0
10.899539,15,-3,0,-3,2,0,-1,20,0
10.911874,30,-3,-4,-3,-1,1,-3,-12,0
10.911891,22,1,1,2,-3,0,-2,15,0
10.920565,13,1,1,-1,-1,-3,-4,2,0
10.920578,-1,-3,-4,-4,-3,1,0,1,0
10.935596,-1,1,0,-2,0,-1,-2,-4,0
10.935609,-13,0,-1,0,-1,-1,-5,1,0
10.936427,-6,-4,-2,-1,0,0,-1,-6,0
10.936440,-18,0,-2,-1,-2,-2,-6,10,0
10.948668,-13,-2,-1,-1,0,-1,-3,-10,0
10.948692,-6,-1,-4,-2,-1,-1,-2,2,0
10.958984,1,1,-1,-1,1,0,-3,-7,0
10.958995,-9,-2,-2,-2,-2,-2,-1,4,0
10.972070,-7,-1,2,1,-1,-1,-1,2,0
10.972095,3,2,-2,-1,0,0,1,-6,0
10.978626,2,-4,-1,-2,-2,-1,4,9,0
10.978645,-1,1,1,0,0,1,1,3,0
10.994990,-4,-4,-3,-2,0,-2,-3,-2,0
10.995015,-3,-2,-2,0,-2,-2,-5,-4,0
10.996623,-3,-2,0,0,1,2,-1,-5,0
10.996668,0,-2,-1,0,0,-1,-2,0,0
11.008874,4,2,0,0,1,2,-7,56,0
11.008892,2,0,-1,-1,1,-1,-2,-6,0
11.026194,-4,-1,-1,-2,-1,-2,-4,-6,0
11.026200,7,0,-2,-2,-1,-1,-2,11,0
11.031910,-7,1,0,-2,-1,1,2,-9,0
11.031986,-2,-1,-2,-2,0,-1,-1,-3,0
11.038752,-3,-1,1,0,-1,-1,-3,7,0
11.038783,2,0,1,2,-1,-2,-2,-11,0
11.055037,-6,-4,-3,-4,-1,-2,-2,-14,0
11.055058,-6,-3,0,0,0,0,-1,-2,0
11.056959,2,0,-2,2,-3,-3,1,-13,0
11.056969,-3,-2,0,0,-2,-3,2,-4,0
11.068755,2,0,-2,-1,-3,-2,0,-11,0
11.068875,-3,1,2,1,0,-1,1,7,0
11.078572,-4,1,-1,-2,1,-1,-1,0,0
11.078578,-7,-1,0,2,-1,0,0,-3,0
11.100180,1,-4,-1,0,-2,-3,1,-6,0
11.100209,0,0,-1,1,-2,-2,-2,-7,0
11.102227,-2,-4,-1,-3,-3,-1,-2,1,0
11.102234,-1,-2,-1,0,1,-1,-2,2,0
11.114323,-9,-6,-2,-4,5,-2,1,-13,0
11.114341,1,-1,1,-2,4,-2,1,6,0
11.121325,-1,-2,-2,-1,1,0,-2,1,0
11.121353,1,0,-2,1,-2,1,-1,3,0
11.128723,-2,0,0,-4,1,0,1,1,0
11.128740,-2,-1,-1,-2,-3,-2,0,-8,0
11.139203,0,0,1,2,1,0,0,-1,0
11.139223,-2,0,-1,-3,1,-3,-1,-5,0
11.152238,3,1,0,4,-2,-2,-2,-8,0
11.152255,0,-1,-2,-1,-2,0,-1,0,0
11.159061,2,0,-2,-3,-4,-1,-1,-3,0
11.159095,-2,-1,-2,1,-2,-2,2,0,0
11.174578,-6,-1,-1,2,-2,-1,0,-9,0
11.174615,1,-2,0,3,2,1,0,0,0
11.189335,2,0,-1,0,1,-1,0,0,0
11.189356,-4,-1,0,-3,-3,-1,-2,-4,0
11.190100,1,1,-1,-1,-5,-2,-3,-3,0
11.190123,-1,-2,0,-1,-1,-1,-3,-5,0
11.198942,-4,0,-3,-2,-2,-2,-3,0,0
11.198950,1,-7,-5,-5,-3,-1,-3,0,0
11.211832,1,-1,2,2,-3,0,1,-2,0
11.211850,2,5,4,8,9,1,2,2,0
11.218708,1,0,-3,1,-14,0,0,3,0
11.218724,-5,-1,1,-5,3,-2,-2,-4,0
11.235910,-4,-3,-4,-4,-1,-2,-5,-5,0
11.235922,-2,-3,-5,-7,-3,-3,-3,2,0
11.241370,2,0,3,1,4,1,1,2,0
11.241414,0,1,0,9,1,2,1,1,0
11.257689,2,1,3,-2,0,2,0,3,0
11.257719,-1,-1,-2,-3,-10,0,-2,-1,0
11.260258,-2,1,-3,-4,1,0,-1,0,0
11.260268,-3,-3,-4,-3,-4,-1,-2,1,0
11.272262,0,1,-2,-2,1,0,-1,-1,0
11.272313,-1,1,0,0,-1,-1,0,1,0
11.278595,-1,-3,-1,-3,1,-1,-2,-1,0
11.278613,1,1,2,-2,-2,-1,2,1,0
11.303047,-1,0,-1,2,1,-2,0,-1,0
11.303071,-1,-4,-5,-5,-4,-2,-2,-1,0
11.303941,-2,-1,0,1,-1,1,0,-4,0
11.303957,-1,0,-1,0,4,1,-1,-2,0
11.317569,8,-2,-3,0,-1,1,-1,1,0
11.317592,8,-2,-1,-4,-1,-1,0,1,0
11.318920,4,0,1,-1,1,-3,-1,-1,0
11.319001,11,2,2,0,0,0,-2,2,0
11.331917,-10,-1,0,-1,-3,-2,0,1,0
11.331933,0,-1,-2,-2,1,-1,-2,-2,0
11.338792,3,-2,-3,-3,1,-1,-2,-1,0
11.338812,-6,-1,-2,-2,-1,-1,-2,-2,0
11.354502,10,0,0,-1,-1,-1,0,2,0
11.354529,-6,-4,-1,-1,0,0,-3,1,0
11.361205,-5,1,2,2,2,0,1,-4,0
11.361224,-4,0,0,1,-2,0,-1,-1,0
11.377754,-6,-4,-2,-1,-1,-1,-1,-1,0
11.377762,-4,-3,-1,-1,-2,0,0,0,0
11.378948,-1,-2,-2,-2,-1,-2,-3,-1,0
11.378965,5,-2,-1,-2,-3,1,-2,1,0
11.392881,12,1,-2,0,-1,-2,0,4,0
11.392887,-43,-4,-3,-2,-3,-1,-1,-13,0
11.398732,20,1,0,3,-1,1,-1,1,0
11.398750,8,1,-3,0,-2,-2,1,2,0
11.414493,-14,-3,-2,3,10,-1,-1,-4,0
11.414520,20,2,-3,-8,-14,1,0,7,0
11.421897,-13,1,0,-1,1,-2,-1,-1,0
11.421923,8,-3,0,-5,-2,-3,0,-2,0
11.437592,-6,1,2,-1,1,1,-2,-1,0
11.437627,8,1,3,4,4,-3,-2,-4,0
11.439992,-22,-4,-3,-4,-3,0,-4,0,0
11.440000,-3,-1,-3,-6,-3,-4,-3,3,0
11.451154,17,-4,2,2,2,1,-1,-9,0
11.451179,-1,0,0,5,4,1,1,4,0
11.466280,-9,-1,-1,-2,-3,-2,0,-2,0
11.466312,-1,0,-3,-10,-5,-3,-2,0,0
11.474623,-1,-1,-7,-11,-21,-1,-1,6,0
11.474636,-23,-3,-2,-4,-1,0,-5,-10,0
11.481224,9,1,1,3,3,-2,0,1,0
11.481241,-8,-1,0,2,1,-2,-2,-2,0
11.497631,-4,-1,0,4,4,-1,-2,-4,0
11.497665,12,2,-3,1,3,-4,1,8,0
11.499259,-1,-8,-9,-7,-11,-3,-3,-7,0
11.499264,-5,2,2,0,-1,-2,-2,-5,0
11.511294,18,8,10,5,5,3,3,8,0
11.511322,-16,-5,-2,-6,-2,0,-3,-6,0
11.520677,-2,-2,1,1,4,-2,0,-1,0
11.520684,-5,-8,-8,-3,-5,-1,-4,-1,0
11.536592,-11,-4,-7,-10,-7,-5,-3,-5,0
11.536640,31,8,14,13,5,-2,4,8,0
11.541478,-15,7,1,13,10,3,2,-3,0
11.541522,5,0,3,-6,1,-1,3,1,0
11.557779,-3,-6,-7,-12,-19,-2,-1,-3,0
11.557811,1,-3,-6,-16,-6,-2,-2,-1,0
11.560041,13,-1,0,24,36,1,0,-1,0
11.560050,0,-1,-3,-23,-43,-6,-5,-4,0
11.571313,0,0,-2,0,4,0,0,2,0
11.571338,-10,-5,-4,-3,-1,-2,-2,-6,0
11.581456,8,1,-2,-4,-5,0,0,3,0
11.581465,2,0,2,15,18,3,1,0,0
11.594492,-11,-6,-1,1,2,-3,0,0,0
11.594516,11,3,-1,-1,-3,0,-1,-4,0
11.601662,-7,5,6,1,-4,0,3,3,0
11.601691,-9,-3,1,9,3,-1,-3,-2,0
11.617409,2,3,4,-2,-4,0,0,4,0
11.617433,1,-5,-2,5,5,-1,-2,-1,0
11.618855,-1,-3,-5,-6,-10,-3,-2,-7,0
11.618867,12,-1,1,-1,3,1,0,3,0
11.631122,-19,-2,-1,-1,6,1,0,0,0
11.631134,10,6,-1,1,5,1,-1,-1,0
11.642570,12,1,2,-11,-10,-2,-4,1,0
11.642583,-26,-6,-2,5,1,0,-1,-7,0
11.654435,1,-6,-8,4,3,-3,-3,-6,0
11.656852,-7,-7,-1,-10,-10,-2,0,-1,0
11.661299,-2,-2,-1,-10,-9,-3,-1,0,0
11.661325,-1,1,-2,2,9,2,-1,-1,0
11.678413,-3,-1,1,0,0,-2,-1,-3,0
11.678425,0,-2,-2,4,1,-1,-2,2,0
11.679243,-1,-3,-3,-3,-4,-2,-3,-2,0
11.679265,0,-1,-1,-2,-2,0,-1,-1,0
11.691604,0,4,0,-1,2,1,-2,-1,0
11.691643,-3,1,3,-2,-3,1,0,2,0
11.700939,6,-2,-3,4,-2,-2,-2,-2,0
11.700948,-17,-4,4,2,2,1,2,1,0
11.714396,0,2,2,-1,-3,-1,-3,-3,0
11.714520,-3,1,-1,0,3,-1,-1,-1,0
11.721542,-2,-7,5,-3,-5,-2,-2,-1,0
11.721601,6,-1,-11,-8,-1,-2,-2,-1,0
11.744918,0,-4,-3,-3,0,-1,-1,-4,0
11.744936,0,13,4,5,0,0,-1,-1,0
11.746559,-4,-5,-1,-1,-1,0,-1,1,0
11.746580,2,-3,2,4,3,1,-1,-1,0
11.751201,-3,6,5,1,1,-2,0,1,0
11.751258,1,-9,-8,-6,-3,-4,-2,0,0
11.760003,-2,6,-6,-4,-3,0,1,2,0
11.760046,2,0,8,4,2,0,1,1,0
11.774520,0,-6,-9,0,-2,-1,-3,-4,0
11.774551,-3,1,8,0,-4,-1,0,3,0
11.781261,-2,-2,0,-2,-2,-1,-1,-3,0
11.781283,2,-2,-13,-7,-1,-2,0,-2,0
11.797396,1,0,1,-3,-1,1,-1,4,0
11.798771,-6,-2,-1,2,0,0,0,-3,0
11.798994,2,-2,3,-3,-3,1,-2,-5,0
11.799009,-2,0,-1,-4,1,-2,-1,-3,0
11.811170,0,4,1,2,1,-1,0,3,0
11.811191,3,-1,2,4,2,-1,2,11,0
11.821800,2,0,-1,2,1,1,-1,1,0
11.821815,-3,2,2,6,-2,-2,-6,-8,0
11.834736,-3,-5,-5,-10,-6,-4,-3,-7,0
11.834763,9,-2,-9,-9,-3,-1,-2,-1,0
11.841480,-2,3,6,3,0,1,2,9,0
11.841522,-2,-1,-2,0,-2,-3,-1,2,0
11.857870,-5,-5,-3,-3,0,-2,-1,-2,0
11.857917,-1,-1,-2,-2,-1,0,-3,-4,0
11.859022,3,-2,-4,-4,-3,-3,-1,-4,0
11.859033,1,2,0,1,-1,0,1,1,0
11.871736,1,-1,1,2,0,-2,-2,-1,0
11.871772,-8,-3,-1,-3,-3,-3,-3,-5,0
11.882115,1,-4,-6,-3,-1,-3,-3,-2,0
11.882124,11,1,2,0,1,0,2,-1,0
11.894514,13,4,2,2,-1,1,1,3,0
11.894540,0,-2,-4,0,1,1,1,1,0
11.901223,-33,-5,-4,-2,-3,1,-2,-12,0
11.901249,0,0,-4,-7,-3,-3,-2,-2,0
11.917384,7,3,7,4,1,1,0,0,0
11.917407,0,2,1,3,0,0,-1,2,0
11.918895,5,2,1,1,-2,-1,0,0,0
11.918904,-2,-3,1,-1,1,0,-2,-4,0
11.931524,-11,-5,-8,-3,-3,-2,0,1,0
11.931533,-6,2,-5,2,1,-4,-4,-4,0
11.941610,-2,-1,2,-3,-6,0,1,-1,0
11.941624,-4,-3,-4,-11,-5,-4,-2,2,0
11.954485,2,-1,2,4,16,0,1,3,0
11.954507,-5,-5,-3,2,3,0,-1,-5,0
11.962746,5,-1,-2,-2,11,-1,-1,-1,0
11.962756,-5,0,0,-2,-23,-1,-2,-3,0
11.979466,-3,-1,-1,-3,-7,0,0,5,0
11.979474,3,-2,-1,0,8,0,0,-2,0
11.979477,1,0,-1,0,-1,1,-2,-2,0
11.979480,-1,0,1,8,12,0,0,1,0
11.991183,-14,-3,-2,-5,-5,-1,-3,-1,0
11.991218,-1,-3,-3,-6,-7,0,-1,-1,0
14.004925,-2,0,2,1,0,0,0,-1,0
14.005143,-2,0,-1,0,1,-1,-2,-1,0
14.009072,-3,-2,1,-1,1,-1,-2,-4,0
14.009099,-1,-3,-4,-5,-3,1,-1,0,0
14.018288,3,-1,-2,-1,-1,-2,-2,1,0
14.018294,-8,-3,-3,-2,-2,-2,-5,-13,0
14.024807,-1,3,0,-1,1,-1,0,1,0
14.025035,-1,0,-1,-1,0,-3,-1,-2,0
14.038775,-2,-2,-5,-4,0,1,-1,3,0
14.038862,4,6,1,1,1,1,-1,2,0
14.046188,-1,-1,6,4,0,-1,-1,0,0
14.046212,-3,-6,-2,3,-3,-3,-3,-1,0
14.061346,2,-7,0,-8,-1,-2,0,-1,0
14.061365,-1,1,-4,-7,-3,-2,0,-1,0
14.068720,0,2,3,-1,1,1,-1,3,0
14.068744,0,2,4,-1,-1,-1,0,-4,0
14.084679,-3,-3,-4,1,-3,-1,-1,1,0
14.084710,-1,-2,3,4,0,-1,0,1,0
14.086560,-1,-5,-9,-6,-2,-1,-2,-2,0
14.086572,0,0,-11,-3,1,-1,-2,-6,0
14.098627,-4,-2,4,0,-3,-2,-2,4,0
14.098645,-10,-6,-5,-5,-2,-2,-2,-8,0
14.106285,4,0,1,-1,1,1,-2,-4,0
14.106311,-3,-1,2,1,0,1,-3,-6,0
14.121614,4,7,0,0,1,-1,-1,3,0
14.121639,3,3,5,3,-1,-1,0,6,0
14.128679,3,-1,-3,-2,-3,-1,-2,2,0
14.128696,-1,-4,-4,-5,-4,-3,-3,-3,0
14.144366,-2,-2,-3,0,-2,1,-3,-3,0
14.145902,3,2,-3,-1,1,2,0,1,0
14.145910,-2,-7,-5,-4,-2,-2,-1,-1,0
14.145914,0,-1,9,3,0,2,2,5,0
14.159012,-3,-2,1,-4,0,-2,-1,-3,0
14.159034,-1,-4,-6,-4,-2,-2,-2,-2,0
14.167938,-2,0,0,1,-1,0,-2,0,0
14.167950,-4,0,0,-2,-1,-4,-1,-1,0
14.183085,0,-1,0,3,1,-3,0,0,0
14.183093,3,-3,-3,-5,-3,-1,0,-1,0
14.189099,0,1,0,1,3,0,0,-8,0
14.189138,3,1,4,4,2,0,1,5,0
14.204305,1,-1,-3,-2,0,-2,-1,-5,0
14.204324,-4,-5,-4,0,0,-1,-1,2,0
14.206189,0,-1,-3,-3,-3,-3,-1,0,0
14.206196,-6,-1,-1,-4,-1,-4,-1,6,0
14.219044,0,-1,0,-2,-1,-1,-1,-4,0
14.219075,-1,0,1,-1,0,-1,0,-2,0
14.226305,1,-3,-2,-5,-3,-1,1,4,0
14.226325,0,-5,-9,-6,-2,-2,-3,-5,0
14.241449,1,7,5,6,3,-1,1,1,0
14.241484,2,6,10,7,3,1,1,7,0
14.248658,-1,-5,-11,-4,-2,-1,-2,-1,0
14.248678,-4,-4,-1,-4,-2,0,-2,-4,0
14.264348,0,3,5,2,-1,0,-3,-1,0
14.264365,-5,-4,3,3,0,-1,-3,-2,0
14.265507,-4,4,-1,0,1,-2,0,0,0
14.265519,5,0,-4,-6,-1,2,0,0,0
14.278676,-8,-11,-6,1,-3,-1,-3,-5,0
14.278693,2,-1,1,-1,-1,-3,-3,-2,0
14.286239,1,-1,-2,0,-1,-3,-1,4,0
14.286262,-9,-3,1,0,-2,-4,-4,-7,0
14.301125,-1,0,2,0,-1,-2,3,0,0
14.301149,-7,-1,-5,-3,-4,-2,0,-4,0
14.310751,-3,4,1,-6,-4,-4,-1,-9,0
14.310759,-4,-2,-7,1,-4,-4,0,-4,0
14.324619,-2,0,14,7,0,-1,1,-8,0
14.324659,0,7,-4,3,-2,-1,2,0,0
14.327155,2,-5,6,3,-1,-1,3,0,0
14.327167,2,0,-5,-7,-2,0,0,3,0
14.338962,0,-10,-18,-10,-4,0,-3,-4,0
14.338990,4,-9,3,-5,-2,-2,0,3,0
14.346115,-4,8,9,12,6,1,1,-3,0
14.346141,3,2,15,12,3,1,1,3,0
14.362641,2,-1,-8,-1,-3,-4,0,4,0
14.362665,5,2,-11,-9,-4,-2,0,6,0
14.368583,13,12,0,-5,-1,-2,1,10,0
14.370354,-15,-4,14,6,-2,-2,-1,-3,0
14.384348,-2,-1,1,3,0,-1,1,0,0
14.384372,0,-1,-5,0,-2,1,-2,-4,0
14.386082,10,-1,-3,-4,-3,-1,3,11,0
14.386094,0,0,-6,-3,-1,-3,-2,-5,0
14.398526,-2,-6,0,-5,-1,3,0,-3,0
14.398544,-6,-6,-2,5,-1,0,-4,-8,0
14.406603,-9,-11,-2,5,1,3,-1,-4,0
14.406610,3,3,-2,-9,-2,2,-1,6,0
14.422889,1,3,-2,-4,0,1,-1,4,0
14.422900,-2,-8,-10,-11,-2,-1,-4,0,0
14.428798,-7,-5,-2,-3,-1,-1,-1,0,0
14.428825,-1,-1,2,5,4,3,-1,-1,0
14.444318,8,4,6,1,3,0,2,27,0
14.444335,0,0,1,-2,0,-1,0,4,0
14.445852,-2,-1,-6,-6,-4,-4,-4,3,0
14.445865,0,-6,-7,-5,-2,1,-3,3,0
14.459165,2,-1,-5,-8,-2,0,-3,-4,0
14.459222,5,3,0,-2,-2,1,0,3,0
14.466615,-4,-2,1,-2,-1,0,-3,-6,0
14.466647,3,1,-4,-3,-1,-1,-2,2,0
14.481435,-4,1,-2,-1,-1,0,-4,-9,0
14.481460,1,-1,2,2,0,-2,-3,-2,0
14.489085,-8,-3,-2,-3,-4,-1,-5,-14,0
14.489119,-1,0,-4,-1,0,-2,-2,0,0
14.504960,-8,-1,-1,0,-4,-1,-3,-10,0
14.505010,1,-1,1,0,2,-1,3,3,0
14.505025,1,-2,-2,-3,-1,-2,2,8,0
14.505038,0,4,6,7,5,1,5,4,0
14.518588,1,2,-4,-4,0,-1,-1,1,0
14.518612,-4,-5,-1,0,-3,-3,0,1,0
14.526212,-6,-4,0,3,3,2,-2,-5,0
14.526285,16,12,7,10,3,-1,5,14,0
14.549488,-2,-2,-5,-1,-4,-4,-4,-3,0
14.549509,5,0,-1,-1,-1,-2,0,-2,0
14.550039,-1,5,-4,-9,-5,-4,-3,0,0
14.550055,-1,-5,-5,-7,-4,0,-1,-11,0
14.564283,-13,-13,-3,-3,-3,0,-1,-1,0
14.564302,-7,-3,-4,3,2,2,-2,-6,0
14.564999,-4,3,13,12,5,1,-2,-4,0
14.565014,0,-1,-5,-6,-4,-2,-2,-7,0
14.578598,8,13,4,3,0,-3,-1,2,0
14.578618,-2,-4,0,-3,-1,-2,0,-7,0
14.586838,-6,-7,-10,-6,-4,-2,0,-1,0
14.586863,1,0,-4,1,0,0,2,5,0
14.601343,3,6,8,1,2,0,1,2,0
14.601374,-2,0,0,1,0,0,0,2,0
14.609056,3,1,1,-2,0,1,0,-5,0
14.611223,-9,-8,-5,2,-3,-4,-4,-4,0
14.636080,-4,-2,-3,-1,1,-2,-1,-5,0
14.636087,1,6,-1,0,-2,-1,-2,1,0
14.636090,0,-3,-5,-4,0,-1,-4,-3,0
14.636093,-18,-4,-1,-4,-3,0,2,-2,0
14.638728,11,2,-1,-2,0,-2,-2,-1,0
14.638750,2,2,2,1,-1,0,1,0,0
14.646182,9,-3,-2,0,-2,-1,1,0,0
14.646211,-18,-4,-1,-3,-2,-2,-3,-3,0
14.661268,-8,-1,-5,-2,-3,-1,-1,-8,0
14.661293,13,-4,-3,-6,-3,-2,-2,-1,0
14.668594,-3,-2,-4,-2,0,0,2,5,0
14.668611,5,8,9,4,4,2,0,-4,0
14.684483,-1,2,2,1,2,2,2,5,0
14.684507,5,-3,3,3,0,0,-3,0,0
14.686494,4,-3,-4,-4,-2,-3,-5,-1,0
14.686501,26,1,-4,-5,-4,-2,0,9,0
14.699106,-69,-19,-11,-5,-5,-5,-6,-20,0
14.699132,10,9,13,8,4,4,3,-6,0
14.706091,4,0,2,3,0,0,0,1,0
14.706113,15,2,-2,-4,-2,-3,-2,-1,0
14.721184,19,-1,-3,-4,-2,0,1,10,0
14.721213,-22,-2,-8,-5,0,-3,0,0,0
14.728730,11,-1,2,2,0,-1,-2,-6,0
14.728755,-2,-5,-6,-3,-2,-2,-4,-10,0
14.744455,13,1,1,-2,0,-1,0,2,0
14.744480,-12,1,0,-1,0,-1,0,1,0
14.745591,-7,1,4,2,0,0,1,3,0
14.745598,9,-3,-1,-2,-2,-2,-3,-1,0
14.759023,2,-1,0,0,1,0,1,8,0
14.759050,-2,-7,-4,-1,-1,-3,-3,-13,0
14.766645,-46,-7,-2,-1,-3,1,-5,-11,0
14.766653,-7,-6,-2,-4,-4,-2,-6,-5,0
14.782246,6,1,-1,-2,-3,-1,-1,-2,0
14.782252,23,2,-3,-6,-1,-2,1,10,0
14.789055,2,6,2,1,0,1,2,5,0
14.789089,-48,-8,-3,-1,0,-1,-1,-10,0
14.804585,34,0,2,1,-1,-1,-1,-1,0
14.804620,-5,-1,2,0,-1,0,-2,2,0
14.806851,-11,-1,-2,0,-1,-2,-1,-2,0
14.806860,24,1,0,-2,-1,0,2,10,0
14.818847,-14,-4,0,-3,-2,-1,-3,-9,0
14.818885,6,-1,0,0,-2,0,0,1,0
14.826300,15,1,-1,0,-1,-2,-2,0,0
14.826321,-7,-1,2,1,1,1,1,-5,0
14.841584,-3,-2,-3,-2,0,-1,-2,-6,0
14.841616,-4,1,0,-1,-2,0,-3,-2,0
14.849062,7,-1,-3,-3,-1,-1,2,4,0
14.849094,-6,6,0,3,0,-1,2,5,0
14.863786,4,-9,-4,-3,-1,-3,-7,-22,0
14.863804,-6,0,0,-3,-2,-2,-1,-3,0
14.871944,-5,0,1,-1,-2,1,-1,3,0
14.871966,25,2,-1,-2,0,0,2,7,0
14.878614,-19,-5,1,-2,-1,-2,-3,-2,0
14.880248,14,1,-3,-2,-2,-1,-1,0,0
14.886385,-14,-3,-2,2,0,4,4,-2,0
14.886416,20,-1,-3,0,0,1,14,2,0
14.901031,-16,3,0,0,-3,-6,-6,3,0
14.901056,-1,-3,0,-1,0,-4,-5,-14,0
14.909046,4,-5,-2,-4,-2,-5,-3,-56,0
14.909079,-16,0,0,2,1,1,-8,-2,0
14.924424,17,2,0,0,1,1,5,11,0
14.924436,-4,-3,-2,-1,-1,-2,2,-17,0
14.931974,-14,-3,-3,-4,-3,-4,3,-36,0
14.932006,-4,3,2,2,-1,0,-3,45,0
14.938722,17,0,2,-1,-1,1,7,5,0
14.938759,-12,4,3,6,3,2,-1,73,0
14.946103,3,-4,-3,-3,-5,-4,-6,-56,0
14.946127,-21,-6,1,-1,0,-1,-3,22,0
14.961139,-7,0,-2,-2,-3,1,7,-11,0
14.961156,3,-1,-2,0,0,1,8,58,0
14.968614,-1,-2,-5,-3,0,-1,4,10,0
14.968633,8,-2,-1,-4,0,1,15,63,0
14.992610,-5,11,5,5,2,-2,-38,48,0
14.992628,-4,-10,-10,-6,-4,-4,-7,-117,0
14.993532,9,2,0,1,1,0,-4,10,0
14.993552,-5,-8,-4,-3,-3,-3,-11,-51,0
15.006911,-2,4,0,0,0,-2,-6,-22,0
15.006938,-11,-1,-4,-5,-2,0,0,2,0
15.007834,-1,2,2,1,-2,-1,-3,36,0
15.007864,8,-1,-2,-2,-4,-3,-3,-32,0
15.022733,-5,-1,-3,-2,-2,0,7,-10,0
15.022754,3,1,0,0,-2,-6,-7,-33,0
15.028567,11,2,2,-2,0,3,17,23,0
15.028634,-6,0,1,1,3,3,12,63,0
15.043759,5,-3,-3,-7,-7,-7,-6,-88,0
15.043778,-18,-6,-1,1,1,2,-3,-6,0
15.052076,2,-4,-6,-6,-2,-1,4,-58,0
15.052084,16,6,3,5,-1,-2,-10,2,0
15.066852,-10,-3,-2,1,1,0,-4,0,0
15.066865,11,-1,-1,-3,-2,1,0,9,0
15.067412,-29,-11,-4,0,1,-3,-9,30,0
15.067420,-7,-1,-2,-3,0,-4,-6,-39,0
15.081197,6,-4,-1,-7,0,-1,3,-25,0
15.081221,13,6,1,4,2,0,-3,46,0
15.088905,2,3,2,4,1,-1,-6,18,0
15.088935,8,-1,-2,-2,-2,-4,-2,-55,0
15.103988,-4,-8,-4,-3,-1,2,15,20,0
15.104020,-19,-2,0,-4,-1,-3,-6,-63,0
15.112613,10,0,4,-4,-1,1,3,24,0
15.112622,-8,1,1,7,6,-3,-3,6,0
15.128280,11,4,-1,-2,-7,0,1,21,0
15.128286,-10,-2,0,-3,-3,-2,2,-19,0
15.128290,8,0,-2,-3,-1,-1,5,-18,0
15.128293,-1,-6,-4,-7,-1,0,0,-21,0
15.141551,-9,1,1,6,6,-1,2,5,0
15.141593,8,-1,-3,-2,0,-2,-1,17,0
15.148772,1,-2,0,0,0,1,-3,39,0
15.148797,-5,0,-5,-4,-3,3,3,-1,0
15.163642,-2,-9,-5,-4,-1,0,13,12,0
15.163666,-4,-1,-3,0,-2,1,7,9,0
15.172080,0,-3,-4,-2,0,-1,-5,-14,0
15.172101,-6,-4,-1,1,-1,-1,-9,-47,0
15.187034,-4,-6,-3,-3,-2,-2,7,19,0
15.187065,1,-1,0,0,0,0,-4,8,0
15.189251,1,4,2,2,2,0,-4,4,0
15.189260,2,-4,-4,-4,-3,-2,1,13,0
15.201173,4,2,1,2,1,1,-1,-3,0
15.201196,-7,-3,-3,-2,-2,-1,3,-46,0
15.209066,0,0,-2,0,1,-1,-4,2,0
15.209097,8,2,-2,-2,-4,-1,-2,-8,0
15.223609,-15,0,0,1,0,-3,-4,8,0
15.223635,1,-1,1,-3,-1,-2,-2,-4,0
15.232180,9,-1,-1,-2,-1,1,-6,9,0
15.232204,3,-1,-2,-3,-1,1,0,-7,0
15.246763,25,8,4,4,0,-1,2,13,0
15.246783,-48,-9,-4,-4,-4,-2,-4,12,0
15.248363,-2,1,-2,-1,-1,-3,-4,-4,0
15.248375,0,-3,-2,0,0,-1,-7,14,0
15.261288,8,1,-1,1,0,0,-4,-5,0
15.261308,3,5,2,1,0,0,4,-11,0
15.269166,9,1,1,0,-1,0,-2,1,0
15.269189,-13,-7,-2,-2,-3,-3,4,-18,0
15.284375,-6,0,2,-1,0,0,2,4,0
15.284408,11,2,0,1,1,-1,-2,24,0
15.292189,-5,-2,0,-2,-2,-1,-2,-4,0
15.292210,1,0,0,-4,-1,-1,-2,11,0
15.306922,-5,-4,-2,-2,0,1,-7,-5,0
15.306952,3,-3,-3,-1,-2,0,5,-13,0
15.308748,-1,0,-1,2,-1,-1,-2,-4,0
15.308765,-9,1,0,1,-1,0,0,2,0
15.321554,0,-3,-3,-2,-2,-2,-2,3,0
15.321577,2,1,-2,-7,-1,-3,-1,-4,0
15.328654,-4,0,1,0,0,1,3,7,0
15.328678,0,3,3,2,0,-1,-2,4,0
15.343745,-6,-1,-2,-1,-1,-1,-1,14,0
15.343770,7,1,-2,-2,-2,1,-4,14,0
15.352157,-2,-1,-4,-4,-1,-4,2,-14,0
15.352180,0,2,5,3,1,2,2,18,0
15.367033,0,0,2,2,2,0,-1,-6,0
15.367129,-2,0,1,2,-1,-1,-3,9,0
15.367581,2,0,-4,1,0,0,0,4,0
15.367603,-4,-3,-6,-3,-1,0,1,-8,0
15.381533,5,-3,-2,-4,-3,0,15,0,0
15.381557,2,-2,-1,1,0,-1,-12,15,0
15.388725,-30,0,4,1,0,-2,4,-10,0
15.388755,0,-1,-2,0,0,1,-8,5,0
15.403633,-19,-2,0,-1,-3,-6,-14,-3,0
15.403655,33,0,-2,0,-1,-2,10,3,0
15.412754,13,3,-1,-1,1,7,23,10,0
15.412762,-23,-4,-5,-5,-1,-3,-9,-7,0
15.427584,-16,-8,-7,-7,-7,-11,10,-19,0
15.427596,2,0,3,5,2,-1,-3,2,0
15.427642,-24,-6,3,1,-3,-4,-9,-1,0
15.427666,19,9,2,6,5,5,17,3,0
15.443558,5,1,-3,0,4,8,4,12,0
15.443567,-9,-4,-4,-6,-4,0,-6,-3,0
15.448713,17,-1,0,0,1,0,6,7,0
15.448737,3,-5,2,-4,-3,-2,-6,3,0
15.463803,-40,-1,-2,-3,0,-2,-11,-7,0
15.463831,6,0,0,-2,0,-1,4,6,0
15.472081,-1,-5,-6,-2,-1,0,-9,-6,0
15.472108,-1,-3,-1,-2,-5,-7,10,-37,0
15.487086,17,4,3,4,2,5,5,42,0
15.487111,-36,-5,-2,-2,0,1,0,5,0
15.489985,14,-2,-5,-6,-3,-2,-12,0,0
15.489995,-5,0,-2,-3,-4,-4,-8,-11,0
15.501284,15,2,3,0,0,2,1,-9,0
15.501308,-8,-1,0,0,0,-2,-1,-7,0
15.508826,-6,-2,2,1,1,1,-6,-1,0
15.508851,5,-6,-9,-2,-4,1,-2,10,0
15.523895,5,1,2,-1,0,0,-7,3,0
15.523940,-2,6,9,7,3,2,-5,1,0
15.531933,-1,9,11,3,1,-2,-5,-3,0
15.532003,3,-4,-3,-1,0,1,-1,11,0
15.546750,-6,-7,-9,-1,-2,-2,-4,-14,0
15.546775,6,-5,-9,-6,-4,-2,0,-10,0
15.548155,2,0,-5,-4,-3,-2,3,4,0
15.548168,-9,0,-3,-7,-2,-2,-2,2,0
15.561124,4,-1,-1,1,1,-2,-3,-4,0
15.561148,2,-2,6,5,2,0,1,4,0
15.570292,1,-2,2,8,-3,-2,-4,5,0
15.570299,-2,0,-5,-8,-2,-2,-5,8,0
15.584730,3,1,-5,-2,1,2,-3,-5,0
15.584737,8,7,9,5,5,3,5,-2,0
15.592307,0,-1,1,-2,1,1,-1,5,0
15.592350,-13,-7,0,1,-2,-3,-8,-16,0
15.607043,-2,-3,-3,-3,-3,-2,0,-11,0
15.607077,5,1,-3,0,-1,-2,-3,11,0
15.609609,-18,-13,-7,-7,-3,-3,-3,-3,0
15.609622,2,1,0,1,-1,0,1,5,0
15.621464,11,3,3,0,1,1,-1,5,0
15.621499,-1,-8,-6,0,-1,-1,0,-4,0
15.628730,8,14,0,-1,-1,-2,-1,-3,0
15.628756,6,4,3,2,2,-1,-3,2,0
15.643689,-6,3,2,2,1,0,0,20,0
15.643710,-1,-1,-3,-3,-3,-4,-1,-9,0
15.651962,-3,-9,-4,-2,-2,0,-2,-12,0
15.651986,-4,-3,-1,0,-1,-2,0,20,0
15.666714,6,1,0,1,0,0,0,-10,0
15.666730,-7,-2,-6,-5,-2,-4,-5,-1,0
15.667332,4,2,-3,-1,-2,0,2,0,0
15.667339,0,4,3,2,1,-1,0,6,0
15.681127,-1,-5,-1,-1,-5,-2,-4,-14,0
15.681146,1,-2,-4,-2,-1,-1,0,-1,0
15.688690,2,1,1,-2,0,-4,-5,-5,0
15.688711,-1,0,-1,0,0,-1,0,-3,0
15.704014,-2,-2,0,-3,0,-5,0,-2,0
15.704037,-2,0,-3,-1,-2,2,0,-2,0
15.711792,5,1,2,0,-1,-2,1,9,0
15.711809,-4,-3,0,2,-1,-1,0,-5,0
15.727884,-2,0,-1,-2,-3,0,-3,-4,0
15.727892,3,-2,-1,0,-1,1,-1,2,0
15.744392,-2,-1,-3,-2,-1,1,0,1,0
15.744400,0,-2,-2,0,-1,-1,1,-1,0
15.744404,-1,-2,-2,-1,0,1,-2,-6,0
15.744407,-2,-1,0,-3,0,-1,0,-2,0
15.748619,1,-2,-3,0,1,0,-2,2,0
15.748645,-2,-4,1,-1,-1,1,-1,-2,0
15.763996,1,1,0,-1,0,-2,-3,2,0
15.764019,-1,-1,-1,-3,0,-1,-2,2,0
15.772138,-1,-2,-2,-4,0,-1,-1,1,0
15.772165,0,1,-1,-1,-2,-1,-2,-2,0
15.787164,-3,-4,-1,-2,-1,0,0,-3,0
15.787196,-1,1,-1,-2,-1,-1,0,0,0
15.789959,1,-2,-2,-4,-3,0,0,0,0
15.789976,0,-3,0,-3,-1,-3,-1,-3,0
15.801525,-2,0,-1,-3,-2,0,-1,1,0
15.801550,-1,1,1,0,-2,-1,-1,-3,0
15.808947,-2,-2,-1,2,0,-2,-2,2,0
15.808975,0,1,-2,0,0,0,-1,-2,0
15.825151,-2,-1,-2,-2,0,-2,-3,-2,0
15.825211,0,-4,-3,-4,-1,0,-2,0,0
15.831983,-1,-2,-1,-2,0,0,-2,-1,0
15.832000,1,1,-2,1,-1,-1,-2,0,0
15.846122,-3,-3,0,-1,-2,-1,-1,-3,0
15.846149,-1,0,1,1,0,1,-2,-1,0
15.854363,1,-2,-3,-3,-1,0,-1,-2,0
15.854391,-1,0,-1,-2,1,-2,-1,-3,0
15.861096,1,-1,-3,-1,0,-2,1,0,0
15.861120,-4,-1,0,1,-1,-1,-1,-2,0
15.870133,0,-4,-1,0,-1,-1,2,0,0
15.870147,-1,-2,0,-3,-1,1,-1,0,0
15.885267,1,1,-1,2,0,-1,-3,-3,0
15.885280,0,1,-1,-2,-1,-1,-2,-1,0
15.892129,-1,1,-1,-1,0,-1,-1,2,0
15.892169,-3,-3,0,-2,-1,1,-1,-3,0
15.906173,-1,-1,0,-3,0,-1,-2,1,0
15.906192,-2,-1,-1,0,1,-2,-1,0,0
15.914526,-2,-1,0,0,0,-1,-2,-1,0
15.914550,-1,-1,-1,-2,0,0,-1,-2,0
15.929291,-1,-1,-1,-1,-2,0,-1,-1,0
15.929314,-1,-1,-1,-2,-1,0,0,-1,0
15.932238,-6,-1,0,-2,-2,-2,-2,-2,0
15.932249,12,2,1,0,-1,-1,1,2,0
15.943687,-7,-1,0,-2,-4,-1,-3,-4,0
15.943705,7,-2,-3,-4,0,-1,-1,-2,0
15.951870,-1,-1,-1,1,-2,0,0,0,0
15.951894,-4,-1,-2,0,-2,-1,0,-1,0
15.966142,11,1,1,2,0,2,1,2,0
15.966162,-4,-4,1,-2,-2,-1,-1,2,0
15.974794,3,1,-1,0,-1,0,0,1,0
15.974830,-15,-7,-4,-4,-4,-3,-5,-6,0
15.989315,-1,-1,-2,-3,2,-1,0,1,0
15.989333,7,2,1,-1,-1,-1,3,-8,0
15.990464,-6,0,3,1,0,1,1,4,0
15.990473,2,0,2,0,0,-1,-9,6,0
16.003610,-41,-11,-6,-2,-3,-1,-1,-12,0
16.003634,-2,-2,-3,-2,-3,0,-2,2,0
16.011981,14,0,-3,1,-1,-1,4,-5,0
16.011997,9,4,1,1,0,2,4,3,0
16.027466,11,2,1,2,0,-3,-1,2,0
16.027474,1,1,0,0,1,2,11,6,0
16.034457,-9,-1,0,-2,1,4,0,0,0
16.034521,-5,-1,0,1,-2,-2,-17,-6,0
16.049351,14,-1,-3,-2,-4,-8,-8,-3,0
16.049376,-18,-4,-2,-3,-4,-5,-6,-7,0
16.051525,5,-2,-3,-2,-4,-5,2,-3,0
16.051538,-1,-2,-2,-1,0,3,13,0,0
16.063617,-1,-2,0,0,1,4,9,4,0
16.063634,14,0,0,1,-1,-1,-2,-2,0
16.072164,4,1,-2,-2,0,-1,-12,-4,0
16.072205,-5,-3,-3,-4,-1,-3,-3,13,0
16.086080,8,0,2,-1,0,-3,-3,-9,0
16.086104,8,2,3,1,-1,1,-1,-3,0
16.094279,7,-1,0,0,-1,-2,10,-5,0
16.094298,-7,2,1,2,-1,0,-6,16,0
16.109185,3,2,0,1,-2,0,-3,-2,0
16.109202,9,-1,-2,0,1,3,2,10,0
16.116895,-5,0,-1,-1,-4,-3,-3,0,0
16.116911,16,3,-1,-1,-1,0,5,8,0
16.123937,-16,-2,-3,-3,0,1,1,5,0
16.123975,-10,-4,-2,0,1,-2,-6,-4,0
16.131870,-5,-2,-1,-2,-3,-2,3,-8,0
16.133447,8,4,1,1,1,3,8,65,0
16.146104,14,0,-4,-5,-4,-4,-9,-41,0
16.146122,-4,-7,-5,-3,-1,-2,21,14,0
16.154620,-33,-4,0,-1,0,-2,-4,-32,0
16.154648,-1,-6,-5,-2,-2,4,28,36,0
16.169410,-15,2,1,0,-2,-1,-8,9,0
16.169431,3,0,-1,-2,-2,-2,-9,-20,0
16.171332,-18,-10,-6,-2,2,1,4,-14,0
16.171349,-6,-3,-5,-7,-4,-10,-27,-95,0
16.185135,-1,3,2,5,1,4,29,48,0
16.185156,11,-4,-4,-3,-2,-3,-3,-24,0
16.192372,10,7,6,6,4,6,18,94,0
16.192420,-3,-3,0,-1,0,0,-6,-28,0
16.206475,-2,-1,0,0,-1,-1,-11,-22,0
16.206506,9,3,-1,-2,-1,-1,-9,22,0
16.214549,-4,-1,0,1,-2,-1,-5,-8,0
16.214568,-11,-6,-2,-4,-3,-2,-4,-17,0
16.230035,14,-1,-2,-1,3,0,-4,15,0
16.230057,-11,5,4,0,2,-1,-9,12,0
16.230061,2,-3,-3,-4,-4,-2,-12,-5,0
16.230064,0,2,-2,-2,-1,-2,-3,-6,0
16.243632,-8,-3,-2,-1,-2,-1,-3,-16,0
16.243652,7,-2,-4,1,-1,-1,-1,-7,0
16.252078,11,1,-4,-4,0,-3,1,-5,0
16.252101,-6,2,0,0,-1,-2,-11,-30,0
16.266121,0,-2,-3,-1,-2,0,5,4,0
16.267461,-13,0,1,-1,-1,0,0,5,0
16.274608,8,-1,-1,-1,-1,-1,-4,-8,0
16.274621,-11,-1,0,1,1,-1,2,3,0
16.290461,16,2,0,-2,1,-4,-14,-2,0
16.290468,-9,-3,0,1,1,2,12,61,0
16.290471,-5,-1,-1,-1,2,3,-13,4,0
16.290475,12,0,0,0,-2,0,-3,0,0
16.303861,24,4,1,1,0,2,14,55,0
16.303885,-11,2,2,-1,-2,-2,-5,-17,0
16.311761,12,-4,-4,-2,-2,-1,13,22,0
16.311778,5,1,0,-1,1,1,-8,-23,0
16.326445,-2,-4,-6,-4,-1,-2,-10,-27,0
16.326464,33,10,5,6,1,-1,-13,9,0
16.334231,-15,-4,1,2,0,-1,-2,-14,0
16.334255,-29,-9,-4,-5,-4,-5,-18,-53,0
16.349264,6,-1,-3,-3,-1,0,4,-13,0
16.349290,-15,-4,-1,-3,-1,1,8,28,0
16.351242,5,1,-3,-5,-1,0,-6,-48,0
16.351251,-11,-3,-2,-2,-1,-2,10,-6,0
16.363752,-24,-4,0,-5,-1,-3,-2,2,0
16.363778,8,-2,0,-1,-4,-3,-7,-27,0
16.371980,-4,-1,0,-1,-2,-1,-3,9,0
16.372013,2,-4,-5,-5,-3,-1,1,-22,0
16.386225,0,-1,1,-2,-2,1,-1,-11,0
16.386243,31,7,-2,2,2,-4,-10,-64,0
16.394373,4,-2,-2,1,-1,0,15,9,0
16.394398,-57,-6,-2,-1,-2,-3,-20,26,0
16.409439,14,-1,-1,0,-2,-2,-8,15,0
16.409459,-13,-3,-3,-4,0,-1,-7,14,0
16.410680,22,4,0,0,0,1,-5,1,0
16.410688,30,8,2,2,0,0,11,1,0
16.426333,-25,-10,-3,-6,-3,1,16,-6,0
16.426344,-3,2,0,1,-4,-3,6,-20,0
16.432047,1,1,0,1,-1,-6,-21,17,0
16.432073,8,-2,-2,-2,2,3,13,33,0
16.446072,-19,-1,-3,1,1,-1,-2,-11,0
16.446086,-1,-6,-5,-7,-2,1,9,4,0
16.454883,-11,-5,-4,-4,-4,-2,5,2,0
16.454910,3,3,1,2,-2,-2,-38,5,0
16.469298,5,2,-1,2,1,1,-5,21,0
16.469323,-4,-4,-2,-1,2,1,-3,-30,0
16.472253,-10,-3,-2,-4,-3,1,5,30,0
16.472262,31,5,2,-1,0,2,11,-5,0
16.483620,-15,2,1,9,1,-5,0,23,0
16.483644,-10,1,0,1,0,0,-7,16,0
16.492761,15,2,1,1,0,-4,-15,-39,0
16.492769,-2,-1,-4,-2,-1,1,14,45,0
16.508659,10,0,2,-2,-2,0,-2,-12,0
16.508669,-4,-2,1,-3,-3,-2,3,-4,0
16.514725,-28,-6,-5,-2,0,-1,7,-10,0
16.514758,6,-1,-2,-2,-2,-2,9,-2,0
16.529293,-2,0,-2,0,1,-1,-6,1,0
16.529319,19,-1,0,2,-2,-2,-1,24,0
16.529990,-23,0,-2,0,1,-1,-6,-18,0
16.530069,6,-1,0,1,-1,-1,5,4,0
16.543697,0,-2,0,-3,0,-1,-5,-2,0
16.543723,-1,1,0,-2,0,-1,-9,-18,0
16.552165,6,5,1,1,-1,0,1,5,0
16.552188,2,3,4,2,-2,-2,8,-26,0
16.575489,-10,-10,-6,-4,-1,1,18,50,0
16.575595,-10,-4,-4,-3,-2,-2,12,-30,0
16.575840,5,3,0,0,0,3,14,99,0
16.575849,-1,-1,-1,-1,2,-4,-5,-20,0
16.589528,2,5,1,-2,-1,-1,-6,-34,0
16.589547,-11,-3,-3,-1,0,0,4,4,0
16.590302,-1,-9,-1,-4,-3,-2,0,-42,0
16.590348,7,2,-2,-1,-2,-2,-8,-8,0
16.603583,0,-1,1,1,-1,0,0,0,0
16.603598,-18,-6,-4,-3,-1,-2,3,19,0
16.611996,11,1,1,2,-1,-3,-9,-22,0
16.612021,-3,2,1,1,-1,0,2,20,0
16.626294,3,-1,-4,-5,-2,-2,0,-21,0
16.626321,-22,-1,1,2,-1,-1,5,19,0
16.634298,29,-1,0,-1,-1,-2,-7,-23,0
16.634315,-50,-9,-3,-2,-3,-2,12,-11,0
16.650712,14,4,-2,-1,-3,1,-2,8,0
16.650724,11,0,-1,-2,-2,1,0,13,0
16.650732,2,0,1,-2,-1,-1,-3,41,0
16.650738,-32,-6,-6,-2,-1,-3,-5,-6,0
16.665111,6,1,0,-1,-1,-2,-5,-15,0
16.665118,6,2,3,1,1,-4,-7,-17,0
16.672158,-13,-3,-2,0,-1,-1,8,-3,0
16.672181,8,0,0,-2,2,1,-5,0,0
16.686496,-4,-3,-1,-3,-1,-2,-5,-4,0
16.686521,-4,-3,-3,-4,-1,-1,-7,-3,0
16.694281,-6,1,-3,-5,-2,-1,-3,-15,0
16.694298,26,1,0,1,-1,2,1,7,0
16.709289,-52,-2,3,7,1,0,0,-14,0
16.709307,7,-1,-3,-1,-3,-1,-6,0,0
16.710812,15,1,-4,-4,-2,-3,-6,-15,0
16.710819,0,1,0,3,0,1,4,10,0
16.732117,-37,-3,3,1,1,0,-5,-12,0
16.732146,9,-1,-2,1,-2,0,0,5,0
16.739434,-26,-7,-3,-3,-3,-3,-7,-20,0
16.739459,18,-4,-10,-10,-2,-3,-4,2,0
16.746176,17,5,-1,1,-1,-2,4,5,0
16.746201,-24,0,6,4,3,1,-2,-5,0
16.756463,16,2,1,-1,0,-1,-1,-5,0
16.756473,23,-2,-2,1,-2,-3,0,1,0
16.768624,-23,-1,0,-3,-6,-3,6,-15,0
16.768649,-5,-5,-3,-1,2,6,24,50,0
16.778036,10,2,0,2,-1,-1,-9,-15,0
16.778049,-14,-4,0,0,-2,-2,5,5,0
16.783765,16,-4,-2,-9,-3,-3,1,-3,0
16.783790,19,4,-8,-1,1,0,-8,-3,0
16.793953,2,-2,3,0,-2,-3,-12,-10,0
16.793960,0,0,2,0,-2,4,-1,4,0
16.806654,-4,-3,-1,-2,-2,-2,-9,-3,0
16.806660,1,-1,0,-2,-1,-2,0,-7,0
16.816876,-13,1,-1,0,-2,-2,4,1,0
16.816889,-6,2,6,1,1,0,-3,-7,0
16.828677,15,-2,-5,2,-1,-2,-4,0,0
16.828701,8,-5,-9,-10,-8,-1,-9,-10,0
16.838397,-36,-4,-3,0,-1,0,2,-2,0
16.838424,14,4,4,4,2,1,1,3,0
16.843793,22,3,8,0,4,2,0,3,0
16.843810,-13,0,-1,0,-3,-2,-5,-8,0
16.858943,11,-5,-3,-7,-2,-1,-1,2,0
16.858977,-23,-5,-5,-5,-1,-1,-1,-5,0
16.866590,-4,-4,-7,-4,-2,0,-2,-2,0
16.866614,-16,-3,4,-4,-2,-6,-7,-20,0
16.875931,8,7,4,-1,0,1,4,-2,0
16.875938,5,-1,-2,-2,-1,-3,-2,1,0
16.897625,-10,-1,-5,0,1,-2,-1,0,0
16.897645,-1,-8,-4,0,-3,-3,-8,-3,0
16.899433,-4,-2,-7,-2,-4,-3,-1,2,0
16.899441,-10,3,2,6,4,1,1,-3,0
16.912595,21,8,8,8,3,5,3,6,0
16.912619,-7,-3,2,6,2,0,0,-4,0
16.914344,0,-2,0,2,0,-1,-3,-2,0
16.914356,3,-7,-11,-8,-10,-6,-7,0,0
16.926380,3,1,1,-3,-3,-1,-3,-5,0
16.926491,0,2,1,9,5,2,1,0,0
16.935296,2,2,2,1,1,-1,-1,1,0
16.935303,1,0,4,2,3,2,1,1,0
16.948605,4,-1,-1,-5,-6,-2,-4,-1,0
16.948622,-16,-3,-9,-6,-3,-3,-4,-5,0
16.959136,-11,-4,-4,0,-2,-2,-1,-1,0
16.959148,1,0,2,1,-2,-2,-3,-6,0
16.972644,8,-2,0,-3,2,2,-2,2,0
16.972663,19,1,4,-2,-2,1,-1,-1,0
16.974133,-22,-1,-4,-1,2,1,3,-1,0
16.974155,-2,-2,0,-1,-1,-1,-2,4,0
16.986132,10,-5,-7,-4,-5,-4,-7,-9,0
16.986155,4,1,1,-2,-2,-2,2,-5,0
16.995035,6,1,2,4,6,4,3,-2,0
16.995052,-8,-6,-4,-3,-4,-1,-1,-2,0
17.010803,0,3,0,1,1,-3,0,-1,0
17.010818,-5,5,2,2,2,1,4,7,0
17.019738,5,-1,1,-3,-3,-1,-3,-2,0
17.019748,3,2,-2,1,2,0,0,2,0
17.032753,-2,-3,-5,0,0,-2,-4,-3,0
17.032781,-33,-5,3,-2,-1,-2,-2,-6,0
17.035277,7,0,1,2,1,1,2,0,0
17.035339,7,-4,-4,-4,-4,-3,-1,5,0
17.046265,12,0,-3,-4,-4,-4,-3,-4,0
17.046291,0,3,3,-1,0,1,1,-1,0
17.056568,-5,-2,1,1,0,2,8,-1,0
17.056585,8,-1,-2,-3,-1,-3,-18,0,0
17.068818,-9,-1,-4,-1,-3,-4,-1,-1,0
17.068852,3,-3,-2,-4,-3,-1,-3,-2,0
17.077751,-12,-2,-2,-2,-1,-1,-2,-4,0
17.077785,5,1,0,0,1,2,6,-3,0
17.092979,-8,-1,-2,-1,-1,-1,1,3,0
17.093021,6,0,0,-1,-2,-1,-3,1,0
17.094134,7,-1,-1,-2,-3,0,0,2,0
17.094157,-8,-3,1,-1,0,-1,1,-1,0
17.106316,11,0,-1,0,0,0,0,0,0
17.106356,-40,-5,-4,-3,-4,-3,-2,-5,0
17.115832,4,-1,-2,0,-2,-2,-6,-5,0
17.115840,-6,-2,0,-1,-4,-3,1,-5,0
17.128818,11,2,0,0,0,0,3,5,0
17.128847,-5,1,0,-2,1,1,-2,-4,0
17.139394,25,0,0,-2,0,-2,-3,5,0
17.139409,-18,2,0,-2,0,1,-1,-4,0
17.152547,-14,-6,-5,-4,-2,-4,-4,-8,0
17.152566,29,0,-2,-1,-1,-2,1,3,0
17.154134,-2,1,1,2,0,-1,-3,3,0
17.154163,11,0,2,0,0,1,5,5,0
17.166748,0,2,0,3,-2,-1,1,3,0
17.166766,-3,-1,-4,-2,-2,-2,-2,-2,0
17.177457,-4,-1,-1,-3,-3,-1,-1,1,0
17.177472,1,-2,0,-5,0,1,-1,-2,0
17.188914,-14,-3,1,-1,-1,1,-2,-3,0
17.188950,9,-1,0,-1,0,-1,-6,-5,0
17.199435,-12,-3,-1,0,1,-2,-2,-7,0
17.199445,6,2,-3,-1,-4,-4,1,-19,0
17.212724,1,-1,0,3,1,2,1,23,0
17.212734,4,-2,-1,-2,-3,-3,10,-17,0
17.214210,5,5,0,3,1,3,6,52,0
17.214241,-25,-2,0,-4,-4,-4,-7,-44,0
17.226631,-6,-2,1,1,1,-2,-3,-6,0
17.226661,1,-2,-3,-4,-3,-4,-6,-45,0
17.237361,-16,-5,-4,-2,-2,0,3,5,0
17.237376,4,0,-1,1,0,-2,6,11,0
17.248770,16,4,0,-3,-1,-1,-29,-39,0
17.248794,-22,-5,0,-1,-1,-1,-5,5,0
17.259232,-28,-6,-5,-8,-4,-5,-5,-21,0
17.259251,-2,4,4,4,3,0,0,92,0
17.272859,2,-8,-9,-10,-6,-9,-24,-45,0
17.274556,5,-4,-2,0,0,2,7,28,0
17.274584,6,0,1,0,-1,-3,-10,-61,0
17.274589,4,-4,-4,-3,-2,1,-6,-49,0
17.286308,-2,4,0,-2,0,-1,5,1,0
17.286344,-10,-6,-6,-7,-5,-8,-8,-20,0
17.296040,-4,-6,-2,-3,-2,-2,11,-33,0
17.296057,3,5,2,3,1,-1,-20,25,0
17.309669,0,-1,1,2,3,5,21,22,0
17.309722,16,0,-2,-1,-2,1,-14,-23,0
17.318693,16,7,1,1,-1,-1,10,5,0
17.318702,-23,-5,2,0,1,0,14,12,0
17.332718,-26,-6,-2,-2,-2,-1,1,2,0
17.332753,-4,3,0,0,0,1,4,27,0
17.334304,9,1,-3,-1,-2,-6,-16,-35,0
17.334313,9,0,0,2,-1,0,1,-3,0
17.346260,-10,-2,1,0,-1,1,7,10,0
17.346286,13,2,-1,1,-1,1,8,10,0
17.356402,18,4,1,-1,-1,1,1,18,0
17.356413,-13,-11,-7,-7,-2,0,-11,18,0
17.368782,-2,6,8,9,5,5,22,101,0
17.368811,-2,0,1,1,1,0,-13,-21,0
17.378931,23,3,0,-1,0,1,-17,53,0
17.378939,12,1,0,2,0,-1,-17,-12,0
17.393333,-8,-4,-6,-4,-3,-3,-12,-57,0
17.393390,-17,2,1,7,7,10,9,88,0
17.395443,13,4,0,2,2,0,-7,-12,0
17.395460,-8,8,5,2,-1,3,45,23,0
17.406409,-13,-17,-8,-4,-1,4,45,24,0
17.406458,15,4,1,0,-1,-5,-9,-61,0
17.415679,-15,-6,-3,-4,-3,-4,-7,-34,0
17.415687,23,3,-2,-4,-3,-1,-6,-28,0
17.428856,-5,0,1,-3,-3,-3,-16,-17,0
17.428902,13,4,7,6,3,5,25,93,0
17.438839,-40,-6,-3,-1,1,3,30,67,0
17.438853,2,-1,-1,1,1,1,14,48,0
17.452747,8,2,1,1,-1,-1,-6,-14,0
17.452781,10,-3,-3,-6,-2,-1,3,-34,0
17.454189,-22,-4,2,4,1,2,20,57,0
17.454225,-3,1,-1,-3,-2,-6,-7,15,0
17.467443,-16,-1,-1,-2,-4,-8,-30,11,0
17.467466,7,2,1,3,0,-2,-20,-16,0
17.476816,10,-6,-2,-2,-1,0,-12,8,0
17.476827,-6,-9,-6,-6,-3,4,23,-8,0
17.488896,4,8,7,7,4,6,-1,52,0
17.488925,2,-1,-3,-5,-6,-3,-1,-41,0
17.498741,2,1,-2,-3,-1,0,18,-6,0
17.498757,-3,-2,1,0,0,2,3,5,0
17.512607,19,-2,-4,-6,-2,-3,-2,-42,0
17.512652,0,-5,-1,-1,-2,-2,2,-20,0
17.514506,-19,-2,1,-3,-3,-1,12,-56,0
17.514519,-53,-8,-1,2,1,4,13,59,0
17.526199,26,5,-1,0,-1,-1,-9,-45,0
17.526222,-14,1,0,0,-1,-2,0,2,0
17.535547,22,-4,-7,-9,-5,-6,-14,-49,0
17.535608,3,3,3,4,-1,-5,-10,0,0
17.548863,-11,-3,-5,-5,-3,-1,12,-13,0
17.548890,-8,-5,-5,-1,1,3,28,70,0
17.559213,8,-4,-5,-6,-4,-7,-17,-82,0
17.559230,3,-5,-6,-4,-2,-3,6,-76,0
17.572678,-3,-2,0,0,0,6,27,43,0
17.572699,25,10,2,-2,-1,-9,-44,-9,0
17.574088,-9,-6,-2,-2,-3,-3,22,0,0
17.574094,11,3,2,2,4,1,-15,7,0
17.586098,3,-3,-1,-2,1,0,3,-25,0
17.587944,-5,-4,-3,-6,-4,-3,-9,-58,0
17.601039,-6,3,4,7,4,4,-2,57,0
17.601060,22,1,-1,0,-2,-4,-22,-24,0
17.608811,38,4,3,0,-3,-3,-18,2,0
17.610578,-73,-4,0,3,1,5,20,45,0
17.618681,4,-2,-3,-1,-3,-2,-20,-30,0
17.618687,23,7,1,-4,-2,5,40,21,0
17.632804,-20,4,7,10,6,6,34,41,0
17.632828,26,0,-2,-4,0,1,13,-44,0
17.634609,9,0,0,-2,0,5,12,5,0
17.634621,-47,-11,-5,-6,-8,-15,-40,-42,0
17.646230,30,-4,-11,-17,-9,-11,-33,-62,0
17.646254,-10,0,4,6,0,-3,4,7,0
17.657604,-12,3,1,2,0,0,-17,38,0
17.657619,17,-2,-3,0,2,-2,-25,-19,0
17.668849,-18,-6,-5,-4,-5,-7,-40,-53,0
17.668881,-6,-5,-3,-3,-5,-1,-3,7,0
17.686170,1,6,5,10,13,3,-1,49,0
17.686183,-17,4,8,0,-5,2,1,33,0
17.692826,-1,-1,-5,-7,-3,-2,6,-46,0
17.692846,6,2,2,4,4,4,19,16,0
17.694580,-19,-4,0,-5,-8,-1,-16,45,0
17.694588,11,3,-2,5,9,0,-15,-41,0
17.706180,-18,-5,-4,-9,-8,5,25,14,0
17.706199,-5,3,1,-4,-5,-8,-24,41,0
17.716363,28,1,-4,-4,-3,-15,-22,-93,0
17.716370,5,-10,-8,-7,-4,1,8,-61,0
17.728623,-40,-17,-5,-2,0,-3,22,-44,0
17.728640,17,-1,-4,0,0,-1,-10,-49,0
17.740024,2,-4,-5,-7,-3,-2,10,-23,0
17.740040,24,2,-4,-3,-4,-6,-24,-86,0
17.752289,-8,-4,2,4,1,-1,10,-5,0
17.752295,9,-5,-5,-3,-3,2,20,-14,0
17.758996,-2,2,3,5,5,4,14,-22,0
17.759017,-25,-7,-2,9,8,4,22,25,0
17.768258,25,18,10,19,16,0,-24,64,0
17.768265,-17,-9,-6,-20,-18,-4,11,-18,0
17.776514,12,0,-1,-23,-16,1,18,35,0
17.776522,7,-1,-2,-7,-2,1,15,-11,0
17.788764,-4,2,3,3,6,0,-24,60,0
17.788784,9,-3,0,18,20,6,6,-30,0
17.799271,-34,-2,-3,5,0,-2,42,26,0
17.799279,-12,-6,0,-4,-5,6,40,-7,0
17.811924,-13,-3,-1,7,5,1,23,-12,0
17.811943,15,2,-1,-7,-6,-6,-22,-60,0
17.818867,17,0,-4,-2,-2,-4,2,-67,0
17.818891,12,4,4,2,-5,-15,-38,-24,0
17.826300,8,-6,-5,-8,-7,-3,-3,-73,0
17.826317,-5,6,5,3,-1,-2,-12,44,0
17.836260,-17,-2,-2,1,2,0,-18,-10,0
17.836272,-4,3,0,3,4,-3,-13,5,0
17.848692,-14,-4,-1,-4,-6,-5,-8,5,0
17.848710,15,1,-1,-5,-3,-3,3,17,0
17.859016,-3,-4,-1,4,4,3,1,18,0
17.859027,15,5,3,1,-4,-2,-17,20,0
17.872038,7,-1,-1,-6,-4,-1,-8,6,0
17.872069,-20,-1,-1,3,1,-5,-44,9,0
17.886764,12,0,-1,2,0,0,-7,-1,0
17.886792,2,11,8,10,8,7,-13,29,0
17.895105,8,-1,-1,-3,-2,-1,0,-46,0
17.895128,0,4,3,2,2,-1,-2,-27,0
17.897512,11,0,2,3,2,4,-7,14,0
17.897518,1,-2,-2,-6,-6,-4,-5,30,0
17.909260,-27,-4,-5,-3,-3,-1,-15,-11,0
17.909270,12,-2,-3,0,7,2,12,-30,0
17.919211,-6,-2,-2,-7,-10,-2,6,-8,0
17.919223,6,-8,-7,-10,-2,0,4,-38,0
17.932393,1,-4,-1,1,-1,2,29,25,0
17.932417,-5,-1,-5,-2,-2,0,10,-32,0
17.940355,-3,1,2,4,3,1,-14,7,0
17.940362,15,-2,-2,0,0,0,-19,-3,0
17.956976,16,0,-1,2,-1,0,9,-8,0
17.956986,-16,0,0,-4,-3,1,6,37,0
17.956990,6,-6,-4,-1,2,-1,6,30,0
17.956993,-25,-8,-4,-1,-1,-4,22,-20,0
17.971491,15,3,-3,-5,-8,-3,-19,8,0
17.971511,2,-2,-3,2,2,2,9,6,0
17.979284,-2,2,0,4,4,2,-1,-4,0
17.979298,7,2,-2,-5,-6,-9,-3,15,0
17.992224,-12,-5,-1,7,9,2,6,2,0
17.992263,-6,-7,-6,-18,-22,-1,2,-18,0
17.999120,-6,-1,0,-13,-10,-3,-12,-10,0
17.999143,3,-3,-4,-9,-2,0,-7,-5,0
18.022553,1,9,7,10,6,-1,-12,18,0
18.022579,3,0,1,7,7,-1,0,0,0
18.024477,-2,-1,-3,3,2,-1,-4,-16,0
18.024511,-35,-3,1,4,0,-1,-3,2,0
18.029104,10,-1,-2,-8,-6,-2,13,0,0
18.029128,-15,-7,-1,7,7,7,27,26,0
18.037614,6,2,0,2,-2,-3,-9,-13,0
18.037715,12,-2,-3,-2,-2,3,8,-2,0
18.052040,-24,1,-1,-2,-4,-3,10,24,0
18.052064,3,0,2,-2,-2,-3,-11,-9,0
18.059016,-3,-3,-3,-3,-1,-1,12,-20,0
18.059037,-4,-1,0,3,0,2,20,14,0
18.075336,-9,-4,-4,-7,-2,-1,-5,-12,0
18.075377,2,1,0,-2,-4,-5,-9,-6,0
18.077592,-5,1,1,1,1,0,0,14,0
18.077615,16,2,1,0,0,1,-9,7,0
18.088765,1,-3,-3,-5,-5,-3,-3,-8,0
18.088796,5,0,-3,0,0,-2,9,7,0
18.098194,-11,-12,-7,-2,1,1,16,9,0
18.098203,-20,5,6,9,1,0,-9,58,0
18.111894,29,3,-1,0,1,2,-7,-14,0
18.111917,1,-1,0,-4,-1,-2,21,-13,0
18.127156,6,-3,-2,4,3,-1,-4,37,0
18.127164,5,-1,-4,-9,-4,3,10,-14,0
18.135188,-12,-3,0,1,-4,-2,-2,0,0
18.135211,6,-1,-2,0,-1,1,-10,6,0
18.136482,6,5,2,1,2,-1,-18,-34,0
18.136523,-12,-6,-4,-5,-1,-3,13,-2,0
18.148645,10,11,8,7,2,-4,-8,-8,0
18.148669,-8,-6,-5,-5,-1,-1,3,-4,0
18.159109,7,3,2,5,3,1,-6,-3,0
18.159128,-8,-3,-5,-7,-4,-4,-4,-51,0
18.171909,-2,-8,-4,-5,0,5,22,-20,0
18.173522,3,-1,1,0,0,-2,1,10,0
18.178608,-9,3,1,-2,-3,-2,-8,-5,0
18.178626,19,0,-2,-2,0,-1,-8,13,0
18.195601,-5,-5,-4,-6,-4,-3,3,10,0
18.195667,-8,-3,-2,2,2,4,4,-7,0
18.196998,-1,-1,-2,-4,-3,-5,-17,-8,0
18.197010,9,1,-3,1,0,-2,-11,-8,0
18.209107,-10,-6,-1,1,1,0,-6,-2,0
18.209136,3,0,3,-1,-5,0,-7,12,0
18.217713,5,0,-2,-5,-4,0,8,-3,0
18.217719,-9,-2,3,8,8,7,13,61,0
18.231782,-9,1,-2,-4,-2,-5,-13,25,0
18.231800,4,-2,-3,-2,0,-5,-26,-20,0
18.238768,4,1,0,2,2,2,4,4,0
18.239826,-25,-5,-3,-5,-5,-3,-9,-25,0
18.255054,19,4,1,1,-2,-1,-12,-32,0
18.255075,-2,-1,1,-1,-1,-1,-27,-4,0
18.256599,9,-4,-4,-5,-4,-3,-3,1,0
18.256620,-13,-3,1,4,3,0,10,0,0
18.270705,-18,3,0,-4,-1,-2,-18,1,0
18.270729,10,2,1,0,-1,-4,3,-8,0
18.278065,-29,-2,0,2,4,0,5,4,0
18.278078,27,2,0,-3,-4,-6,-16,19,0
18.292256,0,-2,1,4,4,0,4,-2,0
18.292277,-15,3,1,-3,-6,-4,15,33,0
18.299118,16,7,3,4,4,-1,-39,35,0
18.299140,-15,-3,-2,-3,-3,1,16,-13,0
18.315438,-1,-4,-3,-4,-2,1,2,6,0
18.315468,1,-1,-2,4,3,2,6,15,0
18.317978,2,-1,-2,-2,-3,-2,-1,-17,0
18.317984,-4,0,-3,-1,-3,-4,-1,-7,0
18.328613,9,-1,-2,0,1,0,-1,6,0
18.328629,10,-3,-3,-5,1,2,5,-32,0
18.339609,-22,-1,-1,-1,-2,-4,-7,14,0
18.339624,6,-3,-3,-1,-2,2,-3,-21,0
18.353184,-1,-5,-3,-2,-3,3,10,6,0
18.353208,-20,0,-3,-4,-5,-4,-7,14,0
18.358994,7,4,2,3,-1,-6,-20,-25,0
18.359013,-1,-4,-1,-5,-2,-1,-1,-11,0
18.375330,-6,-3,-3,-5,-3,0,-8,-4,0
18.375362,14,-3,-1,-4,0,1,-2,-19,0
18.376484,-2,-4,-1,-2,0,1,13,3,0
18.376500,8,4,0,7,3,2,3,12,0
18.388773,5,2,0,0,-3,-2,-9,-7,0
18.388805,-3,3,1,0,1,-3,-16,-11,0
18.397524,2,-4,-3,-2,-2,0,10,-1,0
18.397536,6,0,0,-1,0,-2,-9,-6,0
18.413460,-10,-2,0,-1,0,0,13,-3,0
18.413472,-15,0,-2,-4,-2,2,17,43,0
18.418559,-7,-1,1,-3,-1,2,13,23,0
18.418582,3,-1,-2,-5,-4,-2,-5,-20,0
18.435084,-9,-8,-3,-1,1,3,37,23,0
18.435105,0,-1,-1,1,0,-1,-5,-19,0
18.436487,2,-4,-1,-1,-2,-1,-2,-13,0
18.436520,-10,0,-2,-2,1,0,-1,-9,0
18.448850,11,5,-2,-1,0,-1,-13,2,0
18.448879,-3,1,1,3,0,-2,0,-8,0
18.459645,-8,-2,-3,-1,-3,1,3,11,0
18.459655,12,-5,-4,-2,-3,-1,-7,-6,0
18.472102,-21,-3,1,0,-3,-3,11,16,0
18.472133,6,-2,-1,-3,0,-1,-4,-1,0
18.478936,3,3,1,-2,-1,-4,-9,-20,0
18.478961,5,0,-2,0,-2,-2,2,6,0
18.495030,6,10,4,1,-1,-7,-31,18,0
18.495044,-1,-4,-3,-2,-3,-2,3,-8,0
18.496470,-4,-5,-5,-7,-4,-2,7,3,0
18.496486,-3,-1,-3,-8,-2,-2,-3,8,0
18.510887,-2,2,4,5,5,2,1,-8,0
18.510895,-5,-1,2,10,5,1,-6,5,0
18.519750,8,0,-3,2,0,0,0,5,0
18.519757,-10,-2,-2,1,3,-2,0,-2,0
18.532139,1,-7,-9,-6,-6,-4,-9,-21,0
18.532155,-3,-3,-1,-10,-8,-3,10,9,0
18.538870,-9,0,2,7,8,2,9,-8,0
18.539011,1,1,-6,-13,-16,0,5,6,0
18.555656,-6,1,2,-2,1,-1,-3,-1,0
18.555668,5,-1,0,2,1,-1,-10,-3,0
18.556535,-6,-8,-3,-4,-3,-1,1,-14,0
18.556548,-3,4,3,1,2,0,4,11,0
18.568888,7,4,1,3,4,2,-6,-6,0
18.568912,-11,-1,-1,-2,0,-2,-6,-1,0
18.577822,8,0,0,-2,0,-1,-20,1,0
18.577829,5,-1,0,0,2,-1,-7,-14,0
18.592395,10,-5,-4,-9,-4,-3,-2,-14,0
18.592433,5,2,-3,-11,0,-6,-23,-19,0
18.598617,1,-4,0,-8,-3,-1,-1,-14,0
18.598635,0,2,1,3,2,0,-2,4,0
18.615088,-5,-1,2,3,1,2,-4,1,0
18.615107,7,-2,-3,-5,-8,0,3,-6,0
18.616865,-1,3,0,3,-3,0,5,18,0
18.616873,-22,-2,1,1,0,-2,3,-17,0
18.628633,9,0,-1,14,1,-3,7,-1,0
18.628657,-25,-6,-5,7,-7,-2,-6,-9,0
18.639444,13,3,-1,5,-2,-3,2,-3,0
18.639453,4,-2,1,3,0,0,-1,13,0
18.651848,-2,-3,-1,-4,-2,-1,2,12,0
18.651867,9,-3,-1,-1,3,0,3,-3,0
18.658959,-6,0,-3,-10,-3,1,2,1,0
18.658980,-3,-2,0,-4,3,0,2,-9,0
18.674868,1,-2,-3,-7,-4,-2,-4,-6,0
18.674898,7,1,-2,-1,2,0,1,3,0
18.681205,-12,-2,1,1,-1,-1,0,-8,0
18.681221,5,-1,0,3,-1,-1,-3,-7,0
18.688927,4,1,-1,0,-3,0,-3,-6,0
18.688947,-4,-1,-1,2,1,0,4,6,0
18.698889,-5,-2,0,0,1,0,-1,-4,0
18.698896,2,-2,-1,-1,0,-1,-3,-2,0
18.711813,-2,-1,-2,-3,-1,-1,-3,-2,0
18.711824,-1,0,1,0,1,1,1,-4,0
18.718554,-3,-3,-1,-2,-2,-3,-2,5,0
18.718569,0,-2,0,2,-2,1,0,0,0
18.734303,-5,-4,-2,-3,0,-2,-1,6,0
18.734320,4,0,-2,-2,0,-2,-2,44,0
18.741819,5,-1,-1,-1,-1,0,0,63,0
18.741852,-2,-2,-1,-4,-1,-1,-1,-13,0
18.748747,-7,-1,-1,-4,0,-1,-3,-65,0
18.748772,8,1,-2,0,1,-1,1,-57,0
18.759120,-5,0,0,0,-3,-2,-3,-17,0
18.759131,3,-3,-2,1,-1,-1,1,47,0
18.772247,-20,-8,-5,-5,-3,-1,-4,10,0
18.772269,-2,-1,1,-4,-4,-2,-3,53,0
18.778625,-1,0,-4,-5,-3,1,-2,-5,0
18.778642,6,9,4,3,3,1,-1,56,0
18.794398,10,2,8,12,9,5,7,-59,0
18.794423,-4,-4,-8,-9,-6,-4,-1,-103,0
18.801223,-1,5,-3,4,5,1,4,-53,0
18.801265,3,-2,2,-3,-3,-3,0,-91,0
18.817477,-1,-1,6,-3,-3,-3,-2,33,0
18.817502,-5,-3,-3,3,3,0,-1,69,0
18.819745,1,-3,-2,-8,-6,-4,-5,53,0
18.819752,-3,-2,-5,-1,-1,-1,-1,44,0
18.831865,-5,-7,-4,-2,-3,-3,-3,111,0
18.831897,-4,-3,-2,-8,-1,0,-3,-72,0
18.838712,3,5,-3,-1,2,-1,3,-108,0
18.838729,-5,0,1,2,0,-2,-1,-47,0
18.855309,-1,-4,-6,-4,-5,-2,-4,-29,0
18.855331,1,-3,-1,-2,-4,-1,-3,61,0
18.861121,-2,-1,3,3,4,3,1,44,0
18.861146,1,7,4,3,4,3,2,-8,0
18.877525,8,3,5,-2,-1,-1,0,18,0
18.877549,-5,-4,-9,1,-2,-1,-2,16,0
18.879379,-5,-6,-6,-6,-5,-5,-6,-10,0
18.879386,0,-2,-2,1,0,1,1,3,0
18.892262,-9,3,-3,-2,1,1,1,-3,0
18.892298,1,2,8,4,4,0,2,-5,0
18.898606,-2,-3,-1,3,-1,-2,-4,-12,0
18.898623,-4,-6,-5,-6,-4,-3,-4,1,0
18.916688,1,1,-3,-6,-2,-1,-5,-11,0
18.916696,2,0,1,-1,-1,1,-1,-11,0
18.921168,4,-2,1,1,-2,-2,-1,18,0
18.922733,-14,-4,-3,-5,-4,-3,-4,-5,0
18.937541,6,3,-1,-1,0,-1,0,-11,0
18.939621,0,0,0,-1,0,1,-1,-8,0
18.939631,1,1,1,-2,1,0,-1,11,0
18.939634,3,-3,-1,-1,0,-3,-2,3,0
18.951920,-2,-1,-2,2,-1,-1,0,-12,0
18.951945,5,1,2,2,-1,-1,2,7,0
18.958955,-2,0,0,1,-3,-1,-1,1,0
18.958986,1,-1,1,1,-1,-1,0,-3,0
18.974813,-2,-2,-3,-1,-2,-1,-2,0,0
18.974850,6,0,0,0,1,-2,0,5,0
18.981169,12,2,1,3,1,-1,1,-6,0
18.981194,-28,-4,-2,1,-2,1,-1,6,0
18.997418,1,-2,-2,-3,-3,-1,-5,-2,0
18.997436,-6,-1,0,-3,0,0,1,2,0
18.998899,-7,-2,-4,-3,-2,-1,-3,-18,0
18.998915,2,-2,-1,0,-1,0,0,12,0
19.012419,-5,-1,-1,1,-2,-2,-2,7,0
19.012426,9,0,0,4,0,-3,0,-1,0
19.022817,-8,-3,0,0,0,-1,1,7,0
19.022826,4,-3,-1,2,-3,-2,1,-2,0
19.034444,-3,-6,-4,-1,-4,-1,-3,-25,0
19.034468,-2,2,0,2,-1,-3,-2,-5,0
19.041499,3,0,1,1,-1,-3,-2,7,0
19.041685,6,2,-2,-3,-1,0,1,-3,0
19.059750,6,0,-1,-2,-1,-4,-10,-5,0
19.059759,-4,-3,-2,-1,0,2,2,-11,0
19.059763,-6,-2,0,-2,-3,0,-2,-13,0
19.059766,4,-3,-3,-1,-1,2,-5,0,0
19.071408,2,1,1,1,2,2,5,5,0
19.071441,-4,0,0,-2,-2,-1,-1,6,0
19.090018,0,1,1,0,0,1,-1,7,0
19.090028,-2,-6,-5,-7,-3,-3,-1,-3,0
19.094317,-4,-3,-6,-8,-3,-3,1,2,0
19.094344,4,6,6,8,5,4,1,5,0
19.109144,-4,-4,1,3,-1,1,-1,3,0
19.109183,12,2,0,1,-1,1,-3,-5,0
19.117497,-4,-2,0,-1,0,-2,-2,1,0
19.117515,0,-2,-5,-6,-3,-3,-2,1,0
19.119917,-12,-2,-5,-3,-2,-3,-2,-1,0
19.119924,-18,-1,-1,-3,0,-2,-4,-11,0
19.131168,11,1,0,1,-1,-1,0,10,0
19.131192,5,-4,-1,-1,-2,-1,1,-1,0
19.140189,-8,-1,-1,-2,0,-1,-1,2,0
19.140204,6,1,-2,-1,-2,-4,-6,4,0
19.156113,2,1,1,-3,0,2,0,-4,0
19.156123,-3,-2,0,-2,-1,-2,-3,-4,0
19.161183,8,2,0,0,0,-1,3,11,0
19.161213,-3,0,0,-1,0,0,1,3,0
19.177495,-1,0,-2,0,-1,0,5,-2,0
19.177515,-5,-1,0,-2,-2,2,3,8,0
19.179790,5,-2,-3,-5,-2,-1,-4,-11,0
19.179803,0,-2,1,-1,2,0,11,18,0
19.191451,-1,3,0,2,-1,-2,-8,23,0
19.191509,-5,-6,-4,-1,-1,1,1,-7,0
19.201534,6,1,1,1,-1,-1,-15,-15,0
19.201547,-2,-2,2,1,2,4,7,16,0
19.214447,1,13,9,7,1,-1,-8,57,0
19.214465,-4,2,-1,0,-1,0,-1,2,0
19.221506,9,-5,-5,-5,-4,-4,-8,-62,0
19.221532,2,17,12,10,9,8,8,55,0
19.237553,-2,-13,-9,-7,-2,2,-1,-67,0
19.237570,18,8,3,-2,-2,-6,-19,24,0
19.239223,-10,-3,2,5,5,14,46,16,0
19.239243,6,4,-1,-2,-6,-14,-62,-78,0
19.251305,-6,-9,-4,0,0,4,13,7,0
19.251320,5,-5,-5,-8,-5,-9,-37,-66,0
19.268068,-35,-2,-2,-4,-5,-10,-51,-48,0
19.268076,17,-10,-10,-8,-6,-4,-2,-74,0
19.274677,-4,-1,0,-1,1,3,13,8,0
19.274727,-10,-3,-4,-3,-2,1,7,11,0
19.281341,8,-3,-1,-2,-3,-4,-3,13,0
19.281362,-14,-4,-3,-3,0,0,8,-10,0
19.297475,3,1,-1,-1,-2,-4,-11,-17,0
19.297494,-4,2,5,5,4,4,10,5,0
19.298952,-3,-3,-3,-3,-1,-1,12,32,0
19.298963,-2,0,1,4,1,1,12,19,0
19.311245,6,-1,-1,-2,-3,0,1,-9,0
19.312640,-5,0,0,-1,-2,-3,-1,16,0
19.321951,12,3,-2,-1,-2,-2,-7,-4,0
19.321960,-3,-6,-7,-9,-5,-5,-18,-10,0
19.344444,1,1,-1,-2,-1,0,2,4,0
19.344450,1,-2,-3,0,2,0,-28,-11,0
19.344454,-11,-6,1,1,-2,0,13,19,0
19.344457,8,0,-2,-2,-1,1,3,-6,0
19.358074,1,0,0,2,2,3,5,7,0
19.358114,2,-2,-3,-2,-2,0,0,-10,0
19.360107,-1,0,-4,-2,-1,0,6,14,0
19.360120,12,11,7,5,2,-3,-21,20,0
19.371279,-6,-5,-6,-8,-3,-4,8,-35,0
19.371313,-1,3,2,4,2,4,19,20,0
19.381307,-9,-1,-1,0,0,0,-10,7,0
19.381314,-2,-2,-4,-4,-3,-2,3,-11,0
19.394255,-1,1,1,3,1,0,-1,-13,0
19.394272,-1,0,0,1,-2,-1,0,-13,0
19.401640,11,3,-1,0,-1,-2,-2,-4,0
19.401672,-10,-6,-4,-2,-2,1,15,20,0
19.418345,-1,-2,1,-1,-1,-3,-6,12,0
19.418376,-14,-6,-2,-3,-2,0,12,3,0
19.420062,19,7,1,-1,-3,-8,-18,-19,0
19.420068,-21,-12,-4,1,-1,4,55,24,0
19.431276,-6,0,0,0,-2,-2,-5,-16,0
19.433306,-5,-5,-4,-5,-4,-3,-7,-17,0
19.440787,2,-4,-2,0,0,2,10,17,0
19.440797,5,5,3,4,2,-3,-17,-8,0
19.455160,8,5,2,4,1,1,3,29,0
19.455182,-19,-10,-5,-6,-3,-1,21,2,0
19.461089,-13,0,-1,-1,-2,0,7,21,0
19.461106,13,-1,-4,-2,-2,3,3,9,0
19.477562,-51,-7,-6,-1,4,-2,-3,-24,0
19.477580,14,-1,0,3,-3,-11,-12,11,0
19.478905,4,-1,0,1,1,-2,0,-20,0
19.478933,5,4,3,0,0,-1,-15,-6,0
19.499849,14,-1,-3,-4,-4,-5,-8,-15,0
19.499857,6,5,-1,2,2,6,7,49,0
19.501373,-27,-7,-2,-5,-2,-1,11,-33,0
19.501390,2,0,2,4,3,0,16,-11,0
19.515447,15,0,0,1,0,0,-11,2,0
19.515455,1,-2,-1,-2,1,1,4,-10,0
19.521190,15,0,-3,-3,-2,3,1,10,0
19.521214,-21,-2,0,-2,-3,-3,-16,20,0
19.537696,2,-2,-3,-2,0,-2,-5,16,0
19.537724,3,-2,0,-1,-2,0,5,-34,0
19.539441,12,1,-2,-4,-1,-4,-21,-39,0
19.539511,-18,-8,-4,-3,-4,1,16,-10,0
19.551109,-8,0,0,0,-2,0,-8,-1,0
19.551133,0,0,-1,-3,-1,-1,-6,-15,0
19.560830,20,7,3,7,4,2,9,38,0
19.560845,28,3,1,0,-3,-4,0,13,0
19.574640,-82,-15,-5,-5,-5,-3,-2,-26,0
19.574667,0,2,-3,-2,-2,0,2,-1,0
19.581489,1,-1,-1,-4,0,0,-7,2,0
19.581519,19,3,-1,-4,-3,-4,-11,-50,0
19.597579,19,-2,0,0,0,-1,13,-12,0
19.597602,3,0,-1,-2,0,-4,-29,-42,0
19.598958,-11,-4,-2,1,-2,-1,3,3,0
19.598975,5,-2,-5,-5,0,-3,-10,-8,0
19.611089,13,4,1,-1,0,0,-7,8,0
19.611106,-2,0,0,-1,-1,0,0,-8,0
19.621931,2,0,2,4,0,3,27,64,0
19.621941,-23,-4,-2,-4,-2,0,0,-24,0
19.634276,9,1,0,1,-2,-1,1,27,0
19.634301,3,0,0,0,-2,0,6,4,0
19.641621,-7,1,0,-2,-3,-1,-6,-6,0
19.641654,-5,-1,-3,-3,-1,-1,0,-26,0
19.657287,7,1,0,4,1,2,-8,24,0
19.657315,8,2,-1,-1,-1,-4,-23,-52,0
19.663820,-1,-8,-4,-3,-2,-2,-2,-45,0
19.663843,-26,-3,-3,1,-1,1,-11,-1,0
19.673382,20,0,-3,-6,-2,2,11,15,0
19.673390,-8,3,2,5,4,3,-9,44,0
19.680503,10,2,0,-2,3,1,4,9,0
19.680510,7,1,1,1,1,-4,-9,71,0
19.710026,16,1,-1,-2,-1,1,-2,-27,0
19.710043,0,6,4,6,1,-2,-34,-6,0
19.711447,-36,-4,-3,-4,0,0,-12,-49,0
19.711464,-4,2,4,2,1,-2,-13,28,0
19.717430,3,-6,-3,-2,-1,0,-3,-2,0
19.717457,-4,-3,-2,-3,-3,-1,12,78,0
19.723910,9,-3,-2,-1,-4,-4,-15,-116,0
19.723943,4,1,-1,2,1,0,1,-86,0
19.740015,1,1,0,-3,-2,-5,-12,-68,0
19.740043,-8,-2,1,0,-2,-5,5,-37,0
19.742648,1,1,0,1,-3,0,-3,61,0
19.742659,-4,-2,-3,-2,-1,-1,15,30,0
19.754805,5,-1,0,-1,-2,-3,7,-2,0
19.754843,-13,-6,-5,-6,-4,-2,1,-7,0
19.761154,-7,-7,-6,-5,-3,0,14,3,0
19.761178,1,-3,-2,-3,-1,-2,-1,-16,0
19.776854,-6,1,0,0,-1,0,-1,18,0
19.776874,0,-1,-2,-3,-2,0,5,-13,0
19.783750,4,-1,1,1,0,-2,-4,29,0
19.783774,12,-9,-6,-9,-7,2,19,-25,0
19.799916,-13,3,8,13,9,7,10,83,0
19.799936,-4,-2,-3,0,1,2,11,-57,0
19.801402,5,2,0,-1,0,-2,-2,-52,0
19.801419,20,6,4,3,1,2,11,36,0
19.814275,-18,-5,-4,-6,-5,-4,15,21,0
19.814285,11,1,3,1,-1,-1,17,27,0
19.821164,-10,-5,-3,0,-1,-1,6,70,0
19.821198,-22,-4,1,-3,-5,-3,-15,-13,0
19.836922,11,-1,-4,-6,-4,-4,2,-45,0
19.836947,-3,3,3,6,1,0,9,42,0
19.843777,-6,1,-1,-3,-2,-1,-4,-6,0
19.843805,0,3,1,3,0,-1,0,0,0
19.860326,-2,-4,0,1,0,-2,-6,-12,0
19.860335,-9,-5,-5,-5,-2,0,4,-7,0
19.861472,4,1,2,1,-1,-2,-8,-5,0
19.861487,15,-1,-4,-1,1,1,-5,-15,0
19.873731,-9,7,4,6,1,-3,-10,0,0
19.873762,-6,-7,-9,-6,-2,1,-5,17,0
19.884195,-29,-3,-1,-2,0,-2,-6,-37,0
19.884202,4,-1,-1,-3,-1,0,14,-18,0
19.896938,15,0,0,-2,-2,-4,-16,-40,0
19.896964,12,-1,-3,-5,-3,0,1,-11,0
19.903952,-6,-2,-2,0,0,-5,-14,-63,0
19.906442,-1,-3,0,-1,1,1,-5,2,0
19.920131,18,-1,-2,-3,0,2,-8,-17,0
19.920155,-7,0,3,1,0,-2,-5,2,0
19.922508,12,-3,-2,-2,-3,0,3,-1,0
19.922521,3,0,-1,-2,0,-1,-4,-10,0
19.933945,-6,1,0,2,0,-2,-2,7,0
19.933977,0,-2,-2,-1,0,0,5,-14,0
19.943927,16,1,-1,-1,0,1,7,19,0
19.943934,-13,-1,2,5,-1,-5,-5,22,0
19.957089,-11,-3,-2,-4,-5,0,-3,19,0
19.957125,13,4,2,3,1,-3,-22,-23,0
19.964028,0,0,-1,0,0,-1,7,0,0
19.964055,7,-2,-2,1,0,4,4,60,0
19.980090,-4,0,0,0,-1,-1,-8,-43,0
19.980114,-3,3,5,3,2,-2,-17,26,0
19.981895,7,-2,-1,-5,-2,1,4,-15,0
19.981908,-4,5,0,2,0,-2,-12,-26,0
19.993775,5,-1,-3,-5,-1,5,10,13,0
19.993800,-1,1,2,-1,-1,-2,1,2,0
20.002397,-9,0,2,1,1,0,-4,23,0
20.002438,4,-1,2,1,-1,-4,-12,-21,0
20.018476,-5,-3,-2,-2,-3,0,-6,-21,0
20.018484,3,-4,-5,-6,-3,0,9,-13,0
20.024057,5,6,0,-1,0,1,-2,8,0
20.024118,-24,-9,-5,-1,-1,-2,1,-53,0
20.040011,33,-1,0,1,-1,-4,11,31,0
20.040031,-32,-6,-4,-4,-2,0,2,-6,0
20.041819,10,2,1,-4,-4,-2,1,-47,0
20.041887,0,1,-1,1,1,-1,1,-5,0
20.054144,-6,-2,-4,-1,1,0,2,3,0
20.054171,32,0,-1,-2,-2,1,5,-12,0
20.064362,-30,-6,-2,-4,-3,0,-3,2,0
20.064369,0,5,2,-2,-2,-4,-14,-51,0
20.076995,-7,1,-1,1,0,0,-2,4,0
20.077014,-3,-2,-1,-1,-2,-2,-1,-17,0
20.084217,2,-2,-1,2,-1,-1,-2,24,0
20.084248,0,-4,-3,-6,-1,2,13,15,0
20.099930,-7,3,3,2,1,-2,-7,17,0
20.099947,-2,-5,0,1,0,1,1,12,0
20.101379,9,-1,-2,0,0,-2,-1,1,0
20.101393,-1,-2,-2,-4,-1,2,6,9,0
20.113913,-13,0,0,-3,-3,-2,4,-12,0
20.113923,-6,0,1,-1,-2,-3,-1,-4,0
20.123836,-2,1,0,3,1,-3,-7,12,0
20.123848,-4,2,0,1,-2,0,-1,42,0
20.136923,11,0,-2,-2,-1,-2,-8,-24,0
20.136947,-2,-2,-3,-3,-2,1,2,-18,0
20.143723,-15,-9,-5,-2,-2,-1,13,33,0
20.143744,0,-3,-1,0,-1,0,-7,-8,0
20.161453,7,-1,-3,-3,-1,-2,-1,-3,0
20.161462,-16,-1,1,1,-1,-2,-2,-21,0
20.161578,4,0,-4,-5,1,3,3,14,0
20.161586,-7,1,2,1,0,-4,-1,2,0
20.173670,2,-1,0,2,1,-1,-1,12,0
20.173692,1,-2,-4,-3,0,0,6,4,0
20.192024,14,3,2,3,0,-2,-5,-5,0
20.192036,-23,-6,-4,-3,-4,-2,-2,8,0
20.196898,-37,-6,-4,-4,-3,-1,2,-13,0
20.196919,4,1,1,0,-3,-3,-2,-2,0
20.203978,7,6,3,2,0,-5,-12,-5,0
20.206169,15,-3,-2,1,0,2,-1,3,0
20.220114,5,-1,-2,-3,-1,-1,3,0,0
20.220138,-9,-3,-2,-3,-1,-2,-4,1,0
20.222169,0,0,-2,-2,-2,3,5,14,0
20.222177,4,4,0,-2,-4,-2,0,11,0
20.233833,-10,1,1,1,-2,-2,-10,-1,0
20.233864,3,-2,-1,-2,1,2,3,9,0
20.244022,-5,-1,0,-1,-1,-1,-4,-4,0
20.244029,8,-1,-1,-1,-1,0,-1,-5,0
20.256853,7,-2,-2,-2,-1,2,5,-3,0
20.256863,2,5,2,3,-2,-6,-11,-6,0
20.263978,5,0,0,1,0,-2,-6,-9,0
20.263995,-7,-1,-2,-4,-3,0,2,-3,0
20.280796,13,1,-2,-1,-2,0,2,2,0
20.280820,3,-3,-2,-1,1,1,1,2,0
20.282308,-21,-3,0,0,-2,0,-1,-6,0
20.282315,1,-2,-1,-1,-1,-1,0,2,0
20.303217,7,-1,-1,-2,-2,0,4,-1,0
20.303223,2,0,0,1,1,-1,-3,4,0
20.303974,6,6,1,0,0,-4,-7,9,0
20.303996,11,-3,-1,-1,1,-1,1,3,0
20.318345,-12,-3,-3,-6,-2,-1,-2,-2,0
20.318352,-10,-6,-6,-3,-2,1,1,-2,0
20.323905,3,3,2,-3,-1,-3,-7,-15,0
20.323948,-2,1,0,0,1,2,0,-3,0
20.340043,4,-2,1,-1,-2,0,1,2,0
20.340068,-6,-3,-2,-1,-2,0,1,4,0
20.341991,0,-2,-1,-1,1,1,3,-5,0
20.342004,-3,-3,-1,-1,2,-3,-2,-4,0
20.353790,-1,-2,-2,-1,0,1,1,1,0
20.353816,9,5,1,-1,0,-3,-4,-2,0
20.363798,3,-3,-2,-3,-1,-3,2,-3,0
20.363811,-20,-3,-2,-2,-1,1,0,-1,0
20.376841,2,1,-1,1,2,-4,-8,-6,0
20.376861,-3,3,-3,-2,0,-2,1,3,0
20.383885,19,1,0,0,-2,-1,-1,5,0
20.383902,-27,-7,-4,-6,-5,-2,-1,-10,0
20.399914,2,0,0,1,1,-1,-3,2,0
20.399938,3,-4,0,-2,-1,-1,0,0,0
20.401550,-6,-3,0,2,0,1,-1,0,0
20.401556,2,4,0,-1,-1,-2,-1,11,0
20.413569,-6,0,1,0,0,1,-2,-3,0
20.413593,-1,-1,1,0,-1,-1,-2,-2,0
20.423720,-3,-2,0,-2,1,0,4,1,0
20.423731,4,-1,0,2,-1,0,-3,2,0
20.437351,0,-1,-1,-4,-1,-2,1,-2,0
20.437380,6,-1,0,0,0,1,1,4,0
20.443589,-8,-7,-5,-3,-2,0,-1,-2,0
20.443610,6,2,1,0,-1,-2,-3,-6,0
20.460103,-4,0,-1,-2,1,0,0,0,0
20.460114,-7,0,-1,-3,-1,-1,-2,2,0
20.461424,6,3,0,-1,-1,0,-4,-2,0
20.461439,-3,-4,-3,-1,0,0,1,10,0
20.476038,-2,-4,-3,-2,-3,0,0,0,0
20.476049,2,-3,-1,-6,-3,2,5,3,0
20.483610,3,3,3,6,4,-2,-10,-5,0
20.483618,2,0,0,-4,-3,0,0,-6,0
20.497035,1,0,-2,-4,-3,-2,-2,-11,0
20.497056,-3,0,-1,0,1,-3,0,2,0
20.503922,-3,-4,-3,-1,-3,-1,1,-1,0
20.504032,9,-2,0,1,0,-1,-2,-5,0
20.519295,-5,-3,-1,0,-1,-3,1,4,0
20.519319,2,-2,-2,-5,0,-3,-1,0,0
20.521364,3,0,-1,-6,-2,-2,3,-5,0
20.521382,-1,0,-1,-1,0,-1,-1,11,0
20.542154,-5,2,-2,-3,-2,-3,0,8,0
20.542175,-2,-3,-1,2,1,1,-4,2,0
20.543600,-3,-1,-1,0,-3,-3,-1,-2,0
20.543672,-14,-6,-3,-3,-3,-4,-2,-7,0
20.557987,8,4,3,1,1,2,0,-3,0
20.558011,-13,-9,-7,-5,-3,-1,-2,2,0
20.563857,-7,3,0,1,0,0,-2,-1,0
20.563882,7,1,-2,5,-1,-1,1,1,0
20.578881,2,-1,0,3,-1,-2,-3,4,0
20.578914,2,2,0,2,-1,-1,-2,-8,0
20.586135,-1,-3,-2,-1,0,-1,0,-8,0
20.586150,0,1,-2,-4,-1,1,2,9,0
20.602471,-3,-2,-2,-3,-3,-1,-2,2,0
20.602479,2,-1,-2,2,1,0,-2,-2,0
20.602482,-5,-5,-3,-3,-5,-4,-2,-2,0
20.602485,7,1,0,-2,0,-1,0,0,0
20.618914,-9,-3,-4,-1,-1,-1,-1,11,0
20.618921,-6,1,-1,-4,1,1,0,-2,0
20.624056,0,-1,-2,-4,-3,0,0,-4,0
20.624085,-5,-3,-1,-1,0,-2,-3,-20,0
20.639069,6,2,0,0,-2,0,0,-15,0
20.639103,3,2,1,5,-1,0,-1,-7,0
20.646348,-8,-1,-3,2,-2,0,0,5,0
20.646372,-9,-5,-2,0,-1,0,-4,-5,0
20.661747,-1,-1,1,0,1,0,-1,6,0
20.661763,0,0,2,1,-1,-1,-1,11,0
20.663330,1,0,0,-4,1,-2,1,2,0
20.663342,8,3,3,-2,1,0,0,-3,0
20.678986,-6,-3,-3,-5,-1,-3,-3,-1,0
20.678994,4,1,-1,-2,-2,-2,0,3,0
20.684081,-2,0,0,-3,-1,0,-1,8,0
20.684105,-5,-2,-2,0,-2,-3,-1,2,0
20.698594,-2,1,2,3,-1,0,0,1,0
20.698618,3,1,-2,-4,-2,-1,-4,-22,0
20.714468,-3,1,1,3,0,-1,-1,12,0
20.714494,4,-3,-2,-1,-1,0,-2,-11,0
20.722069,-2,-3,-3,-5,0,0,-2,-6,0
20.722096,4,0,-1,-1,0,0,-1,-13,0
20.724306,2,0,1,3,1,-2,-1,-7,0
20.724329,4,3,0,2,-1,0,0,11,0
20.739379,-16,-4,-3,0,0,-4,-4,-5,0
20.739387,-4,1,-1,-2,-2,-1,-1,4,0
20.743732,-2,-3,-1,-1,-1,-1,-3,1,0
20.743750,10,3,2,1,0,0,1,7,0
20.759723,7,0,-1,-1,0,0,1,0,0
20.759731,-5,-3,0,-1,0,-1,1,4,0
20.766245,1,-2,0,-3,-1,-2,-1,2,0
20.766275,-6,-1,-3,-4,-3,0,-1,1,0
20.781963,4,-1,1,-2,0,-1,2,4,0
20.781987,2,-2,1,2,0,0,2,5,0
20.783914,1,-2,-3,1,-1,0,0,-1,0
20.783919,-2,-2,-1,-3,-2,-3,-2,0,0
20.797672,-1,-1,2,-1,-2,1,0,-6,0
20.797688,-3,0,-2,-2,-2,-1,-1,4,0
20.804321,-2,-3,-3,-5,-3,-1,-3,-8,0
20.804363,0,2,0,0,1,-2,0,-3,0
20.823427,0,0,-2,0,1,1,0,3,0
20.823439,8,0,0,2,1,1,1,6,0
20.826250,-6,-4,-3,-1,-1,-2,-3,-1,0
20.826270,-10,-4,-4,-6,-4,-4,-5,-3,0
20.842223,-4,-1,-1,-1,-1,-1,-3,-2,0
20.842268,1,0,1,2,1,2,2,6,0
20.843568,3,-1,-3,-3,-1,-1,-1,-4,0
20.843574,2,-1,0,0,1,0,0,0,0
20.857636,1,-1,-3,0,1,-2,-2,4,0
20.857746,-5,-4,-5,-7,-5,-4,-3,-8,0
20.863799,-1,2,3,3,4,0,0,1,0
20.863826,0,4,5,5,3,3,2,-2,0
20.878668,6,-2,1,3,-2,1,-2,2,0
20.878691,-4,-1,-2,-2,-4,-5,-4,-9,0
20.886031,-8,-4,-6,-6,-6,-2,-3,-3,0
20.886047,0,-2,-4,-4,-3,-3,-2,-5,0
20.901709,0,3,1,1,-1,0,-1,-4,0
20.901725,-3,-2,-3,-2,1,0,0,1,0
20.903260,0,-2,-1,-5,-1,-1,-1,-2,0
20.903266,2,0,0,-1,-1,0,0,-2,0
20.917462,-3,-2,-1,-3,-4,-3,-2,-3,0
20.917496,-3,-2,0,-1,-2,-3,-2,1,0
20.923948,0,0,-2,1,-1,-1,0,-3,0
20.923992,-4,-2,0,1,-1,1,-2,-2,0
20.938822,-1,-2,-1,0,-2,-2,-2,-2,0
20.940867,1,-1,2,2,-1,1,0,-5,0
20.946126,1,1,1,1,2,0,-1,2,0
20.946146,-1,0,-1,2,-1,-1,1,-1,0
20.961842,-1,3,1,1,0,0,0,2,0
20.961864,-3,-1,1,0,-2,-1,-1,-1,0
20.962415,1,0,0,2,0,-1,-3,0,0
20.962422,3,1,-3,1,0,-3,-2,-2,0
20.977923,2,-3,1,1,1,0,1,8,0
20.977929,-3,1,-2,1,-1,-3,-3,0,0
20.984150,-1,-2,1,0,-3,-3,-1,2,0
20.984179,0,-1,0,1,-1,-1,0,1,0
20.999036,-1,-2,-1,-2,1,-2,-2,-4,0
20.999067,0,-2,-1,-1,-1,0,-2,0,0
21.006332,0,1,0,0,-1,0,0,-1,0
21.006358,-7,0,-2,-2,0,-2,-1,1,0
21.022109,0,0,-4,-1,-2,-2,0,2,0
21.022126,4,-2,-2,-2,0,-1,1,-3,0
21.023577,-14,-4,-2,-2,-2,-1,-2,-3,0
21.023586,4,0,-2,-2,0,-1,-1,-4,0
21.039281,0,-1,-2,-2,-1,0,-1,-3,0
21.039291,-4,-1,0,-1,-1,-2,-2,2,0
21.043627,5,-2,-2,-2,-1,1,0,1,0
21.043698,-11,-1,-2,-2,-1,-1,-2,2,0
21.058956,-24,-3,-3,-3,-1,-3,-4,-19,0
21.058983,2,1,0,0,0,-2,0,1,0
21.066054,-2,-3,0,-1,1,2,0,-3,0
21.066071,6,-2,1,-1,0,-1,-5,-2,0
21.081735,8,5,0,2,0,0,1,1,0
21.081751,11,-2,-1,-3,0,-2,2,12,0
21.082805,-54,-7,-5,-5,-4,-3,-5,-19,0
21.082811,12,0,0,-1,0,-1,-1,-2,0
21.099615,4,0,-1,-3,-1,-1,-1,-2,0
21.099623,7,1,-2,-2,-2,-2,2,-5,0
21.104107,27,10,6,8,7,6,-3,74,0
21.104133,-5,-3,-2,-3,-2,-2,-4,-24,0
21.119220,-1,-1,1,-1,-1,-2,-2,-14,0
21.119253,-5,-4,-2,-1,0,2,3,10,0
21.126469,10,2,-3,-5,-1,-4,-2,-22,0
21.126496,11,0,-3,-3,-8,-5,5,-55,0
21.142317,-8,-1,6,7,7,11,45,93,0
21.142339,11,7,7,5,0,-3,-10,33,0
21.144272,-14,1,2,2,-1,4,12,45,0
21.144278,9,-1,-2,-3,-1,0,0,-10,0
21.159522,6,-2,-5,-3,-4,-5,-7,-21,0
21.159532,-10,-4,-3,-3,-1,0,2,-11,0
21.163844,15,1,-1,0,-1,-1,5,-4,0
21.163902,-14,6,4,4,2,2,-5,50,0
21.178640,-2,-2,-3,-4,-1,-1,-13,-12,0
21.178657,-2,-2,-3,-3,-1,-2,-3,-5,0
21.186501,0,-2,-1,-2,-2,-4,-10,-15,0
21.186526,-21,-2,-3,-2,0,1,-6,37,0
21.201906,-9,-2,2,0,1,1,6,47,0
21.201930,10,-2,-2,-3,-2,-1,-1,-21,0
21.203323,-4,-5,-5,-2,-2,-1,-14,-61,0
21.203329,4,-3,-1,1,-1,-1,4,-1,0
21.218449,-1,2,-4,-1,-2,-3,-5,-38,0
21.218458,-4,6,2,3,0,0,2,27,0
21.223925,10,-5,-1,-2,-2,-2,-3,-28,0
21.223955,-7,-3,-2,-2,1,0,-4,-11,0
21.238744,13,-6,-9,-11,-13,-16,-26,-85,0
21.238762,-23,-12,-7,-6,-3,0,26,-30,0
21.246252,3,4,0,0,0,-5,-3,-41,0
21.246268,-3,-3,-1,0,-1,0,-4,-13,0
21.261811,9,-1,-2,-4,-3,-4,-11,-14,0
21.261829,-7,1,0,0,-2,1,-7,4,0
21.262394,2,1,2,1,-1,0,-7,46,0
21.262402,9,1,-3,-2,0,2,9,-2,0
21.278203,17,4,2,1,3,1,-3,3,0
21.278219,-5,-6,0,0,-3,0,0,14,0
21.283596,-3,3,3,3,2,1,5,48,0
21.283622,-1,0,-2,-1,-1,-6,-37,-48,0
21.298738,-3,-1,-1,1,-1,2,-2,-20,0
21.298769,16,6,0,-1,0,-1,-7,-30,0
21.306302,4,-1,-2,-3,-4,-3,4,7,0
21.306323,6,1,1,2,3,4,23,88,0
21.323206,1,0,-2,2,1,3,4,6,0
21.323214,-11,-7,-4,-3,-2,-1,-6,-14,0
21.323218,6,-3,-3,-5,-3,-2,2,-28,0
21.323221,8,3,-3,-6,-3,-3,0,-69,0
21.338563,-10,-9,1,1,0,2,18,58,0
21.338571,-24,0,-1,1,-1,-2,0,-19,0
21.343770,6,-1,-3,-1,0,-2,-2,-15,0
21.343796,-11,-1,2,0,-1,-1,2,-23,0
21.358919,-3,1,0,-2,-1,-1,-9,-10,0
21.358942,0,-1,-1,-2,-1,-2,-7,-7,0
21.366189,-2,-4,-1,-1,0,-1,4,4,0
21.366205,-2,-7,-1,-4,-3,-6,-9,-25,0
21.382145,-11,-2,-1,-3,-2,-3,-10,-42,0
21.382177,-11,-1,-1,0,0,-1,-3,-11,0
21.384459,10,6,-1,-2,-1,-1,-8,-35,0
21.384467,-1,-1,0,1,-1,1,13,15,0
21.399357,-58,-7,0,-2,-1,0,-15,-3,0
21.399364,10,0,-2,-2,-2,1,8,10,0
21.404183,3,-5,-2,1,1,1,3,-28,0
21.404213,-4,3,0,-1,-2,-1,0,33,0
21.418698,11,3,-2,-1,3,4,3,37,0
21.418720,-5,0,-1,-2,-1,-3,-2,-17,0
21.426202,2,0,-2,-1,-1,1,11,5,0
21.426221,-7,-5,0,1,1,2,5,53,0
21.442140,22,-3,-5,-4,-2,-1,2,-20,0
21.442174,3,5,6,6,4,2,-12,94,0
21.443704,3,0,-2,-4,-1,0,-6,-54,0
21.443712,-1,-1,-3,-1,-4,2,-1,-25,0
21.459276,27,7,1,2,0,-2,7,1,0
21.459282,-13,-5,-2,0,-3,2,10,17,0
21.463649,3,-5,-2,-3,-1,-2,-1,21,0
21.463666,-41,-3,-3,-5,-4,-4,-5,-13,0
21.478604,14,2,0,-1,1,-2,-28,-1,0
21.478620,13,-8,-3,-2,0,-1,-8,-33,0
21.486569,-8,-3,-2,0,-1,-1,1,3,0
21.486592,10,3,-1,-3,-3,-4,-6,46,0
21.501797,5,-2,0,-2,-4,0,5,-69,0
21.501820,-5,-7,-6,-5,-1,-3,-6,-81,0
21.504264,8,-4,0,-1,-3,-1,2,-41,0
21.504279,-15,-5,0,2,0,-3,-6,5,0
21.519363,-5,0,1,-2,-5,-6,-11,-51,0
21.519371,13,6,1,1,-1,-1,-1,17,0
21.523874,1,3,-1,-3,-2,1,6,2,0
21.523915,3,-6,-5,-1,-2,1,14,37,0
21.538963,-9,-2,-2,-2,-2,0,8,31,0
21.539002,-4,1,0,-2,-1,-1,-3,-30,0
21.546182,0,4,3,1,3,0,0,11,0
21.546281,19,0,0,1,1,5,20,42,0
21.561224,-16,-4,0,1,1,-1,1,-53,0
21.561243,27,1,-4,-4,-1,-2,7,-11,0
21.569151,-56,-9,-3,-3,-1,0,-2,20,0
21.569175,20,2,-1,-2,0,-4,-13,-76,0
21.577532,1,5,2,1,1,2,7,90,0
21.577548,2,1,1,4,0,0,-4,28,0
21.583867,2,3,0,-3,-3,-1,5,-14,0
21.583892,-10,-2,-3,2,3,3,-3,69,0
21.598570,-5,-2,-3,-2,-2,-1,-2,-28,0
21.598588,-3,1,0,-1,-1,-1,-5,-36,0
21.606189,13,1,-2,-1,-2,-3,4,31,0
21.606207,-10,-2,-1,-3,-2,-4,-3,18,0
21.622450,1,0,-2,-2,-1,1,4,21,0
21.622457,1,2,-1,3,2,-2,-9,60,0
21.628646,-2,-5,-4,-1,-3,0,-11,-23,0
21.628670,17,1,-1,-2,-3,-3,-7,-79,0
21.646790,-11,-4,0,0,3,0,3,7,0
21.646802,-6,-3,-3,-4,-1,-1,10,-53,0
21.652311,6,7,5,1,1,-4,-23,9,0
21.652351,1,0,2,-2,-1,-2,-5,-66,0
21.658866,-8,-3,-5,-1,-2,0,0,-5,0
21.658887,1,-2,-1,-5,-5,-3,-3,-16,0
21.666194,-5,-1,0,0,0,-1,0,-7,0
21.666218,1,-3,0,-1,1,0,1,1,0
21.681457,0,1,0,2,-1,-2,1,21,0
21.681481,11,0,-3,-2,-3,-1,-1,6,0
21.688692,-6,1,-1,-1,-2,-2,-1,-28,0
21.688716,-6,-1,-3,-1,-1,0,-11,9,0
21.704615,7,0,-1,-3,-2,-1,7,-11,0
21.704651,-11,-2,0,3,-1,-1,-2,21,0
21.706784,-2,-4,-5,-4,-1,0,3,7,0
21.706792,1,4,2,-1,-2,-2,-2,-35,0
21.718607,5,-1,0,-2,-1,-3,0,-1,0
21.718631,4,6,5,1,-1,-2,-12,-11,0
21.726132,-4,-6,-2,-1,0,-1,4,-1,0
21.726149,-7,-3,-3,-2,-2,-1,9,26,0
21.741436,5,3,2,2,-1,-2,-6,5,0
21.741485,-9,-3,-3,-1,0,-2,-1,-2,0
21.748813,1,1,-2,-1,-2,1,1,4,0
21.748829,-2,-3,-5,-5,-2,0,5,-37,0
21.764277,0,-3,1,1,0,2,-2,0,0
21.764293,-24,-4,-2,-2,-3,-1,-1,-7,0
21.765428,17,1,1,2,0,0,-1,8,0
21.765433,8,-1,-3,-3,0,-2,5,3,0
21.778677,-3,2,0,2,1,-3,-4,-12,0
21.778703,-2,-3,-3,-2,-1,-1,1,42,0
21.786251,0,-4,-3,-3,-2,1,4,9,0
21.786274,8,3,3,1,0,-4,3,-71,0
21.801395,-20,-8,-5,-3,-3,-1,11,3,0
21.801418,10,-3,-2,-5,-2,0,-3,-35,0
21.808822,-10,1,1,1,-2,-4,-10,-14,0
21.808841,11,-1,1,5,4,3,1,20,0
21.824717,6,-1,-3,-2,-2,-2,3,-3,0
21.824764,-6,-3,-1,1,-2,0,-1,0,0
21.826521,7,0,-2,-2,0,0,6,1,0
21.826533,0,2,2,-2,-3,-3,-6,7,0
21.838764,-15,-5,-4,-4,1,0,-2,0,0
21.838795,4,1,2,2,-1,0,0,5,0
21.846125,9,3,-1,-2,-1,-2,-1,5,0
21.846241,-22,-4,-1,0,1,2,-4,13,0
21.861113,0,-1,-2,-4,-1,0,0,13,0
21.861137,43,3,-2,-2,-2,-3,-6,-69,0
21.868831,-44,-13,-4,-2,0,3,8,43,0
21.868855,1,-1,-2,-1,-3,-1,-12,2,0
21.884413,11,4,1,0,-1,-1,-14,-17,0
21.884437,-3,-1,0,0,0,2,-11,-37,0
21.886184,14,1,0,-3,-2,0,-3,51,0
21.886197,-6,-4,-1,-1,-1,1,-12,-9,0
21.898626,-4,1,0,-4,-3,0,-7,-13,0
21.898649,-9,0,1,2,0,-1,-3,-2,0
21.906966,7,2,-1,-1,-1,-2,-1,-10,0
21.906973,0,-1,0,0,-1,-2,1,6,0
21.923682,0,0,1,1,-3,-1,3,4,0
21.923693,-23,-6,-4,-6,-3,-2,8,19,0
21.928717,7,7,5,4,-1,-3,-13,-18,0
21.928736,-11,-6,-3,-5,-3,-1,5,1,0
21.944371,14,0,-2,-2,0,0,6,-9,0
21.944388,-9,2,3,3,2,-1,5,68,0
21.945654,6,-5,-5,-1,0,1,4,-11,0
21.945667,3,0,-1,0,-1,-2,-3,3,0
21.958935,-2,0,0,-3,0,1,-4,-4,0
21.958955,-29,-8,-3,-1,-4,-2,8,38,0
21.966116,5,3,0,-1,-1,-3,-7,-20,0
21.966140,-15,1,0,1,-1,-4,0,-36,0
21.981305,8,-2,-1,2,0,-3,-13,-9,0
21.981323,5,-1,-3,-5,-4,-1,11,-39,0
21.988655,2,5,1,1,-1,-1,4,-1,0
21.988678,-18,-9,-6,-3,-1,0,-1,-1,0
22.004319,-10,-1,-2,-2,-2,-3,-4,-15,0
22.004341,5,2,3,1,3,0,-11,37,0
22.005934,-11,-4,-1,-1,-2,-3,0,-26,0
22.005941,26,5,1,-1,-1,0,-4,1,0
22.019969,-3,-2,-3,0,-1,2,6,15,0
22.019981,1,0,-4,-2,-1,-1,-3,0,0
22.026448,4,-1,1,0,-1,1,3,5,0
22.026478,6,1,0,1,0,1,0,23,0
22.041559,-20,-5,-1,0,0,-1,-2,0,0
22.041601,10,1,0,-1,0,1,-4,-23,0
22.057049,-9,-3,-2,1,0,-1,-4,-3,0
22.057226,3,1,-2,-3,-4,-3,-3,-3,0
22.064413,12,-2,-3,-2,-3,-3,4,-8,0
22.064430,-9,-1,-2,-2,1,-3,-3,-4,0
22.065335,-10,-4,-2,-3,-1,-1,-4,-2,0
22.065358,0,5,3,2,0,-2,-10,13,0
22.078634,0,-2,0,0,0,-2,-9,12,0
