Timestamp_ms,Channel_0,Channel_1,Channel_2,Channel_3,Channel_4,Channel_5,Channel_6,Channel_7
151,0,0,0,0,0,0,0,0
202,0,0,0,0,0,0,0,0
260,0,0,0,0,0,0,0,0
318,31,24,7,9,24,29,11,34
370,4,0,-8,-12,-32,-20,-3,-27
427,11,5,3,0,1,1,7,54
479,-24,-27,1,4,4,0,-8,-45
543,26,17,4,5,13,14,11,54
603,5,0,2,1,4,0,-10,3
655,3,7,-7,-15,-24,-6,-6,-21
708,-36,-27,-6,-4,-5,1,11,12
761,6,2,-3,-8,-8,-6,-11,8
817,-7,4,-13,-20,-66,-54,-8,8
866,-10,-6,-1,-2,-1,-2,-11,-20
922,0,-7,-5,-4,-4,-6,12,12
984,4,-7,-4,-2,-3,-8,-5,-4
1046,-20,-18,-3,-6,-11,-18,-28,-31
1110,15,9,2,0,6,7,18,-23
1159,13,12,7,6,10,6,5,-28
1210,-4,-5,-8,-3,-4,-3,5,-16
1264,9,-2,4,0,-6,-5,-14,52
1317,-17,-19,0,-1,-9,-18,7,11
1370,-2,-23,0,5,6,-3,8,26
1426,1,14,15,14,24,14,14,4
1481,29,24,5,9,12,9,11,12
1533,-1,1,0,-2,-13,-10,3,-8
1589,-19,-17,-4,-3,-13,-18,-13,-17
1645,-12,-7,-2,-1,8,7,4,3
1707,14,15,6,8,24,15,13,-44
1759,-1,2,-5,-3,-2,1,6,-45
1812,-16,-7,-2,-5,-10,-14,-11,-58
1865,-15,-29,-1,2,12,0,-1,23
1926,10,2,3,3,20,27,1,23
1990,-15,-9,-3,-4,-4,-1,-11,-64
2051,1,-9,10,11,33,27,-7,-22
2102,-4,-7,1,-2,-1,5,15,-13
2166,2,1,1,3,18,11,10,75
2226,8,0,4,-1,-9,-9,-17,-9
2289,-7,-2,-1,-4,-11,-9,2,-3
2360,44,40,2,-2,-2,14,12,14
2412,25,18,0,1,-3,-10,5,26
2473,-7,0,3,-4,-3,-9,-9,-43
2527,9,9,1,-3,-6,-3,3,-24
2590,-19,-12,-1,2,19,13,-9,-27
2654,12,9,5,9,27,16,1,19
2713,-8,5,-6,-12,-25,-20,2,-11
2764,11,5,1,-2,2,6,14,-3
2817,-5,3,-4,-7,-14,-11,-2,-21
2868,6,7,3,0,-9,-12,3,2
2920,1,1,-1,3,16,15,-14,-77
2974,0,12,-5,-8,-29,-36,-19,-54
3032,8,5,5,8,19,17,-2,-40
3094,1,-2,-1,-1,1,3,9,18
3154,8,11,0,-4,-2,6,9,28
3207,-27,-19,-7,-9,-16,-4,34,18
3269,-6,-12,0,3,1,1,1,63
3331,-2,4,-3,-5,-21,-12,-5,-20
3394,19,16,8,16,39,38,23,11
3454,-3,3,-11,-12,-43,-59,-8,6
3514,23,10,6,8,13,11,-4,2
3567,-15,-8,-3,-11,-43,-39,-21,-49
3631,0,8,0,-3,1,3,-7,-12
3695,-25,-14,-4,-2,-2,-1,2,28
3755,35,29,-4,-5,-5,-7,5,27
3815,-12,0,-4,-6,-7,-7,-15,-31
3868,-1,-5,0,2,4,-3,-16,-26
3922,-5,14,1,4,-5,-11,-5,-93
3978,6,2,0,2,15,13,14,12
4034,-11,-18,-2,-1,-5,0,6,2
4090,0,-5,-12,-12,-21,-15,18,22
4137,5,2,9,8,13,11,-2,-3
4195,-2,-15,-4,-4,-12,-7,-11,-12
4263,-7,-13,-2,4,10,5,-5,10
4320,21,5,3,4,14,13,14,59
4369,-7,-7,-2,-2,-4,-4,-1,14
4420,-8,18,3,2,-5,-14,-25,3
4473,-3,3,1,-3,-4,-1,10,-12
4527,3,-9,-4,-3,0,0,6,-26
4579,3,-4,-6,-9,-11,-10,-8,-23
4638,19,10,11,9,30,25,17,-7
4699,1,-5,-5,-4,-12,-14,3,0
4759,2,-2,-1,-1,-5,1,-2,2
4812,-19,-34,-4,-2,1,-1,-18,-65
4873,-4,-3,5,3,-1,-1,-14,-38
4936,3,3,11,22,55,33,-1,37
4998,6,4,-5,-7,-10,-7,3,32
5060,-16,-28,1,-7,-18,-11,-11,-21
5118,-29,-14,-11,-7,1,-4,-13,-12
5172,-9,-13,-1,10,45,0,10,-10
5224,46,27,10,21,22,15,8,6
5279,-35,-8,0,2,5,8,11,-55
5329,15,8,5,7,-9,6,14,-21
5382,-15,-11,-8,-1,-6,-10,13,-83
5442,-37,-3,0,-34,-42,-18,1,-15
5503,-28,-50,-3,6,28,44,2,7
5563,8,0,-4,-9,-16,-8,23,28
5613,21,-7,-7,-10,6,15,12,55
5676,22,8,-8,-16,-37,-13,8,31
5739,8,-5,17,25,49,29,3,-17
5802,-74,-38,-24,-26,-59,-37,-16,-10
5862,-55,-37,-3,3,14,9,11,0
5922,30,-3,-7,-12,-16,2,21,29
5973,1,-1,2,2,8,3,-5,-2
6038,7,-12,-10,-20,-61,-41,-8,-6
6101,-12,9,6,1,8,8,-3,-12
6163,27,7,2,5,9,9,3,51
6223,0,5,1,2,13,9,-3,-6
6281,-3,-1,7,6,15,14,3,1
6339,27,6,-6,-10,-16,-6,1,-4
6385,2,0,-4,-5,-13,-14,-19,-1
6439,1,2,2,6,16,20,17,3
6489,-8,-6,-8,-4,-3,-2,-3,-2
6546,9,4,3,7,23,22,1,25
6600,1,-7,-5,0,-1,7,4,-1
6663,-2,-11,-1,-1,-25,-26,-15,17
6724,9,18,0,0,-7,-5,19,-25
6776,10,11,4,11,24,20,7,1
6838,-21,-4,-8,-19,-48,-37,-27,-17
6888,22,25,10,3,7,13,10,33
6940,3,-8,3,5,11,6,-7,-11
6993,-28,-24,-18,-24,-48,-30,-18,-31
7052,-11,0,-4,-4,-10,-7,0,4
7106,-4,-10,-2,-2,-1,0,-6,-4
7167,-83,-64,-21,-19,-45,-32,-10,-35
7227,-4,-10,-23,-34,-84,-41,-16,-17
7281,-37,-4,2,0,1,7,0,7
7345,-9,-6,-3,-4,-3,-2,3,-20
7406,-7,2,-11,-23,-60,-42,-11,-14
7466,-52,-15,-3,2,14,10,-14,-9
7517,22,1,-3,-8,-27,-30,-17,6
7570,-7,12,-6,-13,-30,-18,-3,-34
7626,-12,-7,-3,3,-2,-10,-12,-33
7676,7,-5,2,1,3,-3,-9,-3
7728,-14,3,11,10,13,1,-7,7
7785,28,17,6,1,2,-1,2,14
7832,-45,0,1,12,17,4,-7,-21
7886,9,4,-5,-3,-2,-1,-11,-37
7944,25,5,-1,3,12,12,5,0
8008,30,5,-6,-6,-16,-13,9,30
8068,5,-2,-12,-22,-42,-33,-7,-13
8128,-7,-1,2,4,16,15,-2,-8
8178,21,15,-3,0,2,1,-8,1
8232,-21,-6,1,5,21,9,1,5
8284,-1,7,-4,-7,-17,-12,-7,-73
8336,27,5,9,6,20,17,5,31
8388,15,7,0,0,5,3,-7,12
8446,-73,-41,-24,-26,-81,-75,-40,-69
8509,-12,-1,0,-1,-4,-8,-9,-17
8569,9,-4,-6,-10,-20,-16,-2,21
8620,8,-7,2,1,3,5,0,15
8673,15,8,0,-2,6,5,1,32
8730,29,1,2,5,5,0,6,-6
8777,4,-10,1,8,28,27,3,-7
8832,-17,-21,-9,-8,-6,-2,-10,29
8888,-6,-8,-7,-12,-53,-55,-12,14
8949,-3,10,0,4,17,15,2,-19
9012,-11,-8,-7,-12,-19,-12,1,-37
9072,1,-1,6,4,14,26,11,-15
9132,-4,-4,-8,-8,-18,-8,2,24
9183,8,6,-2,-10,-19,-10,6,36
9245,-4,-4,-2,-1,-4,-4,-18,-8
9308,-33,-28,-2,-2,-2,-7,-9,-35
9371,-10,-3,-1,1,2,4,1,4
9432,-23,-17,0,2,12,5,-7,-9
9491,9,3,1,10,18,12,11,-4
9543,-23,-17,-9,-7,-1,-1,-14,-44
9606,21,11,1,-4,-6,-5,15,1
9669,-28,-12,-7,-4,-2,-6,-2,10
9732,6,1,-4,-7,-45,-35,-16,-18
9792,-21,-20,-10,-3,-2,8,-10,-37
9842,11,-1,-1,-13,-24,-8,-12,12
9905,37,15,3,0,9,8,7,16
9949,-7,0,1,8,28,18,-7,6
10001,40,21,16,24,64,44,21,7
10055,-4,-10,1,8,30,27,10,8
10108,0,2,-11,-9,-6,3,1,-18
10169,-1,-12,-1,6,13,9,-8,-28
10231,-41,3,4,7,23,24,2,-25
10292,-54,-5,-4,-8,-11,-6,6,22
10354,-3,-6,-14,-20,-59,-42,-14,27
10414,-11,-2,-3,-9,-31,-27,-14,-45
10465,10,3,-5,-11,-22,-21,-5,-13
10527,9,-6,-3,6,16,6,-3,11
10588,2,4,8,15,34,25,18,-13
10648,-5,-10,-16,-20,-45,-41,-1,4
10692,-3,-5,-10,-12,-36,-29,-9,-20
10746,-4,-1,7,9,29,27,14,37
10797,-6,3,0,2,14,13,2,7
10856,10,19,-2,-7,-11,-2,-2,13
10917,13,23,8,2,-1,4,4,38
10977,10,8,-6,-1,-5,-9,-13,8
11030,0,-9,5,14,32,27,27,24
11093,7,-21,-1,0,5,8,2,4
11157,0,6,5,6,24,20,-11,9
11218,2,4,-3,-1,-2,-5,-11,1
11276,-15,7,-10,-21,-47,-41,-22,-41
11338,16,3,1,1,6,5,-8,-21
11401,3,-4,7,10,5,-9,-20,54
11464,16,-1,2,5,1,1,-2,-1
11527,-15,-4,8,14,28,17,3,-85
11579,-11,-9,-6,-9,-21,-24,-21,-46
11633,1,2,-9,-12,-23,-9,1,10
11697,11,-5,8,12,24,12,-27,-38
11757,-8,1,-4,-5,-7,-10,12,-8
11818,-9,2,-5,-5,-9,-8,-2,-8
11869,-2,0,-3,-4,-14,-10,-2,-9
11920,1,3,3,6,28,22,9,-20
11973,9,17,-1,-4,-14,-12,9,15
12035,-7,7,4,10,22,12,-15,-12
12079,-24,-14,-7,-7,-12,-12,-15,-51
12139,5,0,-6,-5,-1,-1,-3,8
12199,5,17,2,3,2,5,7,-6
12259,7,-19,-3,2,2,3,-3,12
12309,8,0,-1,-3,-3,0,2,30
12371,-21,5,-16,-29,-76,-70,-26,-34
12433,16,-6,6,11,41,32,-3,-28
12497,-19,-5,-7,-9,-16,-12,7,2
12560,-16,-27,-8,-5,-22,-25,-1,-3
12619,14,12,9,12,31,22,-2,10
12670,-5,-10,-4,-3,-3,-7,12,-17
12734,15,8,-3,2,11,5,-4,-31
12796,31,23,7,13,22,17,1,68
12858,-7,-7,-1,5,12,8,-1,-9
12919,0,-2,2,-3,2,-4,-1,30
12980,4,2,-1,-3,2,3,0,15
13043,-4,-6,3,0,7,6,0,31
13085,1,-1,0,3,16,11,-2,-23
13139,-31,-34,5,2,6,10,0,2
13191,-19,1,-4,-5,-5,-1,-6,-19
13242,1,1,2,3,2,6,11,33
13303,6,-10,4,4,0,-1,0,-3
13361,-3,-6,-7,-8,-54,-54,-15,10
13414,-6,0,3,8,24,20,15,-10
13478,2,-11,-10,-12,-37,-26,-4,-14
13537,-15,-7,2,1,-12,-14,-15,-13
13598,5,2,4,8,5,3,-2,74
13661,-15,-6,10,17,48,43,14,-35
13722,-28,-23,-6,4,20,11,2,29
13782,14,16,9,11,22,16,3,-17
13839,-15,-5,-12,-17,-34,-21,-9,-22
13885,8,-2,-11,-18,-39,-20,0,-14
13939,27,23,8,8,22,21,14,29
13998,-10,4,1,2,3,-4,-7,-29
14044,1,1,2,4,14,1,-12,-20
14099,-20,-13,-6,-9,-31,-27,-2,17
14163,7,11,18,24,62,42,8,-14
14227,12,12,7,10,29,25,2,1
14289,-10,-6,-1,1,5,3,18,7
14344,-29,1,-1,2,4,2,-9,-22
14396,-7,-9,-2,-4,-4,0,3,48
14460,0,-8,-1,1,19,16,17,12
14524,3,0,11,15,37,27,8,1
14584,21,11,8,6,14,12,7,76
14634,6,-1,-3,-6,-2,2,-14,14
14692,4,-6,0,-1,-4,-3,-9,3
14741,14,10,-11,-10,-32,-18,-8,8
14793,4,-5,-4,-2,0,10,6,34
14846,-4,2,3,5,14,12,4,8
14901,11,-10,4,6,32,20,7,-7
14965,-26,3,7,14,44,34,0,-14
15026,13,13,6,8,17,5,3,1
15076,-10,-3,-3,-1,13,20,0,-26
15135,-6,-7,-12,-16,-22,-12,-5,-8
15184,-18,-15,2,2,5,3,-6,8
15236,-3,-14,-11,-8,-18,-15,-6,21
15287,-14,-10,-1,2,1,-1,-4,2
15340,-14,-15,4,11,25,10,-12,-30
15394,-24,-14,0,-4,-11,-4,-4,14
15446,8,-1,4,13,30,19,0,12
15499,-4,-13,-5,-6,-13,-8,-6,4
15556,6,14,8,6,15,14,8,25
15603,5,7,4,10,32,24,2,-7
15655,9,20,0,-4,-16,-15,-2,-35
15715,4,3,2,7,-4,-18,-1,29
15767,-25,-13,-9,-12,-9,-4,8,17
15830,-1,-3,1,-5,-8,3,-5,66
15889,-10,-8,-4,-3,-13,-12,-14,18
15941,3,-14,-3,2,15,8,-2,16
15993,1,7,-1,1,4,0,3,-23
16047,7,6,0,0,1,4,3,18
16097,1,4,5,8,22,15,-6,-5
16155,-16,-4,-6,-3,2,0,0,-6
16203,7,-8,-12,-20,-63,-47,-9,36
16255,-17,-21,4,10,23,13,4,15
16308,1,15,1,-3,3,3,-31,-37
16367,19,7,10,8,20,18,17,1
16427,3,-5,-1,-1,-6,-3,-7,-7
16488,-16,-28,-7,-3,-3,-5,-5,31
16540,-7,-3,-1,-5,-1,14,-5,-31
16596,-15,-9,-1,-6,-6,0,-7,-5
16647,8,6,3,6,9,12,-9,-15
16696,-17,-4,-2,-3,-4,-5,-2,8
16753,-3,-15,2,-1,-4,-5,-1,-7
16806,14,8,-5,-7,-13,-6,-7,11
16867,7,0,-1,-2,-1,0,4,9
16929,15,1,3,8,21,16,6,-13
16991,2,13,4,6,13,10,-5,-1
17052,18,18,14,13,43,34,6,-2
17104,-2,-8,-1,2,7,9,-5,16
17162,-26,-17,-11,-12,-8,2,3,-39
17209,0,-5,1,3,8,4,-3,25
17263,-6,-14,4,2,15,11,12,39
17314,-4,20,2,4,0,-7,-12,23
17372,7,13,0,1,0,-4,-2,10
17433,0,13,-1,-1,4,3,4,-24
17494,-5,-2,-3,1,6,12,-2,-23
17554,-3,-12,-5,-4,-13,-11,-4,-30
17614,2,-1,2,9,29,20,6,22
17675,-4,1,-3,-4,-8,-4,10,37
17735,-6,-20,-10,-24,-74,-76,-21,-4
17787,-15,8,0,-1,12,16,4,-41
17849,-17,-4,6,10,26,13,3,-20
17914,6,5,0,0,6,4,1,-13
17974,-21,-21,-4,3,5,3,1,22
18034,2,1,4,5,14,11,-2,31
18088,-1,-6,-2,-4,3,10,-11,-78
18147,12,15,2,0,3,0,-3,21
18209,-1,-3,-7,-10,-16,-3,-2,4
18273,-3,-1,-7,-16,-30,-19,1,-7
18336,11,6,-4,-7,-24,-3,-10,28
18385,7,5,6,9,35,40,11,21
18447,3,15,8,5,26,27,6,3
18498,10,9,-7,-11,-36,-56,-29,-25
18551,2,1,3,1,8,12,2,-9
18608,4,3,3,5,17,14,2,16
18657,-3,1,0,3,7,2,4,2
18721,26,21,4,2,2,2,6,59
18776,-1,0,-2,-5,-40,-28,-3,5
18827,-24,-2,-10,-12,-63,-61,-24,-48
18888,2,-3,0,7,20,20,3,5
18949,-21,0,-10,-16,-38,-32,-11,-18
19011,8,4,-2,-6,-10,-1,3,-8
19073,5,14,-2,3,6,5,2,13
19135,-10,-20,-1,3,8,5,7,-8
19196,18,4,5,6,26,14,3,4
19255,-6,6,3,-1,-2,-3,0,-20
19310,-14,-3,-5,-5,-30,-32,-20,-35
19381,-2,-6,6,11,30,23,10,17
19441,4,2,-2,-1,-12,-11,5,3
19508,11,13,5,-2,-16,-32,0,12
19556,-10,-14,-5,-7,-32,-28,-27,26
19609,-11,4,0,10,31,25,15,34
19660,0,6,0,-1,5,2,4,0
19714,22,2,-6,-13,-36,-33,-4,-8
19768,4,36,3,-1,-8,-4,2,-4
19826,-16,-2,1,7,20,22,7,-4
19878,-28,-6,-18,-28,-84,-74,-22,-18
19939,-16,-15,-6,-6,-5,-3,13,19
19999,-23,-6,-2,-3,-27,-42,-17,-50
20053,-4,21,6,-7,8,26,16,-2
20116,-41,10,2,1,13,10,-8,-34
20180,20,1,7,-3,5,6,1,22
20238,-6,-20,-5,-14,26,16,14,18
20300,19,-8,-6,-16,0,3,-13,-7
20350,2,-18,-6,0,6,6,0,43
20403,-23,-1,-4,2,-3,-2,-5,17
20455,2,30,8,8,-5,-18,-6,-61
20509,51,50,7,-45,-40,-40,-1,39
20563,-7,1,3,-2,12,26,15,25
20618,-12,-7,1,9,19,27,-6,5
20682,34,22,2,2,6,-3,-5,-42
20742,20,2,-6,-5,-9,-9,11,70
20793,-6,7,3,-1,6,8,-1,20
20855,3,4,1,10,-1,-18,11,31
20918,-48,-14,-2,-11,-11,4,-17,31
20981,-4,-31,-12,-79,-38,-5,-8,-89
21041,12,1,5,7,4,1,-15,-38
21093,18,18,2,-3,11,22,53,3
21155,-25,-16,-2,-17,14,26,15,-89
21219,-22,-10,-9,-8,-6,14,7,-22
21282,-25,5,1,4,10,23,-14,27
21342,27,28,2,-6,-27,-34,18,-26
21392,-1,-1,0,-4,-9,-21,-17,-26
21447,-5,-2,-3,-2,8,19,9,-34
21501,-6,27,-5,-13,-47,-66,-25,-19
21549,6,27,7,-3,4,5,10,0
21603,-11,0,3,3,13,15,-15,-17
21661,-40,-42,-7,-2,-5,-9,23,23
21723,19,19,-3,-7,-23,-30,-15,24
21786,-14,9,-2,-7,-7,-5,-2,28
21846,16,10,-3,-3,-12,-6,-8,-21
21896,-5,-3,-3,-5,-5,-15,7,11
21957,-50,-35,-15,-18,-27,-5,-8,2
22020,6,-14,-2,4,15,14,1,-34
22085,8,-6,4,5,14,16,7,44
22145,-16,-3,-8,-4,0,-1,-22,-2
22199,9,2,1,4,8,6,-7,9
22247,6,1,1,-3,8,10,7,-29
22300,-18,9,0,-1,-4,-5,2,2
22354,26,35,3,17,61,74,51,33
22406,0,-7,-9,-7,-23,-30,13,-17
22465,-13,3,0,5,21,26,6,25
22527,-7,-9,-6,3,21,39,2,32
22588,11,16,0,-14,-38,-26,3,-8
22648,22,9,-4,-16,-46,-55,-19,33
22702,10,25,3,4,25,22,14,31
22764,2,6,-8,-12,-26,4,4,-34
22827,7,0,6,-1,-31,-60,-14,76
22891,0,-10,3,4,-38,-63,-33,-21
22946,-8,10,2,8,-5,-16,-15,-19
22998,10,-4,-1,2,17,18,-6,6
23052,-2,28,-2,-4,15,41,34,53
23110,-3,12,-11,-18,-84,-99,-28,8
23155,10,14,4,10,35,29,-1,-40
23211,12,3,-5,0,2,2,3,38
23271,-23,-16,-7,-2,14,19,0,-3
23328,-26,-20,-4,-12,-69,-84,-21,-58
23388,-22,-11,-7,-5,-30,-28,-10,-1
23440,-23,5,-5,-9,-22,-12,-12,13
23494,17,7,4,4,-17,-35,-5,3
23547,6,8,1,-5,-14,-4,-7,0
23599,20,10,-2,2,7,13,-3,11
23656,-21,-9,0,-1,3,-5,-13,26
23703,4,-2,3,5,20,17,6,41
23755,-5,-3,-4,-8,-23,-39,-13,-2
23817,36,25,2,9,40,43,28,36
23868,-7,-7,-5,-10,-32,-32,12,-11
23928,12,-19,1,-3,-14,-24,-25,-33
23990,21,6,-1,1,-4,-4,-6,2
24042,9,-5,-1,-1,1,12,5,6
24093,-1,-5,-6,-2,8,7,23,32
24146,-4,-3,-4,1,7,-2,0,11
24198,0,-5,1,1,-14,-17,5,-29
24261,-6,-7,2,4,24,26,7,3
24309,-12,-16,1,-8,-3,17,9,-1
24371,-18,-38,-16,-19,-33,-6,-16,-35
24432,-9,-9,6,9,17,14,-7,34
24486,-12,-24,2,2,12,21,1,50
24535,17,28,2,-3,-4,-6,4,34
24588,-19,-20,-9,-18,-56,-51,-27,-8
24642,0,13,-2,-3,8,9,3,-11
24702,-17,-12,-6,-4,-15,-12,5,49
24747,25,31,-3,-5,-29,-31,1,37
24803,-18,-23,-9,-16,-36,-38,-17,-72
24852,-24,-8,-12,-7,-10,-8,5,13
24912,-27,-21,-7,-1,4,-1,-8,-19
24971,-35,-47,-8,-5,-12,-21,-27,-15
25022,-3,-5,-4,-4,-16,-14,-4,3
25076,13,-11,8,5,21,29,10,57
25128,7,6,0,3,5,-20,2,-2
25181,25,14,2,1,4,9,-2,11
25234,9,18,1,3,-20,-35,4,-24
25287,7,38,4,-2,-9,-4,1,17
25350,13,12,2,5,32,35,18,21
25413,-1,13,-3,1,18,25,9,3
25474,30,38,2,2,-2,-7,-2,17
25527,12,4,-4,-4,-17,-17,-4,29
25589,-23,-7,-2,-1,-1,-2,-13,-42
25649,2,-2,1,-1,0,1,-5,59
25713,5,12,-1,2,23,28,12,-12
25775,19,2,-2,-1,11,14,-1,-14
25834,-31,-49,-8,0,10,18,19,22
25886,23,5,3,5,6,-1,-4,35
25948,-5,-5,0,-2,-6,-18,-9,3
26011,21,15,-2,-4,-15,-15,0,3
26074,-11,-1,-9,-12,-37,-38,-9,-13
26134,19,17,2,3,5,7,-9,59
26186,0,10,1,4,17,9,14,-26
26246,26,29,3,4,7,7,0,14
26292,6,3,2,4,8,-5,7,0
26345,-20,-38,-5,-8,-21,-18,-10,-35
26396,-40,-34,-2,5,12,3,10,-9
26454,1,0,0,1,1,2,8,-13
26516,15,15,4,3,2,-4,-2,51
26567,16,14,-1,-4,-9,0,12,65
26630,2,-7,5,-1,16,29,2,-14
26694,0,10,1,-3,3,12,5,-41
26756,15,23,6,8,9,-4,10,-25
26818,5,-5,-2,-3,-1,7,4,25
26880,4,-11,-6,-7,6,22,7,52
26928,-10,-3,4,4,13,12,1,11
26980,-20,-32,6,6,23,23,1,-44
27033,-63,-45,2,2,7,8,8,-23
27087,7,4,-2,0,12,16,4,-16
27138,10,16,1,1,2,5,3,-13
27201,15,15,1,2,7,9,-9,12
27266,-2,4,-4,-7,-19,-1,1,-18
27332,18,-6,3,8,32,35,6,8
27370,-12,-21,-8,-8,-7,-2,5,30
27435,-4,11,-7,-18,-78,-74,-17,-14
27496,16,11,-9,-4,2,-2,3,-11
27560,8,0,1,3,0,3,5,45
27625,-2,2,0,0,18,22,-5,3
27670,0,-4,-5,3,6,14,11,22
27733,-1,-4,-6,-6,-8,-23,-22,-38
27796,-8,-3,-1,4,14,6,-8,9
27860,13,-2,-6,-8,-9,-1,1,4
27918,-16,-10,-3,1,15,21,-5,-20
27983,24,3,-2,-5,2,-1,2,9
28034,-8,13,-4,-9,-29,-19,-5,-35
28098,-10,8,-5,-2,3,10,-2,-54
28159,15,-1,0,-4,-4,7,-11,2
28219,2,4,1,4,24,28,0,-19
28272,-9,-29,-6,-2,-19,-14,0,-8
28323,-3,-6,1,2,2,7,16,29
28375,-7,-9,-4,0,5,9,-3,-39
28427,0,-2,-10,-29,-64,-49,-1,14
28483,2,-1,-5,-7,-5,9,1,-29
28537,3,-4,1,7,28,39,12,-7
28600,-15,-16,-8,-5,-16,-21,-6,20
28661,-9,0,-2,1,-7,-20,-17,-22
28712,4,4,5,8,24,25,4,-22
28776,-15,-6,2,6,21,25,0,-14
28837,0,-2,-3,-1,4,2,8,-15
28900,14,-3,-1,-2,-11,-23,-5,27
28954,-8,-8,-6,-7,-11,-5,10,-11
29008,8,-15,3,2,-1,1,13,39
29057,14,-2,-5,2,6,10,5,28
29119,-14,-16,-3,7,40,16,-5,-38
29179,-27,-5,-16,-4,12,8,8,8
29230,1,-1,1,-5,-38,-46,-10,-20
29284,3,-1,-4,-4,0,15,17,-4
29341,9,7,4,2,-3,-14,5,15
29403,-15,-12,-3,-3,-3,3,-1,-30
29464,-9,-6,-7,-8,-13,-7,-1,42
29529,9,7,-4,-4,4,11,6,-6
29577,14,6,1,-4,-9,-4,7,-41
29639,-1,4,1,0,-6,-25,-13,46
29704,2,3,-2,4,19,20,6,-11
29764,-5,1,3,5,21,16,-1,10
29826,-5,-2,0,0,-8,-19,-15,-16
29877,-5,-8,-5,-4,-15,-13,-5,-31
29927,-36,-27,-2,4,3,-2,-9,1
29986,-9,-6,12,8,22,3,6,-38
30035,-34,-41,-6,-1,-4,-1,-2,-37
30088,12,7,-1,1,14,22,9,-2
30148,-17,5,-1,-1,6,1,-11,-16
30206,19,22,8,4,11,11,-7,5
30267,17,11,-3,-1,-2,-7,11,-36
30326,16,-2,-7,-11,-26,-14,6,54
30379,11,13,4,5,17,18,5,5
30442,26,9,0,1,9,10,-4,-33
30504,9,4,0,-2,-23,-29,-17,-17
30565,-14,-10,0,3,12,13,11,10
30628,6,-2,-6,-5,-18,-22,-27,-18
30682,10,16,1,5,10,6,-7,-12
30731,18,4,0,0,2,2,-9,-5
30782,-24,-34,-7,-3,-8,-22,-5,-18
30834,-9,-2,1,0,8,29,0,20
30897,19,9,1,-2,-3,-6,5,-46
30950,-16,-13,2,2,8,10,10,11
31014,-13,3,-11,-16,-38,-31,7,-9
31071,19,1,-1,-1,-4,-7,6,42
31120,11,5,1,2,6,16,6,29
31178,10,11,-3,-2,0,-9,-3,-39
31226,-14,-11,-13,-12,-25,-27,23,3
31279,-5,2,1,1,13,14,-9,-5
31340,-26,-13,-7,-12,-53,-46,-7,-28
31385,-10,-5,-1,-2,-4,-6,-7,-25
31438,3,-6,1,-2,-18,-31,-27,-48
31488,10,-3,-1,3,11,9,15,25
31547,-14,-31,-7,-8,-32,-50,-2,2
31608,-12,0,-2,-1,-16,-37,0,-30
31671,16,20,4,8,23,27,2,49
31721,-11,-15,0,-4,5,12,1,15
31772,-5,6,-2,1,11,19,8,28
31827,1,4,2,7,32,40,25,6
31879,-37,-17,-8,-5,-6,-1,-5,-11
31932,-33,-26,-2,-5,-10,-17,-19,-26
31990,-3,8,-1,-9,-35,-22,-12,50
32054,10,3,2,0,5,14,-6,0
32101,-18,-10,2,8,30,31,23,20
32155,4,-1,-1,3,-4,3,1,12
32208,-16,-20,-4,3,11,13,-8,-42
32268,33,19,7,3,12,3,-7,-46
32319,22,20,3,4,-3,7,-13,-41
32372,-28,-8,-9,-14,-17,-6,-13,14
32424,-20,-31,2,-6,-5,5,6,8
32478,-20,-12,-3,9,29,25,-14,48
32535,0,-2,0,6,20,26,2,1
32589,17,10,-2,-4,11,24,13,23
32650,-17,-14,-1,-2,-5,-10,-3,26
32711,22,9,2,8,22,22,9,34
32771,-8,-11,2,3,-7,-29,-15,-16
32825,-36,-28,-1,1,-4,-25,-13,-47
32889,-8,-7,-5,-11,-19,-10,-6,30
32951,22,38,2,-6,6,25,21,25
33012,22,13,2,0,2,-4,-24,-9
33065,-13,-7,-1,-2,-4,-1,12,-7
33116,6,18,11,20,54,50,6,-67
33167,-15,-27,3,-6,-28,-33,7,17
33222,2,-12,0,1,8,3,-6,-19
33274,3,11,-2,-7,-20,-25,-6,-2
33336,-6,-6,1,3,8,12,0,4
33400,16,-5,-1,0,5,12,5,-1
33466,-8,-5,2,5,15,16,-1,-25
33510,-6,-5,-5,-6,-18,-11,-12,-33
33557,5,15,2,5,7,5,-9,-28
33610,9,-1,-1,-6,-21,-30,2,32
33663,14,0,-1,-3,11,12,6,37
33727,-5,-9,-6,-4,-9,-12,-28,-62
33776,2,15,-3,-6,-15,0,1,17
33838,10,-1,-1,2,11,15,21,35
33897,13,8,-4,-5,0,13,4,-5
33956,5,6,-1,11,39,49,56,46
34013,-15,-1,5,5,19,13,-3,-14
34076,-24,-39,-4,-2,-9,-8,-2,15
34140,-8,1,-1,-2,-26,-27,-11,48
34196,-17,-5,-2,-2,1,3,-9,25
34252,-11,-4,-9,-15,-31,-18,17,-1
34313,-25,-7,-3,-2,-7,-5,-1,-38
34376,-4,5,1,8,24,16,-5,-10
34437,-20,-31,-6,3,28,24,14,31
34490,11,9,-2,0,3,0,-3,19
34553,18,8,-5,-2,5,-5,-6,-3
34614,-2,-2,1,7,4,4,27,33
34677,-22,-11,-15,-26,-52,-30,-18,-56
34738,-57,-41,-7,-17,-81,-87,-30,-78
34791,-14,-6,-1,7,44,35,-5,-13
34840,2,6,-2,1,17,12,5,12
34893,0,2,3,4,31,30,-16,-17
34953,0,17,5,3,0,-8,-22,0
34999,15,1,2,9,26,16,26,29
35058,2,1,0,1,-2,-1,8,-5
35119,-7,-3,-3,2,15,15,0,8
35179,-10,-7,-3,-4,-5,10,10,-49
35231,3,12,0,3,7,15,-13,-11
35293,-3,2,3,5,13,19,8,1
35357,22,30,1,-1,6,1,6,-8
35419,-5,-6,0,-6,-6,3,0,-1
35479,6,-1,0,4,15,13,23,17
35532,-15,-9,-7,-7,-23,-20,3,-27
35583,-17,-14,-2,0,4,0,-6,-27
35637,9,8,4,-2,-7,-10,-16,-44
35692,9,0,-1,2,4,10,12,39
35741,25,17,-2,-3,-33,-34,-10,13
35800,-11,-12,-9,-16,-49,-38,-2,-22
35862,-24,-16,-1,1,3,-4,-15,-18
35922,12,5,-2,0,8,18,36,11
35983,-5,-3,1,1,-1,-3,-4,36
36038,13,9,-2,2,8,13,19,10
36101,3,-1,3,1,6,8,6,9
36175,23,8,-3,-6,-14,-14,-10,-34
36221,-40,-12,-5,-6,-20,-24,-3,15
36276,-6,-4,-12,-20,-44,-17,-2,-36
36339,34,19,-3,-1,8,8,-15,19
36401,21,34,6,3,7,6,18,-32
36465,3,-14,-2,3,11,8,-9,-8
36513,-21,-17,-3,-5,-15,-21,-6,-27
36565,-2,-10,-7,-4,-19,-33,-22,-21
36619,20,13,-1,-1,7,12,6,18
36674,-31,-26,2,-3,-6,-4,4,2
36724,-8,-8,-3,-6,-16,-17,-11,3
36783,1,-4,-3,-1,3,4,0,-10
36846,-5,6,0,-1,3,10,7,2
36904,3,2,-1,-3,-13,-11,-8,-3
36964,-26,-13,1,0,7,-2,6,1
37018,26,28,3,2,6,-11,-1,7
37080,5,-9,-3,0,5,0,-2,34
37144,-14,-3,-4,-7,-48,-58,-4,-17
37204,-19,-25,-1,1,0,-5,-8,-26
37266,1,0,-1,0,5,3,4,1
37319,-30,-32,-2,3,12,6,-8,32
37383,6,6,-9,-16,-41,-35,-4,6
37446,-9,-6,-4,0,14,20,9,33
37504,6,16,3,2,9,10,0,7
37555,10,-3,-3,6,11,1,3,-19
37608,-9,-7,-8,-5,1,8,0,-20
37660,-13,-2,0,0,2,2,-6,8
37713,2,15,6,5,16,6,-8,13
37766,-2,-2,-6,-1,-9,-24,-6,-11
37824,18,24,6,3,17,11,-14,40
37884,12,1,5,11,40,46,-4,-24
37947,3,-2,-1,0,8,7,-2,-14
38009,-26,-34,-2,2,18,13,-7,-12
38058,7,18,5,6,8,8,-8,6
38111,8,12,2,0,-2,-10,9,21
38164,11,10,6,6,13,6,1,33
38227,4,10,-5,-5,-16,-11,-10,39
38269,15,15,1,-1,-1,2,-1,6
38327,-67,-52,-5,-9,-45,-45,-18,-26
38389,-48,-29,-8,-8,-11,-4,2,25
38450,23,21,0,0,9,13,19,44
38502,2,-5,-2,-4,-14,-9,-7,31
38563,7,-3,-6,-3,3,1,-5,4
38627,0,8,5,1,3,4,2,0
38689,-22,3,-2,-5,-16,-15,-7,-27
38748,1,3,-1,3,28,34,11,-2
38800,3,-12,-10,-11,-44,-33,0,19
38858,11,11,-1,10,46,51,12,-35
38906,1,-10,-3,-1,-9,-22,-3,22
38957,-7,-1,1,9,23,14,5,9
39010,-11,-8,-8,-8,-10,-3,-8,-3
39070,2,-20,1,1,-9,-13,-6,-24
39134,-6,-3,0,-1,10,11,-3,-12
39192,-6,-9,-5,-8,-13,-3,10,58
39258,1,5,0,-3,-9,-13,5,3
39295,-5,-16,-6,-6,-26,-23,9,69
39354,26,24,3,6,34,49,19,46
39408,-8,-5,-9,-21,-61,-49,5,0
39468,20,25,-2,-2,-3,0,21,7
39529,-7,-5,1,1,1,-3,-7,-37
39578,10,8,-7,-15,-53,-36,-22,48
39637,14,-1,-6,-3,-4,-14,11,19
39685,8,6,-3,-4,-21,-16,-7,6
39741,8,-8,2,0,10,3,1,-10
39790,-36,-23,-4,-10,-24,-13,1,7
39851,-14,2,-2,2,1,-6,-11,1
39911,9,25,7,7,0,-7,-7,-20
39970,-12,-8,-7,-16,-33,-13,-5,-3
40030,-4,-2,2,2,13,8,-1,25
40094,14,-15,-18,-24,-68,-55,-4,-1
40157,43,29,-4,3,16,23,13,24
40220,12,11,1,1,12,12,-4,-18
40263,6,-3,-6,-11,-24,-11,-14,-11
40318,12,-3,-3,0,-4,-9,-8,-1
40368,-41,-33,-6,-7,-3,-13,-11,-65
40428,-1,3,2,1,-10,0,-8,-25
40488,-4,-11,-2,-3,0,-11,5,-27
40549,12,0,-4,-2,-1,4,-1,-14
40609,1,-19,-6,-13,-57,-55,8,27
40668,-17,-6,7,8,32,36,11,8
40728,-15,-15,4,-2,-5,-15,-5,9
40780,-4,-14,1,-1,9,10,-3,-21
40835,4,18,2,4,16,16,2,-12
40891,-21,-36,8,6,-1,-12,-3,14
40938,0,2,-5,-3,-4,2,9,38
40991,9,5,-3,-2,-4,0,-1,10
41051,-7,-21,-5,-6,-6,-18,-5,-21
41113,-1,-3,-4,1,8,-3,-13,-67
41161,4,14,-2,-3,-2,2,-11,46
41216,13,12,1,-3,-6,-15,-15,-46
41275,-9,-15,-8,-12,-16,-12,-5,-24
41330,4,17,3,2,6,-6,5,-5
41391,17,15,1,0,-5,-5,8,48
41441,22,12,0,-1,-5,5,-3,4
41501,12,-9,1,6,13,-5,-18,-73
41546,-19,-20,-13,-18,-24,1,22,10
41599,16,7,-1,-1,-2,4,-12,11
41650,-20,-5,-2,1,0,0,-12,-41
41714,16,18,1,1,2,-3,6,-8
41770,-57,-31,-3,2,-6,-10,-10,32
41831,0,-7,1,3,2,0,-5,3
41877,-31,-20,-4,0,-4,-6,-8,-14
41933,-10,-27,-2,0,5,2,-4,-24
41997,5,-2,-6,0,-5,-10,-7,-7
42059,-9,-17,1,2,3,10,12,24
42108,13,16,0,6,24,24,4,60
42160,-2,-7,4,13,36,25,7,-15
42215,0,0,-4,-4,-2,5,19,-17
42267,-33,-18,-2,-1,0,-3,-2,-19
42321,1,-1,6,2,3,1,-1,-7
42377,-12,-22,-2,-5,-19,-16,-19,-72
42439,-3,0,1,4,-8,-15,-11,-56
42499,-13,-19,-1,-1,-20,-18,-8,35
42551,-22,-40,-10,-19,-40,-34,-8,15
42614,-18,-16,-9,-19,-60,-52,5,2
42678,-18,-18,-1,0,12,18,22,18
42739,9,3,10,11,28,21,2,6
42791,-17,6,4,-1,-18,-27,-35,-31
42854,-19,0,-1,-8,-38,-27,-6,20
42916,-1,5,-4,-7,-12,0,-7,4
42978,22,6,3,4,7,2,6,-8
43038,14,6,-1,4,15,6,8,24
43098,1,2,1,6,27,24,1,86
43153,-8,0,0,-2,-13,-17,1,-24
43202,-24,-10,0,1,8,1,7,-33
43256,-5,7,-10,-13,-33,-22,17,-4
43312,-3,6,-1,-7,-4,11,1,-23
43362,4,2,-3,-11,-23,-17,-15,-54
43422,-5,-6,-3,-5,-19,-14,12,-3
43482,12,4,4,-2,1,1,6,5
43532,-7,6,-4,-4,12,7,-6,-28
43596,-2,1,-7,-9,0,16,24,26
43658,6,-8,1,-1,4,8,4,6
43720,-8,3,-2,-1,-3,-4,14,-16
43781,14,17,1,4,4,-5,-3,5
43831,8,17,-1,0,10,7,11,-15
43895,9,-1,-6,-3,-10,-12,1,15
43958,-31,-36,-1,1,13,14,15,-26
44020,20,28,6,-5,-8,1,-16,-14
44084,2,-5,-3,1,13,-21,-5,8
44146,12,17,3,9,25,8,-2,32
44194,-22,-5,-8,-8,-6,2,3,-14
44245,3,0,0,-3,-10,-8,-20,8
44298,9,21,-3,-7,-3,2,4,17
44350,22,23,2,10,23,12,-13,8
44404,-28,-2,6,9,39,34,4,-1
44462,18,28,2,1,-2,-4,-5,-7
44526,-1,3,-8,-15,-45,-35,2,9
44588,-23,-15,-1,3,3,-8,9,15
44635,0,3,2,5,14,8,-9,10
44698,3,-5,5,7,3,8,-4,-22
44761,-17,-4,3,7,5,3,14,23
44824,-8,-8,-3,-2,2,-6,-11,-46
44884,-18,-7,-6,-7,-12,-10,-5,5
44937,-9,-8,-1,-6,4,7,-27,32
44987,9,11,14,15,53,48,3,24
45047,-20,-17,-4,-11,-34,-33,-21,-42
45101,-1,-8,-6,-3,-9,-14,-28,-43
45157,-14,-9,-2,-6,-11,-6,-8,21
45220,9,-4,-1,1,19,15,2,-5
45287,-14,-9,-1,-3,-11,-7,-1,-22
45332,2,9,0,2,0,-8,1,36
45386,-3,10,6,10,19,11,4,49
45446,8,4,2,6,20,19,23,35
45505,9,10,-5,-6,-17,-2,-6,13
45566,5,8,11,13,31,18,14,61
45625,-19,8,-1,1,21,13,-3,-32
45678,-34,-26,4,0,-1,-3,-2,13
45741,-6,0,2,2,-4,-5,-5,2
45804,20,14,-2,5,4,0,-1,8
45867,-15,-19,-4,-6,-23,-18,-10,3
45926,-44,-48,-11,-12,-29,-30,-3,8
45977,15,14,-11,-21,-46,-12,14,6
46029,16,22,-2,-3,-7,-5,-14,40
46088,-10,-1,-2,5,-10,-23,4,-15
46136,30,14,1,5,14,11,1,12
46190,5,-15,0,4,11,14,4,-40
46247,-51,-36,-5,12,42,32,-3,-4
46310,7,14,-7,-1,-1,-5,12,-20
46371,-19,-14,-9,-12,-22,-17,10,66
46422,8,2,3,8,5,7,-9,-11
46484,-7,-3,-3,4,4,11,8,44
46554,-19,-19,-7,-9,-21,-14,-1,7
46612,3,8,3,0,-4,0,7,34
46670,9,16,0,-2,4,5,6,-14
46721,-6,-12,4,3,5,-7,-26,-22
46773,1,0,2,3,12,12,-1,-6
46825,-38,-38,-4,-3,-13,-28,-9,7
46877,-2,11,1,-4,-5,-4,-3,7
46941,-2,10,1,6,18,14,-6,63
46989,13,-3,1,3,10,1,25,38
47052,9,12,-3,-1,-3,-2,0,11
47112,-6,-10,-6,2,21,10,-6,-27
47166,5,0,-6,-9,-10,1,20,48
47215,14,7,-7,-16,-31,-7,11,37
47268,-5,4,-1,5,6,8,0,-24
47327,-4,3,5,11,42,20,1,-3
47390,-23,-15,-3,-2,-13,-15,-10,53
47434,-6,-10,0,-2,-12,-20,3,8
47489,11,6,-3,-1,-12,-7,2,0
47537,15,23,5,9,25,20,10,32
47591,-10,-14,-4,-10,-31,-39,-8,11
47649,15,13,-2,-6,-28,-16,3,-9
47713,-3,-19,-10,-6,-30,-33,0,-31
47777,20,2,-2,-4,-6,9,-4,4
47823,8,-3,-4,-1,10,6,3,16
47875,-12,-25,-6,-13,-18,-5,-1,13
47927,11,5,9,17,42,46,6,17
47988,-12,-11,-6,-8,-21,-12,-1,-3
48038,0,1,1,7,26,27,12,27
48101,0,1,-2,2,13,-5,-2,-13
48160,-5,0,-1,1,-1,-12,-13,-13
48211,-15,-4,1,2,-2,-4,-1,-10
48275,-17,-13,-2,-7,-12,-14,-21,-25
48334,5,-4,-2,1,3,6,-3,-10
48385,5,6,7,8,16,13,4,33
48437,6,16,-2,1,5,-6,-13,-22
48491,-1,12,-11,-26,-36,-12,11,-50
48545,3,4,-3,4,21,25,8,-39
48601,2,-6,5,8,25,25,8,15
48652,-9,-12,-11,-10,-31,-15,-15,-28
48718,21,20,1,1,3,4,19,51
48779,8,12,3,2,14,19,4,-4
48827,-25,-25,-8,-7,-22,-26,0,-34
48891,3,15,1,0,-5,-7,-3,8
48951,8,10,13,5,17,22,-1,4
49017,19,21,-5,-9,-22,-26,-8,2
49077,3,5,2,-3,-13,-2,3,4
49142,11,5,-2,2,26,23,3,-13
49188,-8,-30,0,-5,-11,-14,-13,-16
49250,13,15,0,5,10,17,6,-4
49314,-1,-7,3,3,17,25,7,4
49376,-5,-12,-9,-10,-22,-24,-6,17
49437,5,-1,4,3,15,19,13,-6
49495,6,1,1,2,-5,-10,-29,4
49559,-3,-9,4,7,1,-18,-29,-39
49611,17,9,-5,-14,-23,1,-1,16
49661,16,19,0,1,3,-3,3,17
49712,2,17,-9,-14,-17,-3,-1,11
49766,6,1,-3,-1,-4,4,1,29
49819,-11,-2,1,0,2,-1,-22,-35
49877,-17,-4,-1,2,11,14,7,16
49941,13,20,0,-2,-2,-3,-13,9
50006,-42,-24,0,3,20,21,-11,22
50049,5,-3,3,3,10,9,25,28
50113,-14,-12,2,-2,-16,-21,5,-10
50177,-14,-19,-6,-7,-8,-11,16,-4
50237,-7,-8,4,8,23,27,0,24
50299,0,-2,-6,-6,-16,-10,-7,31
50359,4,10,0,9,30,26,8,42
50410,-5,-22,0,-4,-34,-50,12,33
50473,6,-1,1,3,21,20,-11,58
50537,2,0,-4,-2,-11,-15,5,37
50598,-7,-7,-12,-19,-35,-27,8,8
50657,9,3,1,4,18,16,24,20
50719,5,8,2,3,8,8,14,3
50779,-1,6,-3,-1,-11,-9,2,-41
50833,35,14,3,5,8,7,18,50
50896,-2,10,-2,0,6,16,15,43
50958,-22,-30,-2,-5,-16,1,3,-45
51021,-9,4,-2,5,11,3,-4,-20
51084,17,29,1,2,5,6,3,-14
51131,0,15,6,8,12,10,-9,1
51186,-12,-7,-3,-2,-4,-6,-26,-24
51235,22,0,2,5,24,31,20,23
51287,-3,-9,0,-5,5,5,-9,-11
51342,1,1,-1,-3,-4,6,-2,-21
51404,-7,-5,-4,0,8,9,-29,-40
51471,2,7,4,7,25,30,-14,2
51523,0,-11,2,0,-1,0,2,6
51572,-37,-41,-3,-3,-4,-1,-9,-86
51625,-15,1,-2,-4,-20,-21,-3,-25
51678,9,2,1,0,14,5,-5,-2
51729,19,15,1,3,5,7,2,83
51790,21,27,-2,6,15,19,5,3
51838,9,12,3,-5,-36,-39,-15,-21
51902,0,-3,-3,-5,-11,-12,-15,47
51964,-13,-12,-7,-2,-7,-7,-8,-23
52025,40,27,-4,5,27,32,3,7
52075,-8,-8,1,2,1,-5,9,-21
52138,20,27,0,1,2,-13,-4,-39
52201,13,12,0,1,4,3,-1,-7
52264,2,10,-3,-6,-18,-20,-8,-28
52323,-26,-4,-3,0,1,3,6,-13
52375,-11,-25,-5,4,-5,-23,-10,-15
52435,25,42,17,8,16,26,12,82
52497,13,7,8,12,38,34,2,-58
52555,-5,-13,2,6,10,2,13,68
52617,-19,-24,-8,-6,-10,-2,-17,47
52663,-7,-4,-3,-4,-13,-2,3,18
52721,-13,-9,-1,0,-2,-7,-7,38
52782,-41,-18,-1,-5,-24,-27,-23,-26
52831,12,4,-8,-14,-27,-14,4,-8
52886,-8,-6,-2,-2,9,11,9,15
52941,6,8,9,13,46,42,13,40
53004,-24,-22,-3,-9,-8,-8,-5,-16
53066,-6,-4,-3,-5,-14,-10,-16,-31
53129,-5,8,-1,-2,4,12,6,24
53177,13,13,-2,-7,-26,-27,-4,12
53240,6,14,2,8,27,19,7,46
53303,7,3,1,0,6,13,18,15
53367,2,3,-2,0,1,4,-7,-26
53426,-34,-28,10,13,34,26,7,-20
53476,13,17,-6,-11,-28,-29,-3,-19
53529,15,22,1,3,12,-3,6,-15
53585,-7,-33,0,-1,11,9,14,63
53637,0,11,0,2,-3,5,13,-17
53690,9,6,1,0,8,8,-5,26
53746,15,8,2,0,17,19,1,40
53807,-12,-3,-1,-2,0,-2,24,5
53871,-21,-25,-1,2,27,27,32,19
53928,-3,8,-5,-5,-20,-34,-24,53
53980,0,17,-5,-15,-26,-10,-2,-35
54043,25,17,-1,-1,8,12,21,-3
54106,-1,11,-3,4,-3,-14,-16,-19
54169,-3,-28,6,16,52,36,-12,20
54228,-39,-22,-6,-5,-3,-7,-13,-46
54288,25,14,-1,5,21,24,14,74
54351,7,11,-5,-3,3,7,3,-5
54415,3,5,1,-4,-10,-8,4,1
54478,-18,-9,-1,0,1,-2,-7,0
54529,2,2,2,4,10,6,0,-10
54589,-23,-22,-6,-4,-19,-15,-4,-25
54642,14,-1,10,-1,0,7,2,26
54692,30,33,-1,6,19,18,-7,-10
54745,-17,-8,4,3,6,4,-19,22
54797,21,6,3,7,27,33,12,-9
54853,-7,-4,-1,4,16,18,28,14
54909,14,12,-5,-7,-18,-30,-12,19
54970,-15,-13,-6,-6,-9,-6,2,1
55034,7,-1,-4,-5,-12,-5,2,15
55091,-1,-3,-2,3,2,1,1,-6
55145,-19,-13,3,-14,-35,-26,-18,-46
55208,-13,-18,-4,-5,1,-1,-14,-20
55269,5,10,0,1,8,13,7,1
55330,1,1,-4,2,11,7,-8,2
55391,6,-1,-3,4,15,16,6,3
55449,6,6,-1,0,-1,2,-1,-9
55495,14,10,2,3,3,1,2,-13
55548,2,-7,0,-3,-13,-12,-8,3
55600,-6,-26,-3,-8,0,-1,-4,-32
55654,19,16,6,2,-2,-8,-3,-30
55713,6,7,6,8,26,21,11,0
55773,18,17,2,0,9,14,-11,-1
55823,-14,-8,-6,-4,-10,0,-3,-1
55877,-37,-34,0,4,13,6,-24,9
55931,-5,-5,-7,-8,-16,-6,8,18
55982,13,11,2,-1,-10,-8,-4,39
56036,10,7,1,5,1,2,-12,-16
56097,4,10,5,-1,-4,0,-15,14
56139,-11,-3,5,-3,-29,-47,-9,-26
56193,-21,-15,-2,-2,-8,-10,1,1
56249,18,16,5,18,55,68,30,65
56312,-2,-2,-6,1,2,5,6,-26
56374,-7,-13,5,5,22,21,-7,-39
56425,9,6,-13,-25,-50,-22,1,-13
56483,38,21,9,4,22,30,5,-75
56529,-13,4,-1,1,-2,-9,9,60
56591,-10,1,0,-5,-12,-14,-17,-61
56645,-44,-42,-7,-6,-24,-38,-6,-25
56709,13,0,-4,-4,-4,-3,-7,70
56756,-10,-5,-7,-3,-7,1,1,-14
56815,6,-10,2,7,1,-6,-7,-4
56876,-31,-28,0,5,2,-8,3,-6
56936,-3,-4,-1,3,21,24,7,33
56998,1,-7,1,5,6,-1,-7,71
57053,9,7,1,2,26,26,3,1
57115,9,-1,0,-6,-14,-9,-3,-21
57176,-1,-7,0,5,-8,-21,6,44
57237,8,6,-6,-9,-14,2,24,1
57286,13,26,-4,-10,-19,-6,-2,-7
57340,3,0,-4,-15,-25,2,0,-34
57395,2,-1,5,0,13,8,13,14
57445,8,2,-1,-1,0,-5,0,22
57498,38,21,5,3,1,-4,4,11
57557,6,5,5,4,14,19,3,-9
57623,-7,-8,-3,-2,2,8,10,-34
57679,23,22,4,11,39,43,15,5
57731,-4,-3,-4,0,15,17,-7,8
57793,28,25,0,3,-11,-36,-2,8
57857,14,9,-1,1,7,12,-2,-2
57919,22,12,1,8,31,37,8,-5
57980,-15,-6,5,4,7,-1,-1,-68
58034,3,2,3,1,6,12,1,51
58098,-11,-13,-6,-2,4,-15,-15,-26
58159,-42,-54,13,10,36,35,11,-4
58218,14,6,3,3,19,11,4,27
58274,2,10,2,4,14,8,-7,-33
58322,10,5,2,5,7,10,13,10
58375,5,-4,-7,-6,0,9,8,42
58435,33,16,-2,1,5,17,8,10
58482,24,20,-1,1,-6,-7,-12,-13
58535,3,0,1,4,13,19,9,-39
58597,6,6,-6,-15,-15,-5,-3,-56
58647,19,22,2,-3,-7,2,0,21
58701,-4,10,6,5,19,15,8,8
58758,-49,-43,-6,-6,-10,-13,-17,-32
58822,-3,-6,-1,4,13,17,-4,-5
58886,0,-11,-1,-4,-16,-9,0,25
58931,10,28,-2,-8,-9,5,11,25
58984,-3,1,-3,-2,1,5,-8,-1
59041,4,-1,-3,-3,-6,-11,-14,-16
59103,11,14,-1,2,1,-2,-14,-43
59164,4,-1,0,-4,-9,-4,5,-5
59225,-7,2,-3,-7,-8,-6,-3,12
59278,1,4,9,10,30,23,0,-22
59342,-8,-1,3,2,0,-3,-24,-50
59406,2,7,3,9,19,9,10,-31
59471,4,-2,-6,-4,-4,-3,4,30
59516,3,13,1,4,3,4,3,-1
59581,-16,-16,-9,-9,-16,-3,-4,30
59644,17,2,-1,4,19,25,3,-10
59704,-5,4,-2,1,6,4,-3,46
59764,23,21,3,2,11,10,2,24
59816,0,0,2,2,3,-3,12,8
59878,5,31,3,0,5,7,-2,-16
59942,-28,-42,-9,0,8,3,2,-15
60003,-15,-13,-3,1,7,7,-12,8
60063,-30,-25,0,4,10,12,-3,-8
60115,23,16,-2,-3,-6,-3,12,37
60167,8,3,-3,-1,5,10,1,22
60225,-10,-6,-5,-6,-16,-13,-11,-10
60281,1,2,-2,-2,0,-6,-9,-6
60334,-9,-2,-1,-3,2,-4,13,-24
60387,10,6,0,-3,-5,1,2,5
60445,12,-15,-7,-13,-48,-47,-22,-4
60506,-2,1,-6,-6,-5,-1,8,0
60566,-27,-24,-1,3,13,10,-7,13
60626,-23,-18,-1,0,8,5,-15,-51
60690,-12,-6,1,-2,-7,-8,1,-10
60748,2,-7,3,4,-1,-3,4,9
60806,-14,-11,-6,-6,-11,-5,-19,-1
60857,0,6,1,-3,0,-14,-3,-8
60920,-4,-23,-1,1,7,27,3,15
60984,1,6,-3,4,11,2,-19,-21
61045,9,22,-2,-8,-11,-3,-10,31
61096,32,21,6,1,-12,-11,7,5
61150,9,3,0,6,27,20,4,0
61203,29,7,5,4,1,2,12,-4
61255,6,4,-8,-2,-11,4,-6,12
61311,20,13,-2,0,-6,-8,29,32
61365,8,1,2,1,0,-6,13,2
61430,-1,15,2,6,17,24,2,-1
61489,4,7,-4,0,12,9,19,-27
61548,8,5,-2,0,-1,-5,21,-25
61608,4,-1,1,-1,17,19,-2,-1
61662,10,-1,4,2,0,-3,0,17
61726,1,25,-5,-2,-5,-19,-4,21
61788,7,4,-3,-1,10,15,5,1
61849,0,-2,0,3,14,15,8,-15
61913,-2,-4,-2,-4,-14,-9,-18,-9
61961,-23,-6,2,1,20,16,-4,-77
62014,-18,-9,0,2,18,28,15,38
62065,-10,-10,3,-1,0,9,1,-33
62119,-8,-3,-6,-12,-20,-12,-2,1
62171,12,16,2,-6,-50,-73,-20,-2
62234,14,18,-1,-2,-9,-15,-19,-40
62293,-9,-6,-5,-1,10,24,1,27
62360,1,-3,-1,-1,-18,-47,-23,40
62402,8,14,5,-4,-31,-31,-9,-34
62465,-15,-16,-4,-4,-2,1,-1,-14
62528,-20,-9,-7,-3,-5,0,-4,-29
62592,6,16,3,0,0,11,9,-26
62651,-7,-3,0,-7,-46,-41,-27,-19
62704,3,-1,1,-1,2,0,6,-16
62755,7,14,3,9,25,19,7,6
62808,-9,-4,-6,-8,-17,-13,-14,-8
62869,16,21,6,1,2,-9,4,-36
62916,-7,0,-6,2,7,20,21,2
62976,-9,-11,0,3,12,13,-1,-27
63033,8,-1,2,6,14,10,0,3
63084,8,24,-1,2,-2,-10,6,-7
63138,4,16,3,5,12,-11,-5,2
63190,-21,-13,-5,-7,-10,-3,4,8
63253,-13,-6,4,-2,-19,-22,-22,11
63302,11,5,1,-1,-2,6,3,-38
63363,-15,-4,-1,-3,-2,-4,-19,-8
63417,19,13,-1,4,14,8,14,-20
63468,1,-5,-2,3,11,12,-6,-23
63521,-1,-3,1,8,20,14,-3,-9
63573,-16,-10,-5,-1,0,-4,14,-16
63637,13,15,-9,-13,-23,-8,4,6
63693,8,3,3,5,14,13,4,3
63753,-4,5,-3,-5,-16,-22,-8,4
63807,-4,-7,-3,-3,-12,-11,12,3
63871,-22,-19,-2,1,15,25,-3,-5
63936,2,3,0,6,23,7,4,-2
63994,-4,-9,-1,5,8,-3,-2,3
64045,15,5,0,1,16,25,3,-4
64098,1,-8,1,3,9,7,0,-18
64151,5,-4,-2,4,15,19,2,20
64211,-1,17,1,-3,-28,-25,-8,20
64255,-5,-7,-3,-2,-2,-3,2,-58
64310,-8,-6,-1,3,17,19,-11,-12
64360,7,-4,1,2,2,6,8,34
64413,-8,-7,-4,-5,-4,10,12,16
64471,-11,-8,-6,-13,-53,-56,-11,-8
64527,-11,-11,5,10,22,15,-10,24
64578,-11,-7,-4,-3,-5,-4,8,5
64630,-3,5,1,1,9,15,5,-16
64691,-2,-1,-5,-10,-31,-42,10,-17
64755,3,-6,-3,0,3,-1,2,24
64819,11,5,7,4,6,3,-11,50
64881,-26,-23,-4,-4,-3,-4,-4,38
64938,-2,-3,0,0,-3,-9,-40,-15
64990,-5,-18,0,2,16,20,2,-43
65053,-43,-52,-12,-4,-34,-46,-28,-2
65118,-7,-1,-3,1,-19,-31,-1,6
65187,-12,-6,-4,-5,-5,3,11,-61
65240,-13,-9,6,7,27,32,-4,28
65291,-15,-14,-1,-3,-15,-18,4,-55
65358,-5,-5,1,3,7,-8,-4,-22
65415,4,3,-2,1,1,-11,-10,37
65479,7,-1,1,2,14,8,8,10
65539,-4,-9,-1,-4,-3,-5,-29,30
65599,19,7,7,2,-4,-9,8,-18
65652,-10,4,1,3,14,19,-2,-33
65719,-5,-4,-2,-3,-4,9,9,1
65785,9,1,3,5,17,13,0,18
65849,19,6,3,-4,-9,-19,-4,-1
65893,-13,-18,-5,-4,-17,-16,6,4
65948,9,11,1,-1,4,-12,-3,8
65995,1,0,6,6,24,16,-9,18
66051,-17,-12,2,3,15,13,16,-37
66106,-43,-16,-2,-2,-3,0,4,-19
66167,8,7,-3,6,5,0,1,17
66221,27,10,-2,-4,-2,-3,-31,-14
66271,-4,-4,-9,-16,-41,-32,-8,-38
66337,11,21,2,3,11,10,14,15
66400,-5,-9,-4,-12,-14,6,15,18
66460,-2,-4,0,-2,9,10,9,-15
66521,-29,-14,-3,0,-1,-3,8,13
66572,-7,-3,-2,4,10,-5,3,37
66633,24,8,3,-3,-6,-6,0,5
66696,9,20,3,12,38,45,14,41
66760,4,-7,-2,6,11,6,0,5
66812,1,6,-2,-3,-11,-18,-11,-41
66865,-5,-2,0,-2,6,7,8,-1
66914,-2,-11,-8,-14,-40,-35,-16,-9
66971,14,6,-1,-5,-6,-3,-10,13
67028,-44,-32,-5,-14,-83,-93,-30,-58
67084,-1,-5,-1,-3,-8,-13,-8,38
67144,-35,-36,-13,-14,-32,-43,-13,-3
67197,37,30,0,4,9,5,6,7
67253,-6,-1,-2,2,12,16,4,-2
67301,11,1,1,0,6,-5,-3,32
67356,-9,14,5,1,5,3,-13,-46
67406,-21,-20,-2,3,6,4,-15,-17
67458,1,-3,-4,-10,-14,-3,-14,-14
67516,8,-4,1,7,32,25,7,19
67580,1,-4,4,1,10,9,0,-48
67641,27,22,4,5,3,3,5,-19
67706,-12,-3,-6,-7,-24,-24,-7,-15
67766,-46,-26,3,-3,-7,-5,-4,3
67834,20,6,2,-2,-8,-28,-13,21
67877,2,-6,0,-1,0,0,-6,6
67943,9,6,1,-1,-5,-5,-10,33
68002,-16,5,-3,-1,4,5,-2,21
68066,16,-6,-3,2,15,16,1,64
68126,-4,-2,-5,-7,-12,-6,-6,30
68176,4,3,-1,-2,-2,-2,-11,-1
68239,-36,-56,-4,-4,-11,-9,-2,-21
68304,-5,-6,-1,5,12,14,1,-3
68369,2,-1,-1,-1,5,9,11,28
68428,-2,0,-1,1,-5,-2,1,10
68476,10,7,1,3,7,7,-11,8
68539,7,10,-3,-5,-3,-5,-5,-3
68601,-3,3,2,-4,-6,3,-2,0
68665,1,-4,1,2,7,6,6,-25
68726,-2,-6,-1,5,15,13,14,17
68786,-6,-8,-1,0,-1,-6,-10,-46
68839,-5,-7,-7,-11,-29,-17,-33,-20
68897,7,17,1,-3,-19,-18,-3,-6
68944,16,9,-4,-4,-18,-21,19,1
68996,7,-1,-1,-2,7,9,-4,3
69049,4,10,0,0,2,0,10,38
69107,1,3,-3,3,14,20,16,4
69169,-20,-20,-2,2,13,6,0,-7
69229,11,9,2,2,12,9,-3,14
69282,-30,-27,-3,0,1,-2,-9,-22
69345,-3,-2,-2,-1,-23,-21,2,-9
69411,-15,-23,-2,4,15,16,-1,-11
69476,1,9,-1,0,4,-2,8,-17
69539,20,27,4,5,15,26,-2,-5
69582,2,-7,0,4,12,18,4,14
69637,8,9,-1,2,11,17,15,27
69686,13,15,-1,-3,-11,-11,3,12
69740,-37,-21,6,-5,-30,-32,-21,-67
69796,-60,-52,0,2,3,-5,4,-9
69849,8,3,2,7,23,18,2,-24
69914,14,33,5,5,20,20,-2,-27
69971,-9,-4,-1,0,-3,-7,3,-17
70022,30,23,-2,-3,1,11,-6,-5
70087,1,0,-3,-6,-6,-9,1,-12
70151,18,22,3,4,5,4,1,-3
70214,16,4,-3,-2,-24,-19,-4,-31
70270,-39,-29,-4,1,15,16,10,24
70331,11,11,3,6,30,26,11,-3
70382,9,6,-3,-5,-12,-11,5,5
70447,-14,-13,-14,-23,-61,-65,-25,-52
70508,0,-2,-1,-3,-2,0,9,26
70570,-6,13,5,4,3,-5,2,-21
70630,-10,1,3,2,-11,-8,-13,4
70686,11,5,-4,-9,-14,-5,8,-15
70735,11,6,-4,1,2,2,4,55
70795,-7,-9,0,0,2,-4,-7,4
70856,-4,15,1,-3,-16,-20,-8,-45
70910,-38,-42,-5,-5,-6,-1,-18,9
70960,4,12,2,0,-8,-3,0,28
71013,7,2,1,5,24,16,3,27
71073,-10,-18,-2,4,2,-6,0,-34
71132,8,-2,0,1,7,7,-6,-45
71179,-18,-9,-3,-2,2,-5,1,9
71232,-6,-17,1,0,-2,-5,0,14
71285,7,5,-1,1,-3,-3,10,6
71337,5,3,-3,3,-12,-26,-11,0
71395,-7,-8,-2,-3,-4,-1,1,-5
71456,10,6,-1,-2,-1,2,-6,-8
71521,6,-8,-7,-4,-5,-6,0,14
71568,3,-1,-1,3,7,15,1,-17
71620,2,-2,-1,5,4,-8,-16,1
71673,5,9,-2,-1,1,4,8,1
71733,4,4,-10,-19,-51,-27,6,2
71785,-2,-8,-1,-3,-4,-12,-3,-13
71843,-3,-3,-5,0,19,8,6,6
71891,-3,-2,6,-1,-9,-8,5,-16
71944,-1,-3,-1,-6,-29,-28,-3,-12
71997,2,-2,-5,-4,-5,-6,-3,-5
72053,14,-1,1,0,-8,-8,10,9
72115,-3,-27,-3,3,15,20,2,-6
72175,-6,2,1,4,13,6,-5,-18
72226,11,9,-3,-3,-5,5,6,-16
72289,15,8,1,2,-17,-16,10,21
72334,-4,0,-3,0,8,6,2,8
72386,8,2,5,10,29,17,9,18
72438,-25,-9,8,0,4,6,-7,-46
72493,-12,-6,1,1,3,-1,-12,-20
72557,24,12,-1,-3,-16,-24,7,10
72619,13,20,-1,-2,-6,0,7,-15
72679,-2,-1,3,5,-2,-4,7,-11
72732,-10,-7,-5,-4,-2,-8,-11,3
72782,3,6,-5,-6,-5,1,7,18
72837,22,9,3,2,10,16,14,9
72892,-65,-39,-3,0,-2,-1,-3,-55
72941,-14,-9,-1,1,5,-1,-10,2
72993,15,-5,-2,2,11,7,0,16
73049,-2,-5,-1,-4,3,10,4,2
73106,19,20,-2,-4,-13,-21,3,-15
73158,7,9,1,1,-10,-15,-7,8
73219,0,-4,-7,-8,-8,-7,10,-5
73272,-1,2,3,6,17,20,10,37
73323,25,10,-3,2,8,14,12,5
73375,-5,-4,-9,-10,-30,-21,-12,-10
73431,-8,-2,2,-10,-34,-42,-33,-54
73491,-15,-8,0,-4,6,9,-8,11
73543,10,7,6,12,30,26,-1,6
73608,19,14,3,0,-16,-16,-3,26
73663,-9,-6,-8,-8,-32,-35,-13,-33
73717,-11,-24,-6,-1,0,3,-1,-1
73781,-4,2,-5,-3,-13,-12,1,22
73842,10,9,1,2,-1,-1,0,6
73907,0,0,0,2,4,-2,-5,-25
73961,-28,-49,-1,7,14,-6,-18,20
74014,8,10,1,1,-1,2,3,-12
74078,5,1,-1,-4,-7,-9,8,-20
74141,16,3,1,1,8,11,2,-35
74201,5,10,-2,-5,-4,-4,5,17
74255,-4,-10,-4,-3,1,-3,-4,-25
74306,11,17,3,0,1,-4,-4,10
74359,-38,-19,-10,-3,10,15,1,-13
74419,-2,-6,0,0,-1,-1,6,14
74476,-3,-3,-2,-4,-2,4,-6,9
74524,18,2,-3,2,10,3,7,34
74579,-54,-37,-2,-7,-25,-37,-4,-29
74642,9,5,-5,-5,-9,-2,-9,-46
74703,-4,1,0,-1,-2,-11,-6,17
74763,6,-2,2,-1,-2,0,-10,6
74819,1,-18,1,3,6,0,2,43
74883,13,14,-2,-4,-1,1,-6,0
74946,-28,-21,-1,1,11,-3,-8,-8
75009,-3,-14,-6,-6,-6,-6,11,-26
75073,-17,-18,-6,-4,-24,-46,-16,-23
75117,-8,-8,2,2,7,7,-2,-22
75178,8,-4,1,-2,-5,-11,-5,4
75239,7,2,0,2,9,9,0,25
75303,11,14,0,-5,-17,-26,10,-5
75364,-21,-14,2,0,9,7,-22,-70
75414,16,23,-2,-2,-29,-57,-42,-27
75467,24,25,0,-1,-4,-3,-6,14
75521,3,-2,3,7,21,13,2,10
75571,-9,-7,-2,-3,-8,-11,2,1
75625,6,3,1,2,12,19,13,34
75683,-4,4,-2,-2,0,6,-4,-4
75748,-5,6,-1,-3,-2,5,10,12
75804,8,11,1,0,0,3,3,-12
75866,-3,-9,-5,1,13,16,-2,-27
75926,11,14,-2,-1,8,11,-6,-11
75979,-8,-14,-2,3,2,2,-10,-27
76042,11,14,5,7,27,33,-7,-23
76105,-8,-15,2,-1,0,-18,3,16
76166,2,9,4,6,11,21,4,-11
76227,6,22,1,2,-2,-5,-15,-51
76283,6,6,0,5,23,24,5,18
76331,-21,-5,-2,-6,-25,-16,-7,-1
76383,-8,-11,1,5,23,25,7,-9
76435,-12,-24,-7,-1,-2,-6,-9,-11
76489,-5,-4,-1,-4,-7,-2,13,15
76545,5,19,-3,-5,-2,5,11,-18
76607,-21,-29,-4,0,2,-12,-5,14
76668,-22,-19,-1,9,18,-5,-1,17
76725,22,17,2,3,18,17,6,-11
76787,-3,-2,-7,-5,0,1,-8,-26
76852,-3,8,-3,-8,-27,-12,-3,-8
76914,-18,-17,-5,-2,2,4,3,-8
76972,-20,2,-4,-5,-15,-12,-3,-34
77022,-26,-28,2,3,19,13,-1,-21
77085,-21,-16,-1,-1,-7,-9,-2,-19
77148,-35,-20,-4,-9,-38,-33,4,-4
77210,2,6,0,1,2,2,-2,-16
77261,-13,10,-13,-26,-80,-48,-8,-25
77313,11,19,-6,-12,-27,-13,-4,16
77366,-23,7,1,0,0,-12,-9,1
77426,6,5,2,2,14,19,2,17
77481,-48,-47,-5,-4,-10,-10,-4,-5
77532,-4,1,-2,-1,-13,-23,-3,11
77592,5,8,-2,-2,-4,-16,-9,-25
77653,-49,-36,-9,-2,-5,2,-11,-32
77712,4,-2,-2,4,11,-2,-3,14
77771,4,0,-4,-3,-1,0,-1,-29
77823,12,4,1,5,13,6,14,46
77887,11,-3,0,6,25,13,1,0
77949,-20,-29,-4,-13,-49,-38,-4,-8
78011,-28,-35,-7,-6,-15,-13,-6,-26
78072,12,5,0,3,8,10,-9,-19
78131,5,10,0,3,4,-5,0,37
78183,-12,-9,-1,3,6,6,9,-15
78237,6,2,-4,-2,-6,1,-11,21
78288,-7,-3,-3,-2,-11,-16,-5,-10
78343,1,0,-2,-9,-38,-27,-10,11
78395,-3,9,3,1,2,-9,8,10
78458,4,-4,-1,0,1,-2,10,33
78514,31,22,1,-2,12,28,4,27
78573,-19,-19,-8,-7,-11,-12,-10,22
78625,-12,-17,-2,1,5,9,12,12
78677,-3,-3,-3,2,-3,-7,0,-1
78737,5,7,0,2,7,4,-8,-14
78784,-14,0,-1,2,-9,-14,-4,-27
78835,21,15,-1,-1,4,6,-1,-11
78892,-22,-11,-1,5,24,28,4,-3
78959,6,7,-1,1,1,-2,-2,8
79021,-26,-19,1,-2,-8,-16,-16,-65
79075,8,3,-10,-17,-33,-22,-8,30
79129,-21,-2,-2,-1,12,15,6,-6
79193,18,17,-2,2,4,10,10,29
79256,-14,-14,0,5,20,10,7,-8
79306,-9,-17,0,-4,-10,-2,11,33
79367,8,6,3,-2,0,2,1,13
79413,9,6,0,4,9,12,3,-13
79473,-25,-38,-2,1,17,25,7,0
79527,1,6,-9,-11,-13,-8,-4,-21
79578,-16,-20,-5,-4,0,-3,6,45
79630,-27,-31,-1,3,24,12,-5,-24
79684,10,-8,4,5,2,-7,-5,-16
79738,-12,-9,-2,-3,10,13,3,-41
79795,9,20,-1,3,18,7,4,-22
79857,1,7,-6,-7,-20,-20,-4,-12
79906,12,10,-2,-7,-15,-11,4,18
79960,7,2,2,0,-13,-16,-8,-3
80013,12,19,2,5,32,31,4,-27
80073,18,17,3,10,27,22,12,0
80129,10,7,2,6,21,19,-3,3
80180,9,-8,7,11,33,36,7,22
80233,8,8,2,1,5,6,8,11
80291,2,-3,4,1,4,9,16,-10
80342,1,10,7,8,14,3,7,-9
80395,2,1,0,-4,-11,-8,-2,6
80455,-4,-2,2,3,-2,-4,-6,20
80515,7,15,-5,-8,-27,-25,3,29
80569,4,0,0,-4,-2,-7,-4,30
80622,-12,-27,4,4,1,-2,-2,-15
80672,-26,-26,-8,-16,-26,-13,-7,18
80732,-32,-22,-13,-18,-71,-64,4,-5
80784,9,5,-3,-6,-3,4,3,45
80839,6,0,2,2,9,11,4,-20
80895,-20,-8,-4,-4,-4,-12,0,-19
80958,-2,-5,-3,-7,-24,-26,1,17
81018,10,12,3,6,-5,-27,-14,-51
81079,-3,4,-5,-10,-37,-39,-12,0
81134,4,2,-4,1,5,-1,4,-18
81198,5,14,-7,-5,-14,-7,-2,-12
81261,-15,-17,-8,-2,-11,-18,-3,12
81319,23,15,7,0,-5,-5,0,-19
81384,-8,-15,-5,-2,8,14,2,11
81431,2,1,2,1,7,-5,-2,66
81488,-13,-17,2,2,10,16,-4,-15
81535,-17,-11,7,0,5,1,-9,2
81588,-12,-9,-1,0,8,8,-9,-44
81646,5,-4,-1,2,14,17,-4,1
81709,11,18,6,-2,-32,-46,-10,-20
81761,13,20,-2,2,9,17,11,-37
81821,18,16,7,15,42,38,12,18
81874,-32,-22,-11,-9,-31,-46,-10,-4
81924,-21,-30,-2,-1,-1,2,-12,-23
81978,-24,-34,-6,-6,-12,1,16,9
82031,-12,-4,-4,-2,0,1,-7,-54
82089,-4,11,-3,-2,-9,-30,-8,-46
82151,-24,-9,0,1,-2,-12,-15,-32
82203,-1,-6,0,6,9,4,-3,1
82266,2,12,-1,-3,-21,-27,-10,23
82316,32,22,4,8,19,32,-1,40
82373,-1,3,0,0,6,3,2,-36
82420,0,-7,0,-2,4,9,7,5
82473,-24,-8,-2,-2,1,-1,4,-33
82529,8,8,1,4,5,-1,-9,25
82581,-13,-12,-2,-4,-3,1,-15,9
82630,0,-3,0,-4,-10,-6,2,12
82689,-28,-3,-11,-17,-39,-22,-15,-33
82742,0,1,1,0,7,2,-5,-15
82803,4,10,2,4,11,7,-3,-9
82854,-8,-16,-5,-5,-13,-12,2,28
82909,-3,-5,-4,-5,-1,-4,0,47
82968,6,2,1,6,31,36,4,4
83013,-42,-41,1,-5,-8,-7,1,-19
83067,18,12,4,2,19,21,8,11
83126,18,17,4,4,8,-4,3,14
83191,-5,-17,-6,-2,8,7,-15,-67
83246,-6,-2,0,1,2,11,8,2
83306,7,9,-2,-2,4,7,0,-4
83359,-2,-5,-4,1,6,-3,5,20
83423,-25,-13,3,-1,-11,-6,6,2
83486,16,15,0,-1,8,3,-1,-32
83547,12,-3,2,9,21,13,14,58
83605,13,-5,-2,-2,-8,-2,-3,-1
83661,-6,-21,-10,9,13,12,-4,-11
83726,-6,-15,-9,-9,-2,-5,-11,-36
83795,18,6,6,14,34,31,4,-14
83848,7,3,0,4,8,26,-10,53
83897,-3,25,2,-2,3,-3,7,-28
83956,-17,-27,-9,-4,-12,-14,28,-7
84003,-23,-18,-15,-27,-51,-32,-17,-8
84055,10,-16,-3,-3,6,3,-6,-25
84112,-9,-29,-17,-32,-10,3,-9,-48
84163,-36,-22,-16,-34,-76,-51,-28,-38
84226,19,-19,-12,-36,-24,-8,-6,-14
84289,-24,8,0,-9,3,2,-9,-19
84351,26,-11,-2,16,24,23,5,23
84400,-5,-6,-4,-21,-19,1,4,9
84459,-29,38,18,32,42,28,12,20
84506,-6,-8,5,26,27,19,6,-15
84558,23,20,3,2,13,23,6,-18
84613,53,5,1,3,-9,-3,6,1
84676,17,3,0,-2,2,-8,9,1
84740,22,-1,-3,-7,-21,-29,0,25
84803,20,7,0,-3,-2,0,-8,4
84843,8,1,7,6,10,10,3,-3
84907,-19,-3,-5,-9,-6,-12,2,-12
84967,27,3,-5,-1,-2,2,6,-28
85030,3,0,-6,-1,3,0,7,-8
85091,-31,-15,-5,-2,4,1,6,-67
85153,-29,-17,-3,1,12,11,7,-9
85205,-18,-35,-9,-6,-12,-5,0,-4
85268,-11,-14,-7,-7,-8,-4,-9,-68
85331,-1,-14,-6,-4,-2,-5,-22,-6
85391,3,-4,-5,-1,0,-1,6,9
85444,12,-2,4,1,2,-3,0,11
85508,11,12,-1,3,17,17,5,30
85570,14,-9,-3,-3,-9,-5,5,25
85631,6,-4,0,2,7,10,1,-8
85694,20,25,4,0,-12,-4,-7,4
85743,-37,-31,-12,-15,-67,-58,-7,-7
85794,0,2,-6,-8,-23,-21,-3,-69
85853,-35,5,-1,1,9,9,-8,-49
85902,31,11,5,6,11,17,9,38
85953,-16,-24,-6,-1,-1,0,-5,-4
86012,16,17,4,-4,-10,-6,0,11
86074,20,26,4,4,9,5,-2,52
86138,3,7,1,1,-6,-14,-6,-18
86201,20,-3,-3,0,3,7,-5,-19
86246,4,12,6,-2,-16,-15,-1,0
86312,-10,9,6,8,6,-4,-17,-3
86374,16,3,-3,-3,1,2,-1,1
86434,-13,-34,7,3,13,6,-5,-19
86487,-46,-18,1,3,5,6,-4,35
86537,23,-12,-3,-3,-4,-2,-4,-17
86590,12,5,-3,0,5,6,9,23
86645,2,-5,-1,0,6,5,-14,27
86696,-11,-6,0,-1,-12,-2,4,-3
86754,-5,-9,1,7,18,12,7,4
86816,-36,-11,-9,-6,-2,-6,-1,14
86876,-19,-13,-10,-7,-10,-11,0,6
86927,4,5,3,2,-1,2,-3,-12
86979,46,-18,-5,-3,-2,4,1,22
87034,8,17,4,-1,-7,-2,-3,-36
87098,-24,7,1,5,12,13,11,-3
87137,-17,-6,-2,2,6,5,7,11
87196,-8,-8,-4,-1,-4,-12,-3,13
87242,4,23,-3,-2,-1,14,-3,11
87293,19,32,6,5,7,6,9,-46
87355,3,4,-3,-3,3,6,-1,-7
87418,-2,-9,-3,-5,-8,-6,-4,-6
87481,4,-2,-11,-13,-24,-35,-18,20
87529,-3,-3,1,4,14,13,7,16
87583,0,2,1,5,10,3,2,-19
87633,10,0,-1,-2,-5,-4,9,13
87686,7,3,0,1,5,7,8,30
87740,-5,0,-4,-9,-16,-9,-6,11
87800,10,12,2,8,20,20,6,-21
87865,-2,-3,-1,1,5,9,2,-3
87911,-25,-8,0,-1,-7,-13,-22,1
87963,23,0,-1,1,11,25,12,37
88015,-3,-11,-5,-6,-21,-21,-13,-13
88068,19,0,0,-7,-26,-20,7,49
88119,1,-1,-7,-9,-19,-10,2,-24
88181,-3,7,0,0,8,9,0,8
88224,5,1,1,1,0,-1,7,31
88278,0,6,5,11,32,21,3,-25
88334,18,19,1,-1,0,-1,-1,24
88397,-31,-20,-3,1,5,8,-2,-23
88458,6,6,-4,-6,-3,0,2,-24
88519,-5,-17,-4,-3,-10,-10,-5,-34
88579,-10,3,-4,-7,-17,-17,1,-3
88631,16,1,2,2,9,3,-19,-21
88683,13,6,1,3,12,8,9,-16
88735,-11,-6,-9,-14,-28,-35,-22,-12
88789,13,11,0,-6,-15,-6,0,21
88843,-9,-26,-7,-8,-10,5,3,-2
88893,10,-11,3,7,20,16,-7,-5
88947,-26,-17,-6,1,10,6,13,-52
88999,2,4,-3,-1,1,5,7,-7
89062,21,19,-6,-7,-17,-19,-18,12
89129,7,0,2,1,8,8,4,-7
89172,-5,-8,2,-1,-4,-7,-6,-24
89226,-20,-8,-3,-5,-8,-13,-7,-24
89274,-18,-3,-4,-4,-7,-4,-2,-8
89331,0,-3,3,2,5,5,-10,14
89384,-13,-16,-15,-20,-46,-48,-31,-64
89447,-30,-14,-12,-13,-26,-16,-17,-2
89500,-2,-11,3,5,6,10,5,-2
89561,1,-10,-1,-4,-3,-1,2,-5
89621,-3,-1,-9,-18,-52,-50,-16,-28
89676,-20,-23,-7,-4,-4,-5,-4,19
89725,8,2,6,2,9,15,12,-20
89778,-20,-10,0,-2,-9,-12,-6,23
89834,15,19,9,13,24,14,-23,-43
89893,15,13,5,6,10,7,2,-1
89940,13,11,5,3,10,-6,1,19
90003,-24,-10,-1,1,2,-3,-4,-17
90064,-18,-1,0,2,6,4,-3,-57
90119,-4,-4,-4,-6,-9,-5,-5,-20
90183,5,5,-4,-5,-12,-4,1,-28
90240,7,-1,-1,-1,-5,0,10,-5
90300,-2,-1,3,2,7,5,-2,-71
90363,-3,-13,-1,-3,-5,-6,-4,-21
90423,0,0,-1,-1,1,1,-1,-3
90483,5,-4,-2,-2,0,2,-2,17
90537,-23,-25,2,1,-1,1,4,2
90598,-4,9,4,3,0,-5,-2,19
90660,-4,-5,-2,0,0,6,5,5
90724,-6,-15,1,0,2,0,9,54
90783,-2,-5,2,-3,-5,-5,-3,-28
90846,-19,-7,-10,-12,-22,-17,-8,-20
90888,-18,-10,-2,-2,-9,-9,6,-6
90942,12,9,2,1,-12,-23,-1,12
91005,-6,-1,-4,-4,-9,-10,1,-14
91051,5,-11,-1,0,8,13,-5,17
91114,5,8,-1,-2,-8,-5,-6,52
91166,4,8,-3,1,2,-1,1,15
91225,-7,-15,2,3,5,11,0,-9
91286,-9,3,-4,2,-1,-6,6,1
91352,2,-1,2,8,18,10,12,-1
91412,5,7,-2,-2,3,9,7,-25
91459,4,-2,-2,-5,-19,-26,-8,16
91514,15,-4,1,6,21,19,10,10
91562,-12,-9,-3,1,5,7,1,-11
91616,-8,-1,-5,-2,2,3,-7,-22
91675,19,23,4,2,-1,-1,1,29
91728,20,22,-1,1,8,11,-2,-10
91792,-22,-28,-3,-1,1,6,4,-1
91839,-5,-14,-4,-1,-1,-2,-9,2
91903,8,9,6,0,4,-2,1,-13
91967,4,19,-7,-4,-10,-6,-8,-29
92029,-34,-22,-1,5,20,9,-2,5
92089,15,0,-4,-5,-1,0,-12,11
92140,26,20,-2,0,-10,-11,2,11
92202,10,4,5,2,11,13,0,16
92265,30,27,3,-1,-11,-12,-18,32
92328,-2,-5,-3,-7,-11,-8,-7,-13
92389,7,2,3,1,9,4,-7,-21
92448,-23,-20,-1,3,17,8,-3,-3
92502,0,6,-6,-6,-17,-23,-2,31
92552,-11,-10,0,0,-1,1,-3,-33
92608,3,-2,-6,-5,-11,-7,-3,58
92661,34,27,0,-1,-2,-1,-11,2
92715,9,4,1,1,1,7,-2,35
92768,-4,-20,-5,-2,-9,-4,2,29
92832,-5,-6,-3,2,0,-6,-10,15
92891,7,12,1,-1,2,1,4,-17
92941,-31,-13,-1,-1,-3,-1,-3,-25
93005,-18,-32,-15,-17,-35,-24,-2,26
93056,22,21,1,3,-3,-2,-11,-5
93109,4,2,2,3,10,5,0,17
93161,-3,2,0,2,7,13,6,11
93216,19,5,2,3,11,14,11,20
93271,0,-9,1,5,15,6,-1,-12
93335,17,12,-1,1,5,6,-3,8
93394,-10,-17,-6,-8,-20,-16,-7,39
93446,0,7,1,-2,-4,-15,-11,-18
93509,13,15,1,1,2,8,23,26
93570,8,4,1,-1,-3,5,-5,-9
93635,12,2,-3,-1,4,3,1,1
93695,-11,-15,0,-2,-8,-11,-10,-24
93747,-16,-14,-5,-6,-6,-4,15,-56
93817,15,0,-1,0,2,4,-4,-24
93881,-1,3,-2,-2,2,-4,-18,20
93934,12,20,7,3,-2,-5,19,23
93997,-21,-20,6,6,-1,-14,-12,-13
94053,0,14,1,-8,-19,-12,22,19
94108,-5,0,0,0,0,0,-10,-51
94172,10,6,4,6,14,15,1,-10
94233,4,13,0,-4,-22,-27,10,-15
94293,16,4,0,0,2,1,14,-1
94358,4,-6,2,4,10,4,1,-16
94406,-7,-5,0,-2,7,13,9,3
94456,7,5,-1,-1,2,5,2,38
94510,11,6,0,1,9,11,-7,35
94563,2,1,-2,0,-3,-7,5,7
94615,-21,-15,-4,-5,-3,3,7,14
94674,-4,-12,2,6,23,5,-2,22
94736,-13,8,5,3,23,18,11,0
94786,10,2,2,6,-4,-6,-16,-7
94841,33,5,1,-1,2,-7,40,32
94894,-2,-12,-5,-1,-2,-26,-88,-11
94951,-4,2,1,4,5,-11,1,10
94998,29,15,8,9,-7,8,-33,57
95055,28,23,7,5,4,2,24,68
95118,-9,7,-5,-13,-32,-40,-10,-20
95178,7,-6,3,3,7,8,10,1
95230,23,5,-3,-1,-12,-6,8,14
95283,8,8,2,1,-2,-1,28,27
95335,-15,-2,-2,2,3,4,13,-25
95388,-16,-6,-9,-9,-13,-3,8,-10
95440,-11,-2,-3,-5,-11,-5,1,10
95497,-12,-6,-1,5,8,12,11,1
95545,-6,-3,0,3,4,-2,3,19
95599,7,5,-3,-2,-2,3,-4,21
95656,-13,-11,-4,-8,-24,-24,-10,-13
95718,0,-2,2,2,-3,-9,16,-17
95780,5,-1,-1,3,11,12,18,5
95832,14,5,4,4,14,17,14,58
95882,17,5,1,4,9,14,-17,3
95938,2,14,0,-5,-9,-10,-4,-40
96000,15,15,2,9,35,45,-1,-9
96049,2,6,1,5,11,5,22,22
96100,-14,-10,-5,-3,-5,-5,0,-21
96160,-15,-14,-11,-8,-6,-7,24,-15
96221,0,0,3,8,24,18,14,-5
96283,-17,-11,-5,-4,2,-1,-8,-12
96335,-6,-13,-2,0,11,7,5,-28
96385,-7,-7,-2,-3,-10,-8,-2,-27
96440,-5,-18,-6,-5,-5,-2,-8,62
96491,16,17,6,4,9,12,-17,-12
96542,-4,0,1,7,18,23,-4,49
96595,-2,-7,-3,2,11,5,2,13
96655,2,-10,0,3,10,9,-33,-34
96701,2,1,7,11,26,23,13,30
96759,7,12,2,6,7,5,9,33
96822,-9,-8,-3,-1,-1,-3,-16,-8
96881,10,13,-1,3,11,6,-7,5
96941,7,7,-3,-5,-14,-10,-5,30
96993,-5,0,0,1,7,10,-2,10
97044,-4,-5,-2,4,27,26,7,-21
97098,9,9,3,2,5,-4,-8,-10
97158,-23,-6,1,5,18,10,2,-47
97204,-4,-4,-1,4,5,6,3,5
97258,1,-3,-2,1,4,5,3,2
97322,-13,-2,-3,-2,-6,4,-2,13
97384,-15,-7,1,-1,-8,-5,-1,11
97443,15,17,-3,-1,10,6,-12,-31
97497,-36,-10,-4,-4,-5,-9,-3,7
97560,-12,2,-2,-3,2,9,-19,35
97623,11,3,0,-3,-6,-1,-4,44
97684,-12,-5,1,2,-8,-7,-12,-15
97734,16,17,5,6,12,13,-10,-11
97797,-38,-6,-6,-4,-8,-8,-1,-22
97861,11,10,-1,0,13,17,4,-3
97923,18,2,3,0,4,7,2,3
97984,-4,9,2,-1,-6,-1,-28,-40
98047,3,2,7,7,15,13,21,-5
98106,3,12,0,-1,0,-4,1,-24
98159,8,6,5,8,22,23,6,16
98223,-14,-21,3,7,12,0,-13,-58
98285,12,7,-6,-18,-55,-34,-7,-18
98357,25,16,4,0,6,2,-17,23
98395,-12,-7,-7,-7,-15,-21,-11,8
98456,9,0,-1,1,14,12,7,33
98507,-11,-12,-11,-11,-27,-18,13,32
98560,-12,-6,-5,-5,-23,-21,-15,-14
98616,-13,1,5,9,22,15,16,5
98669,2,0,-3,-5,-5,-8,-6,-7
98732,-2,9,1,-1,12,13,11,23
98795,-9,-2,-4,-7,-18,-16,0,-48
98840,6,-16,-5,-1,0,-3,-6,8
98902,-7,-13,-3,-4,-3,1,-4,-15
98964,-3,-8,-3,1,-22,-37,-5,-28
99027,-9,-2,-3,-4,4,7,-1,7
99086,-3,11,-1,-6,2,2,2,8
99141,-15,-13,-4,-1,-1,5,-1,-1
99189,-4,-7,0,6,13,14,18,38
99243,-16,-18,-3,2,15,9,1,-4
99295,9,33,4,2,12,11,0,56
99350,11,-5,-6,-5,-10,0,10,-10
99405,-5,-9,-3,-5,-5,-6,-1,-33
99469,-2,-1,-8,-16,-38,-26,-7,-21
99529,1,-7,-2,2,6,-7,7,5
99583,-23,-11,-4,0,4,0,-22,-66
99645,-2,-2,-4,-5,-21,-23,-13,0
99709,9,14,3,6,8,5,4,-18
99772,3,1,2,3,3,3,8,8
99828,1,-5,2,2,8,2,-5,15
99888,-2,-2,-3,-1,0,-2,-2,-13
99943,2,-1,-3,-8,-16,-2,-3,5
99995,1,3,-3,-1,-10,-10,10,21
100053,-5,-4,4,7,11,6,2,12
100100,23,7,3,6,13,12,7,4
100150,-8,-4,-5,-8,-19,-12,-22,-54
100212,7,0,1,-3,-10,-8,-2,7
100275,-1,-11,-2,2,10,7,9,15
100338,12,23,2,1,-4,1,-2,-17
100392,-23,-14,-5,-3,0,-3,-3,-7
100442,-2,6,7,1,4,0,6,-8
100505,-17,-8,0,-1,13,11,12,-5
100567,4,-2,4,8,19,12,-4,7
100629,9,2,1,-1,-5,-4,4,-16
100691,-7,-3,2,-1,-4,1,18,-17
100751,14,6,0,-4,-17,-22,-16,8
100803,-8,-4,-1,-4,-2,0,6,-7
100866,1,1,-4,-3,-10,-6,-4,3
100931,8,6,2,4,19,18,2,-12
100991,13,14,0,2,11,7,3,15
101053,14,-8,-5,-6,-13,-5,-1,15
101103,-21,-7,5,5,18,3,-4,-18
101155,19,19,1,4,7,9,9,9
101208,-1,-1,0,4,12,15,-1,39
101259,5,-10,0,3,5,8,-12,14
101314,7,3,-1,-1,2,3,12,-18
101370,9,12,5,1,8,12,7,10
101433,6,-5,-2,1,9,9,6,-12
101493,-2,-5,-1,-2,-3,-8,-2,0
101545,-26,0,-1,-2,8,9,-5,-14
101608,14,11,3,1,0,-3,-7,16
101658,-4,-2,-2,-3,-11,-2,7,4
101715,0,-1,-1,1,2,0,5,20
101765,0,0,0,0,5,3,-5,-3
101818,20,5,5,6,5,3,1,-3
101875,-4,-6,-3,-1,-1,8,13,-22
101936,3,7,6,3,8,0,-7,2
101988,-6,0,-7,-12,-30,-25,-5,13
102051,-18,-18,-1,-5,-13,-9,-1,15
102124,-2,-8,-2,-3,2,5,3,-6
102176,-3,7,4,5,8,-13,-3,-12
102236,-4,-4,0,3,0,1,-15,18
102289,-4,-1,-2,-2,2,-4,1,-6
102350,1,8,-3,-2,2,0,-10,-27
102413,-5,-11,-6,-2,-1,4,5,29
102475,-2,-1,-5,-6,-5,3,0,-21
102535,3,9,0,-1,-7,-5,-1,1
102597,1,-5,-4,-8,-18,-14,-12,-11
102648,0,-6,-4,0,-4,-2,2,35
102700,20,14,3,4,11,8,5,26
102753,-7,-3,-2,-4,-20,-18,-5,-21
102808,-9,4,5,-1,-5,-8,-12,0
102859,0,-5,-3,0,6,-1,-7,-15
102918,4,-2,-2,-1,4,3,9,-23
102978,-6,-9,2,1,-1,-3,-18,-11
103029,-4,-2,3,2,11,13,11,-2
103087,-7,-2,-8,-15,-36,-22,-3,4
103135,-3,-7,-4,-2,-4,-6,15,18
103186,-6,-3,-3,-6,-16,-16,-9,41
103242,1,-2,3,5,11,9,-8,1
103294,0,4,-2,-1,-4,-5,8,7
103342,-7,5,3,8,20,16,5,10
103401,7,6,-4,-4,-4,-4,1,-2
103452,1,-2,-1,-1,2,1,-1,-5
103515,5,-8,-4,-1,-5,-5,0,-2
103577,-9,-6,-3,-9,-28,-25,-2,3
103638,6,1,-3,-2,7,0,5,22
103688,4,-6,-2,-1,4,10,0,23
103745,-5,2,-2,-11,-24,-7,-3,4
103799,-2,-4,1,6,29,26,14,-14
103856,10,-2,-2,-6,-2,11,20,18
103911,0,-2,-3,-3,-1,-2,4,-15
103961,-11,-5,2,-2,-5,-5,-7,-15
104019,13,-6,-2,-6,-14,-13,0,-2
104081,9,5,3,-1,3,5,-24,21
104141,15,-4,1,1,9,13,4,15
104193,-8,-2,0,0,0,5,1,11
104249,-5,-1,-3,2,7,10,13,13
104298,2,-1,0,0,-9,-9,1,7
104352,7,0,-5,-2,1,1,1,46
104405,4,-3,2,1,5,5,8,16
104454,8,6,0,-1,-8,-7,4,19
104509,-3,-2,-1,-3,-5,-1,-11,3
104561,-12,-7,-3,-2,0,3,6,20
104620,-1,0,0,4,10,5,5,-2
104681,5,-2,4,5,13,8,-1,-28
104741,15,8,3,0,0,-1,-2,9
104793,-3,9,8,6,12,4,6,-21
104847,-6,-27,-1,-5,-16,-14,-12,22
104898,9,8,-3,-5,-13,-9,1,8
104951,-2,-5,4,0,-2,-3,-8,7
105004,-18,-3,0,-2,0,-11,0,-2
105063,2,3,2,3,-1,-2,-8,-2
105123,5,4,-2,-8,-12,-5,-2,11
105184,-2,-2,0,-2,-5,-4,-8,-5
105240,8,0,-2,-1,-1,2,-2,34
105299,-3,-2,2,-3,2,5,9,-4
105365,-1,8,-1,-1,-1,-1,-4,-37
105427,-6,-2,2,3,3,4,10,4
105484,-9,-8,-5,-4,-8,-5,-6,15
105534,14,9,-7,-12,-11,1,1,5
105587,-9,-9,-3,-2,3,-4,-12,-23
105640,-2,-11,-3,-3,-9,-8,-4,8
105691,-4,1,-2,-2,-3,-2,-4,-23
105746,-9,-6,-3,-4,-8,-5,-6,-2
105802,14,5,5,6,22,20,7,20
105866,-5,0,4,1,4,1,0,24
105928,-11,-10,-4,-9,-16,-6,0,-13
105990,-5,-16,2,6,19,12,-6,10
106038,-1,-2,-3,-4,-8,-4,6,6
106103,-6,2,-1,1,0,3,19,-38
106174,4,2,2,2,8,5,1,6
106227,-17,-6,0,1,1,-8,-6,3
106285,2,6,4,8,6,-1,8,6
106337,-26,-15,1,1,0,0,-3,-2
106400,1,-7,-1,0,5,7,-4,-4
106465,-10,-6,-2,0,9,14,10,38
106526,-4,-2,-2,-2,0,-3,-8,-25
106587,-3,7,-5,-3,-5,-8,-11,-17
106641,-6,-11,0,2,13,9,-5,-7
106690,6,0,-1,-1,2,4,3,-3
106743,-2,5,3,5,20,15,2,-6
106796,10,8,1,-4,-11,-8,10,9
106852,20,20,2,2,11,7,-5,2
106913,-3,4,-1,1,5,3,-7,-7
106970,-13,-9,-2,4,10,3,24,-2
107035,5,14,6,5,6,4,0,6
107081,11,7,-1,-4,-8,-8,-16,-9
107145,-8,-7,-6,-7,-11,0,1,-14
107207,7,3,-3,-12,-21,-11,-5,28
107268,7,11,1,3,11,11,3,-18
107328,9,14,-3,-2,11,8,2,-1
107381,4,-1,2,4,7,1,-11,-1
107443,1,-3,0,1,5,2,-1,12
107505,-4,-4,-2,1,7,5,5,24
107568,6,3,0,-1,10,7,3,11
107629,5,-9,-3,-2,3,7,0,24
107678,-24,-19,-2,1,0,-11,-12,14
107732,3,-3,1,2,2,0,-5,-32
107785,-5,-5,1,1,3,4,3,-17
107838,1,13,-5,-10,-46,-50,-19,-12
107891,3,5,2,-3,-10,-11,3,22
107948,1,-2,-3,-4,1,5,-4,24
108012,-1,12,-2,-9,-34,-41,-14,-26
108073,13,6,6,3,17,11,10,13
108122,-5,10,-1,-6,-10,-10,7,-34
108186,-31,-8,0,1,7,3,-13,-23
108248,-12,-9,-2,1,10,9,10,9
108314,-4,1,-2,-4,-4,-2,-11,6
108371,1,-3,-3,-1,-3,5,2,35
108426,-22,-13,-13,-21,-45,-29,-21,-31
108474,1,-5,-5,1,4,3,-1,-5
108528,9,8,-3,-3,1,1,-18,-56
108580,-10,-10,-5,-6,-8,-5,-2,6
108634,15,12,-2,-2,-1,-10,-6,-41
108689,-10,-5,0,-3,-11,-25,-19,7
108760,7,2,-3,-5,-19,-13,3,-1
108822,6,5,-2,-4,-5,-4,-4,24
108873,-7,-5,-4,-3,-6,-1,5,0
108927,-13,-7,-1,-1,-9,-9,-5,2
108988,4,-1,4,9,20,16,-10,15
109051,-27,-9,-5,-2,-9,-10,-7,-30
109113,2,4,-3,-8,-17,-5,5,4
109174,-10,3,-4,-2,6,4,6,6
109225,1,3,4,2,7,4,-5,4
109284,0,5,1,1,0,4,1,3
109331,8,7,0,-3,-17,-17,-6,6
109385,10,-4,1,3,12,-3,-30,-22
109436,6,4,-4,-4,-5,-4,-3,2
109496,-6,-21,-2,-8,-16,-3,25,-13
109559,-1,-2,0,-3,-9,0,5,10
109606,2,4,0,0,-8,-12,2,-10
109669,-12,-9,2,4,7,9,8,8
109731,9,5,-3,-4,-6,-8,6,9
109796,-9,-4,0,-3,-5,-5,-13,7
109859,11,-1,-2,-3,-1,2,6,-14
109916,13,5,-3,-1,5,10,10,23
109969,11,10,3,1,1,0,-15,36
110030,17,17,2,8,20,17,1,30
110093,3,0,5,5,15,10,-14,34
110158,-2,-12,4,1,-4,-5,-1,0
110218,-9,7,1,1,3,5,-5,-9
110277,-5,6,2,-1,-3,-10,-3,-4
110327,-2,0,-2,-3,-3,0,-1,-20
110379,-1,-2,1,3,1,-1,-4,1
110432,-1,2,-5,-7,-27,-15,-2,-24
110485,-2,-6,0,-1,2,1,5,-2
110540,-39,-26,-1,-1,1,-1,2,-21
110596,-1,6,-3,-2,3,3,1,-8
110661,-19,-11,-2,-2,1,5,5,-44
110718,-7,-3,-1,0,7,8,-9,-7
110773,0,5,0,0,2,-5,-7,7
110826,3,12,2,0,6,10,0,-27
110875,2,-3,-1,-4,-6,1,13,14
110927,-10,-4,-3,-1,1,-1,-2,-21
110980,-13,-11,1,4,2,-4,-5,-1
111036,-18,4,-2,-1,0,1,0,-18
111089,3,-1,0,-1,6,4,3,-24
111138,5,1,1,2,18,17,10,13
111198,4,1,1,0,11,10,1,3
111259,-7,-5,-6,-9,-11,-3,13,-27
111309,0,-6,-9,-7,-10,-5,3,-13
111370,2,-4,0,0,5,4,-4,5
111422,-4,-9,-3,-1,0,5,2,-26
111476,-4,-5,0,2,-1,-4,-12,13
111528,-18,-13,-6,-8,-15,-12,-3,-12
111580,0,1,1,-3,2,-3,1,3
111640,6,-1,1,1,-9,-13,-19,4
111701,8,16,6,5,9,5,-6,-3
111760,-1,-4,-1,1,2,0,-12,-7
111812,0,1,3,6,16,9,7,43
111870,6,8,-2,-7,-12,-14,-1,-8
111922,-7,-3,-7,-11,-19,-13,2,-6
111977,-23,-6,-1,2,14,14,-3,-13
112031,0,1,-4,4,-2,-7,-22,-5
112084,-2,2,0,4,14,10,1,-14
112143,15,15,-2,-4,0,11,3,-9
112205,11,9,1,1,2,1,-3,-9
112263,12,1,-1,-1,1,6,6,24
112316,2,-6,0,3,6,9,0,16
112369,-1,-5,2,0,3,6,-1,11
112422,10,-1,-4,-5,-5,-2,0,-2
112472,-14,-8,-1,-2,-2,-2,-4,-21
112524,1,9,4,5,17,11,2,-4
112578,-14,-10,0,2,7,5,6,6
112631,1,-3,1,-2,0,2,-4,9
112684,2,2,0,-3,-6,-2,2,-7
112747,-2,-5,-4,-4,2,5,0,-7
112807,10,14,-1,-6,-11,-7,-7,-14
112868,17,12,-10,-10,-25,-18,-4,3
112928,2,-2,2,2,-3,-4,12,14
112976,-1,-3,1,3,5,5,6,6
113034,2,3,-3,-5,-8,-3,-8,31
113087,16,7,-3,-7,-15,-11,-8,-2
113143,-27,-13,-10,-13,-34,-29,-6,-16
113196,-6,4,-5,-5,-15,-19,-15,-13
113246,-5,-20,8,14,37,30,8,8
113306,-14,-11,-5,-2,-8,-7,11,4
113366,-18,-5,1,5,17,20,-2,4
113426,-8,6,6,9,20,13,-25,23
113482,8,5,8,6,13,14,7,8
113541,5,-7,-1,-7,-18,-13,-8,-78
113592,33,22,4,8,25,24,13,41
113643,-17,-26,-10,-16,-58,-53,12,-38
113701,5,4,-6,-2,-12,-12,-1,26
113762,10,23,1,1,3,-1,-6,18
113824,-3,11,-1,0,4,0,-16,-21
113886,20,14,1,1,-4,-12,-1,27
113935,21,20,4,6,22,21,11,-1
113988,14,6,-3,-11,-20,-6,34,32
114047,-19,3,-4,-8,-19,-9,-1,17
114108,7,-6,0,6,20,19,21,23
114168,-14,-26,-7,-1,3,13,4,-18
114222,7,-5,-4,3,15,8,10,-53
114283,-3,8,0,-1,1,-1,7,-71
114348,-37,-15,-2,-6,-11,-8,13,41
114408,25,2,5,5,11,6,21,40
114468,40,34,3,2,5,-2,-22,23
114521,27,20,1,7,25,18,11,38
114590,9,1,1,5,8,6,1,-7
114652,3,4,11,0,-9,-1,-3,6
114714,3,10,-4,-3,-1,-3,-3,56
114769,4,1,0,-2,-1,-1,4,-5
114821,17,18,3,12,24,16,-3,-19
114884,-16,3,-1,5,14,-18,-35,-67
114949,11,-4,1,1,13,15,2,11
115010,0,5,-1,-2,-31,-22,11,5
115068,-47,-59,-7,-8,-14,-16,-16,-4
115120,-6,-4,-6,-4,-1,-4,-12,-21
115174,-2,15,1,-2,1,3,7,14
115234,-23,-2,5,12,26,13,4,-38
115278,-21,-32,-9,-6,-5,3,-8,-3
115332,11,28,7,6,14,2,5,22
115392,-17,-6,-11,-19,-42,-28,-17,2
115455,-13,-20,-1,2,10,17,4,-2
115517,3,3,-2,-6,-9,-9,-8,-19
115571,-5,-7,-5,-6,-9,-12,-12,2
115625,13,-3,-3,-4,-5,4,4,35
115688,12,23,4,1,17,21,1,-4
115750,-7,1,0,4,6,6,1,-10
115812,4,8,1,-3,0,3,-1,-36
115862,-23,5,-2,-1,-1,-3,3,-12
115925,31,16,0,-13,-27,-18,13,-17
115989,4,19,2,9,11,-9,0,-3
116052,14,-6,-1,1,-1,-2,-16,-57
116111,-7,4,-4,-5,-9,-3,13,27
116168,-26,-46,-4,-8,-18,-26,-15,-44
116216,0,-11,-1,-5,-20,-32,-10,32
116270,11,-2,7,-11,-41,-34,-4,22
116321,4,2,0,0,6,1,-5,-3
116373,-6,2,-5,-8,-30,-23,0,-8
116430,-3,-4,-1,-3,-4,-7,-14,-26
116492,-8,-5,-8,-8,-2,12,3,7
116553,-7,-19,3,1,5,4,2,12
116614,-14,-13,-2,-3,-1,0,12,1
116670,-13,-6,-2,-2,-6,1,0,13
116733,2,-3,-1,3,7,8,29,14
116796,-9,-8,-7,-12,-11,-13,-14,-31
116855,-5,8,-2,-2,3,0,6,27
116919,2,-18,3,-4,-16,-22,-16,-30
116981,13,10,-6,-8,-32,-35,-5,-14
117028,16,7,5,5,20,18,0,8
117091,22,20,4,7,15,14,8,55
117154,11,-19,-2,0,9,16,-2,24
117214,7,10,-4,-4,-20,-18,19,-44
117267,-13,-7,-5,-5,5,11,-4,-56
117317,-4,4,2,1,4,6,11,-25
117369,13,13,2,0,2,11,6,27
117424,-8,-10,-3,1,4,5,0,12
117478,6,12,1,-1,1,-4,-10,16
117534,1,2,1,-2,-3,-4,-8,-8
117596,12,7,-3,-14,-38,-27,6,-14
117658,-5,-15,3,4,-3,-12,-5,-40
117716,-3,-2,-8,-8,-13,-4,15,-7
117774,11,-9,-7,-10,-20,-24,4,22
117838,-1,-11,1,4,10,4,-10,7
117902,7,-1,-4,1,-7,-7,6,53
117955,2,-4,0,-3,-7,-3,-4,33
118007,21,10,-1,1,3,-5,2,-27
118059,-5,-10,0,1,7,7,-2,-11
118121,1,-8,-5,-9,-17,-6,2,25
118166,-11,-13,-9,-11,-23,-29,-9,20
118218,12,12,2,1,4,6,0,27
118278,19,16,5,4,7,1,14,20
118341,11,-2,3,2,7,1,-13,-5
118403,-3,4,-4,-8,-19,-20,7,-11
118449,-3,1,-3,-6,-9,-1,9,5
118502,5,9,5,0,-1,-5,-3,-11
118555,11,5,-3,2,1,4,6,16
118608,-15,2,-1,-2,-6,-2,-10,-37
118660,1,-4,-10,-7,-19,-24,6,-5
118718,15,22,-6,-1,-3,-2,14,38
118781,22,11,4,4,10,15,9,8
118841,7,-3,-1,-1,3,3,-12,2
118903,11,23,2,-3,-8,-1,-21,22
118953,-13,-11,0,-2,-4,-3,0,5
119005,-26,-16,-9,-11,-47,-39,-5,-39
119058,-7,1,1,-7,-18,-18,-16,-41
119112,-6,-12,1,-1,5,4,-9,-4
119162,20,19,2,3,6,9,6,5
119220,1,-1,2,5,17,17,15,26
119268,-10,-3,0,1,1,0,3,33
119318,-22,-17,-7,-8,-14,-6,11,26
119380,4,0,2,4,18,17,18,-7
119440,4,-9,-4,-5,-8,-6,-13,12
119493,4,-9,1,8,21,10,6,3
119545,-35,-18,-5,-3,0,2,-5,-40
119599,-21,-8,-4,-7,-24,-26,-29,-36
119649,-2,-19,-1,-2,-7,-6,-5,10
119703,9,1,-1,2,2,6,7,0
119759,-22,-11,-12,-17,-38,-25,-5,-24
119822,13,7,2,-1,-11,-14,6,-6
119884,3,-6,0,2,6,0,3,-27
119943,-5,-6,-2,-1,-4,-4,2,-12
119998,-6,-11,1,4,11,5,1,15
120047,5,-7,-1,-6,-1,8,14,-9
120103,14,1,2,-1,5,-8,-9,-41
120153,12,9,2,1,3,-3,-1,7
120205,5,-2,3,8,15,12,13,-26
120258,8,-4,0,3,4,6,4,7
120308,5,4,0,-1,-1,3,1,-1
120365,-2,-6,0,-4,-4,-3,5,20
120418,-50,-35,-8,-9,-19,-11,1,-30
120467,1,0,-3,-5,-10,-5,7,29
120527,2,4,-3,-1,4,9,-2,5
120581,18,15,-2,-6,-10,-2,-11,-1
120636,-4,-10,-1,0,8,16,11,-14
120689,-11,-14,-1,1,2,8,10,34
120745,-15,2,5,5,4,1,4,10
120806,-13,11,-1,2,4,1,-13,-48
120858,-7,-8,-5,-3,-6,-6,-6,-28
120920,-7,20,10,3,6,7,-4,-45
120981,8,5,-5,-3,3,6,4,-5
121045,-32,-2,-2,-4,-8,-5,-11,-20
121105,41,17,3,1,-14,-9,-11,-39
121166,-45,-34,-10,-1,-7,-8,-4,-23
121229,10,-23,-1,-4,-2,3,7,-3
121278,15,10,6,5,26,28,11,14
121341,0,9,6,6,5,4,-3,28
121405,9,4,7,11,21,13,-10,14
121466,-14,-13,-8,-3,6,12,3,-18
121516,-19,-14,-10,-5,-12,-9,11,-10
121581,-10,-3,0,-2,1,0,-2,-18
121645,-2,1,-2,-1,1,0,-5,-15
121706,-20,4,-2,-1,7,1,-3,-51
121766,7,21,-3,0,4,6,-2,0
121826,19,18,0,-8,-19,-11,-2,-38
121888,-1,-5,-2,-15,-27,-14,7,30
121952,-7,-7,0,1,7,-2,-3,22
122014,18,21,5,4,9,9,-8,25
122066,-1,-9,-4,-6,-11,-5,4,-26
122119,7,1,6,11,31,23,-2,40
122172,3,-20,0,13,34,27,8,9
122222,12,12,2,5,7,6,16,22
122274,-2,7,-3,0,3,-4,1,-6
122328,-4,4,-3,-5,-2,6,-7,67
122388,-3,-3,2,3,11,7,-10,12
122450,-5,-16,-8,-12,-43,-37,-21,4
122511,-1,-1,-3,-2,-8,-3,6,-30
122574,-11,-1,2,6,12,4,0,-30
122622,-4,-9,0,5,24,14,-4,-6
122673,-3,-3,2,0,1,4,-13,-4
122725,-3,-10,0,6,21,12,5,-4
122778,3,-15,14,18,55,56,1,-54
122831,1,-7,8,13,42,43,16,46
122889,-25,0,6,2,6,-2,1,23
122950,9,1,3,1,9,11,6,-22
123010,-3,-6,-5,-6,-11,-10,9,-16
123064,-1,3,-2,-1,2,2,17,21
123135,13,16,0,-3,-1,14,14,24
123198,4,29,3,1,-1,-2,13,-22
123252,-11,-6,3,8,34,29,8,60
123312,9,1,0,-1,-1,-20,1,3
123364,-14,-3,-2,4,13,13,-5,-33
123416,25,9,5,2,-1,1,-1,3
123468,-5,-25,-8,-3,-2,-7,2,-37
123522,16,-11,-4,-2,-2,0,-8,8
123582,1,-4,-2,0,3,8,-6,-30
123635,-4,2,-3,2,8,7,0,-27
123694,4,9,4,0,2,1,-7,13
123754,4,20,6,4,12,19,15,24
123814,8,3,0,-1,4,4,-3,1
123867,-32,-36,1,0,11,18,20,26
123931,8,1,2,-5,-17,-7,15,28
123993,3,-8,-1,1,-1,-6,-12,63
124053,0,1,-2,-3,-8,-8,4,-5
124106,-17,-13,-1,1,8,-5,-8,-37
124168,-3,0,1,3,2,3,8,-18
124231,22,20,0,5,17,18,7,9
124293,0,8,-7,-6,-17,-14,-10,-28
124353,-8,0,1,-4,-11,-9,12,-3
124406,23,20,-3,-2,2,3,6,-10
124467,-4,-2,-3,1,4,5,6,-8
124530,-7,-3,-5,-4,-10,-9,-17,-25
124592,15,12,2,1,10,6,1,-20
124655,-11,1,0,-5,-10,-6,-12,-20
124710,1,4,-11,-23,-64,-47,-4,9
124756,6,10,0,4,10,9,10,-16
124810,-13,-1,-1,1,6,9,-2,-19
124869,8,14,3,-1,1,2,2,0
124916,3,5,3,6,21,15,3,13
124975,18,19,-4,-4,-5,-4,6,-25
125036,-1,-6,-4,0,6,6,-2,7
125096,-3,-9,-1,-2,-2,-3,7,1
125150,23,9,0,-2,-4,-6,-7,-55
125217,-6,-11,-7,-2,-11,-11,-11,20
125273,16,6,-1,-1,8,13,1,24
125336,-3,5,-3,-3,3,9,5,34
125399,-5,-7,-1,-1,6,8,-2,-1
125457,15,1,0,1,12,18,2,0
125508,10,9,2,2,4,-1,5,-35
125559,1,-2,0,0,3,0,-3,-59
125613,-5,-4,-2,-1,2,2,4,-8
125666,-8,-7,5,-1,-5,-10,-31,-30
125724,-2,1,-4,-2,-2,-3,-10,-4
125775,14,10,1,-1,1,4,6,29
125838,-7,-2,-8,-9,-24,-14,1,20
125900,-9,-8,-4,-3,-1,1,16,-7
125952,12,14,3,0,-3,1,4,-33
126014,7,8,-3,-2,-2,3,1,13
126078,-11,0,1,0,2,3,-3,1
126141,15,11,3,2,0,-2,1,-16
126199,9,9,-1,-1,0,-1,-21,-7
126260,8,-13,-7,-6,-20,-17,5,10
126322,-7,-1,-2,-2,-5,-5,-1,-47
126372,-4,3,0,0,3,1,-3,-12
126423,-13,-11,1,2,8,9,5,-18
126475,6,4,0,2,9,7,8,11
126527,10,12,-5,-8,-12,-7,-8,-23
126581,-10,-10,-1,0,5,4,-3,42
126642,-12,-7,-2,-1,2,-2,6,-20
126700,11,2,2,5,3,4,-1,8
126757,14,12,3,-1,-3,-2,1,22
126804,-5,-2,1,5,17,16,5,22
126857,-26,-17,-4,-2,-10,-20,-7,-9
126911,1,-2,0,0,1,-2,1,13
126973,-11,-5,1,0,1,2,4,-3
127016,-3,-4,-4,2,0,-20,-4,-38
127068,-4,8,-3,-2,-1,-1,10,-9
127120,-5,-3,0,1,1,0,0,-13
127180,-17,-9,2,2,-12,-31,-8,-8
127240,12,12,0,-5,-8,-7,6,-38
127300,-3,0,1,0,-4,0,-5,-25
127353,-9,-6,-5,-8,-19,-17,-4,-26
127411,13,10,-4,-4,-8,-5,-5,-11
127474,5,7,2,-2,-4,1,-8,53
127519,-32,-41,-5,-4,-6,-4,0,-32
127576,3,7,0,-4,-4,-2,-16,23
127638,0,-2,-2,-2,-4,-5,-22,-29
127698,15,5,-2,1,7,4,9,28
127761,5,9,-1,0,2,-3,5,-16
127811,-6,-5,1,1,5,-3,4,18
127863,1,-11,3,3,9,2,4,-2
127920,-2,-1,3,4,15,8,-2,38
127983,2,8,1,2,7,1,5,25
128044,7,8,0,1,4,5,0,-7
128105,9,4,4,5,9,11,-34,29
128157,8,5,0,0,1,3,3,0
128208,-4,-7,-2,-4,-5,1,1,19
128259,-9,6,4,4,26,26,0,-16
128316,9,-8,-2,2,8,10,6,9
128367,-11,-11,-6,-6,-17,-17,-7,-13
128426,4,1,3,6,8,4,5,20
128485,-1,13,-1,-7,-5,1,1,-9
128538,-1,-4,-1,-1,-2,-2,1,-31
128600,-5,-1,2,5,9,9,-3,0
128664,12,-14,1,-3,-3,-1,1,-10
128726,15,12,2,1,6,5,2,-2
128786,-1,-6,-5,-3,-4,-4,0,6
128837,5,6,4,4,7,4,2,-32
128898,5,-1,0,-1,-4,0,2,-29
128960,15,-1,-2,7,21,15,-3,3
129023,-16,-1,0,0,-1,-1,-4,7
129087,13,9,5,5,8,4,-1,-3
129146,4,8,1,0,-4,-1,-7,-21
129196,-5,1,2,4,13,11,-13,-2
129260,4,-2,1,2,2,1,-4,-8
129311,-4,-4,1,0,7,6,-2,15
129362,-10,-5,0,2,14,6,20,14
129418,6,6,4,3,1,3,-4,-9
129474,5,4,0,-4,-25,-22,1,-18
129536,2,-6,-1,-2,-15,-13,6,-6
129590,13,2,-2,0,-4,-6,1,-25
129642,-22,-16,-7,-12,-34,-33,0,17
129703,-9,-5,0,-1,-4,-4,-5,-3
129769,1,0,0,-2,-1,0,-5,-9
129828,-9,-2,-6,-11,-18,-9,-3,-9
129888,-9,-3,2,1,-4,-6,2,1
129940,-8,-4,0,8,9,3,-1,13
130003,7,3,-4,-5,-11,-11,-9,-5
130066,15,21,0,0,-2,1,-1,-18
130135,-11,-4,-2,-1,-3,1,1,-15
130188,-10,-1,-2,-9,-43,-46,-10,1
130239,1,5,0,-2,0,3,-5,-15
130293,0,-8,0,3,17,11,8,1
130347,-3,3,2,1,7,1,10,11
130398,1,14,1,-2,2,-2,-3,29
130452,-17,-13,-11,-5,-9,-13,-21,4
130509,-4,-4,-6,-4,-9,-8,-2,-2
130571,3,0,1,-1,-4,1,-3,40
130631,0,-1,-1,-6,-14,-8,-2,28
130684,-13,-10,-1,-4,2,-4,-14,-6
130752,-13,-10,3,6,17,13,-7,0
130813,0,2,-1,-4,-12,-16,-6,-4
130873,-5,0,2,5,4,-4,2,-11
130935,11,13,5,5,17,9,1,21
130983,10,-3,0,5,7,7,0,17
131045,-16,2,2,1,3,-4,-3,0
131109,-4,2,2,4,19,22,-2,13
131171,2,10,0,4,7,8,-1,-12
131231,-14,-9,1,1,7,9,3,-22
131284,-8,-4,-2,1,8,7,4,10
131335,3,-1,-3,-3,-18,-20,6,-19
131388,-17,-11,0,0,-3,-8,6,19
131443,3,2,0,3,7,7,6,-12
131494,-2,-2,-1,-2,-8,-7,-12,-63
131556,-16,-7,-2,0,-5,-1,-6,-5
131619,11,13,1,-1,-7,-5,2,-8
131673,-1,-3,0,1,5,7,5,8
131727,-1,-10,-3,-3,-10,-8,-4,5
131791,-14,-20,-6,-3,-10,-8,-10,-71
131854,-6,-3,-2,0,4,7,4,-4
131914,-21,-16,0,-1,1,2,4,12
131967,-7,-6,-1,1,4,1,3,12
132029,-3,-10,1,5,6,5,1,23
132093,-4,-4,-2,-5,-8,-6,-2,12
132153,9,3,6,6,21,14,-9,-29
132214,-3,-6,2,6,9,8,1,10
132268,-6,-6,-3,1,4,1,-2,-12
132319,2,-1,-2,0,0,3,-2,7
132377,0,4,-5,-2,2,2,2,29
132432,-8,-8,-2,-4,1,2,7,28
132488,12,22,8,14,36,30,7,5
132550,4,1,-4,-3,-4,-2,-15,9
132611,-22,-22,-9,-14,-42,-35,-15,-9
132662,16,20,5,3,7,1,2,38
132716,3,2,-6,-4,-5,-1,6,4
132772,-10,13,-2,-8,-17,-9,6,-12
132835,-9,-3,-1,0,3,1,5,-2
132896,-2,11,3,3,9,5,-18,-27
132955,-1,-3,1,5,4,5,3,14
133007,-9,-7,-3,2,9,9,-4,-33
133071,-2,0,-1,-2,-5,-7,-8,8
133133,-11,-10,-4,-4,-25,-44,1,33
133196,-22,-25,-5,-1,9,13,-7,6
133256,-7,-9,-2,0,-1,-13,-14,-19
133316,-2,6,0,5,6,8,3,-20
133377,0,-5,-4,0,0,-3,-4,5
133422,-1,-6,-1,-5,-14,-9,-6,-18
133471,-10,-13,-5,-6,-24,-22,-3,-5
133527,5,5,-3,-4,-6,-4,3,20
133578,4,5,1,2,3,3,4,18
133638,5,7,0,0,2,-5,1,3
133698,-4,-2,-1,1,8,9,7,-6
133749,-18,-10,-1,-2,-3,-5,-6,0
133811,5,8,2,1,2,4,0,36
133874,-3,1,1,3,11,7,5,-9
133937,2,10,6,6,13,9,-7,-27
133999,-8,0,-8,-12,-22,-14,-9,-42
134058,1,-1,2,3,12,5,-6,-40
134114,-3,-1,1,0,1,-4,3,-1
134181,10,4,-4,-10,-27,-26,-2,-3
134242,-7,-9,0,0,5,4,-1,4
134299,7,-3,1,2,2,0,-2,2
134350,4,-2,-3,2,6,0,3,23
134405,2,-6,-4,-7,-8,-2,4,8
134461,4,2,3,1,6,6,0,16
134518,13,3,2,3,12,12,7,9
134567,-13,-12,-5,-4,-10,-9,3,6
134618,-14,-16,-5,-2,1,3,1,-14
134680,-16,-10,-3,-2,-12,-17,1,3
134740,0,0,-2,-5,-13,-8,6,39
134793,16,11,1,2,8,9,3,21
134851,2,-7,1,1,2,4,-2,1
134899,-10,1,-4,-5,-10,-20,1,17
134950,-7,-6,-4,-5,-10,-3,1,-13
135006,1,2,1,3,10,17,3,2
135067,8,8,0,-1,-2,1,2,11
135122,-15,-4,-7,-8,-23,-13,-5,-1
135182,20,14,2,3,12,13,5,6
135234,-12,-10,-1,1,10,13,-8,27
135287,1,4,1,0,3,0,3,16
135342,8,-8,-3,-3,-7,-5,-5,-13
135395,-19,-5,1,2,10,12,2,-39
135446,11,-2,-4,-2,6,7,5,14
135499,-15,-26,-1,-4,-23,-22,-6,-13
135550,10,3,-1,1,1,2,4,4
135602,-10,-14,-1,2,6,4,0,20
135663,9,15,3,6,11,9,-2,6
135723,-7,6,-2,-4,-4,-8,-8,-24
135788,-1,3,-3,-5,-10,-11,0,5
135843,6,4,-5,-5,-8,-6,-16,1
135897,1,-1,1,6,17,8,-15,-33
135961,-5,-17,-2,3,8,0,-8,-3
136023,-7,-3,-4,-3,2,6,-2,-2
136083,5,4,-2,-2,-9,-8,1,10
136141,5,-3,-3,-3,-5,-4,1,4
136188,-8,-10,-1,-1,-5,-2,-3,-20
136240,-9,-15,0,0,6,7,-5,-11
136294,4,7,-4,-10,-12,-1,4,-3
136346,9,2,-2,-1,1,-4,-1,8
136404,-6,-7,-5,-9,-19,-13,-2,-21
136466,3,5,5,7,10,11,2,2
136526,-2,-10,-2,-1,0,0,4,32
136578,6,-8,-2,1,3,2,2,5
136633,-2,-3,0,5,11,5,-4,-21
136683,-16,6,-8,-17,-47,-37,-12,-20
136739,-3,-9,-4,-4,-17,-16,-9,4
136789,-5,-13,-1,-1,5,-6,-8,-27
136846,12,10,0,1,0,-2,-1,26
136910,10,8,1,4,13,12,11,30
136968,-4,-4,-5,-5,-9,-9,-5,29
137022,-10,3,-2,-8,-12,-8,4,15
137086,8,6,3,3,8,10,10,12
137145,25,5,5,2,-8,-29,-5,48
137210,-8,-4,-1,-2,3,5,2,-10
137268,-11,-9,-5,-8,-29,-28,1,3
137319,18,17,-1,-12,-36,-28,-5,0
137381,1,4,-4,-11,-45,-39,-6,-36
137433,1,-1,1,8,31,29,4,-2
137486,-17,-7,-5,-5,-14,-9,-2,13
137542,-10,0,5,9,21,20,-3,11
137591,-4,-7,-1,0,-8,-15,-6,29
137642,-16,-6,0,0,2,2,-9,-71
137698,3,5,1,-1,-9,-19,-1,-30
137749,-1,-1,-3,-4,-9,-10,-11,-34
137805,-2,-3,1,0,1,0,-5,61
137867,-2,-5,-2,-2,-1,-3,0,12
137928,5,6,-4,-2,3,8,2,4
137988,11,0,5,-2,-10,-6,-7,5
138040,-8,-3,-2,-1,3,1,4,-14
138093,-6,-11,3,3,5,5,-2,-15
138145,3,7,-1,0,10,12,2,-13
138199,-5,-2,-2,3,1,0,4,14
138251,6,-2,-2,-3,-6,-4,-4,-9
138310,4,4,1,0,-5,-6,4,-32
138371,-4,-7,1,5,14,9,0,-4
138432,-4,-14,-3,-6,-21,-21,-1,24
138482,5,0,-7,-12,-42,-45,-5,-7
138550,-5,-15,-1,-3,-3,-4,-1,-10
138611,15,19,2,-5,-17,-10,3,2
138672,-3,3,-5,-13,-30,-18,-5,13
138732,-10,8,-3,-1,7,11,-2,-11
138780,4,3,-1,-3,0,5,-7,-18
138834,-13,-7,-3,-1,-8,-5,-7,-4
138887,-12,10,-2,-5,-11,-10,-15,-4
138948,15,27,0,1,1,-1,4,19
139008,-5,-1,-5,-2,-6,-11,-1,-17
139066,-3,0,-4,-1,-4,-2,0,-17
139115,7,0,-5,2,7,4,3,20
139171,14,10,1,0,0,-2,-9,0
139234,-6,-12,-3,-4,-5,-2,-4,-7
139293,3,-1,-8,-10,-25,-18,-13,-9
139355,-12,-13,-3,-2,3,8,8,-33
139407,9,3,-1,3,8,8,1,15
139468,-45,-18,-4,-8,-15,-14,7,11
139532,4,7,1,2,3,7,-7,-18
139594,-35,-18,0,1,0,2,-3,-31
139656,6,0,-1,0,11,6,-3,35
139707,-15,-3,-2,-5,-12,-5,-7,22
139757,2,9,1,0,3,0,-1,33
139810,-5,-2,-1,-3,-3,-2,-14,18
139866,5,7,3,3,5,2,-4,-25
139916,-14,-5,-1,1,2,0,-5,-11
139976,-10,-13,-8,-6,-10,-3,3,-11
140040,4,-9,-3,-3,-1,0,-3,24
140096,3,10,3,4,10,7,4,-3
140150,13,10,-1,4,11,8,-11,63
140212,-3,4,-6,-7,-17,-8,3,-33
140273,8,3,-3,-4,-13,-22,-7,17
140335,-3,-14,2,6,11,13,3,31
140395,2,-6,-3,-3,4,-1,-1,44
140450,3,3,3,3,2,-2,-1,-34
140512,-17,-15,-4,-6,-8,-8,-2,-2
140575,8,10,0,-3,-8,-4,3,41
140636,-3,-5,-6,-13,-41,-36,-29,44
140686,6,5,-5,-9,-26,-28,-11,-10
140740,-12,-9,-5,-3,-2,1,4,12
140793,-6,-5,-3,1,0,-2,-2,-1
140852,-4,-9,-4,-4,-6,-9,0,20
140906,6,0,0,2,-6,-2,2,-2
140964,-18,-16,-3,-3,-4,-6,1,8
141016,-4,-8,-2,-2,-11,-9,-4,-56
141084,12,10,-2,-6,-21,-13,3,-24
141139,-3,-17,-5,-8,-6,-5,1,8
141191,-4,-2,-3,-1,-1,2,2,-11
141253,6,5,0,-4,-3,-5,2,16
141316,-12,-10,-3,-1,-6,-8,-22,14
141377,5,4,0,-2,-1,-4,2,-7
141438,18,19,5,5,13,10,-6,-16
141501,4,2,-2,-5,-11,-13,-9,-33
141555,3,-9,1,2,9,9,3,3
141601,2,4,1,2,1,-3,-2,4
141655,13,17,-2,1,-12,-11,1,9
141708,2,-3,1,0,-3,-3,-10,-33
141764,-8,-24,-2,-3,-5,0,-2,-11
141821,6,-4,-1,-1,3,0,4,44
141882,2,-9,-3,-1,6,-1,-5,17
141941,-7,-8,-4,-3,-4,-6,-3,2
141991,0,1,4,0,-2,-5,0,-31
142055,-8,-11,1,4,15,13,-1,-12
142119,-5,0,-2,-1,-9,-16,-7,-46
142181,25,12,-5,-12,-22,-7,1,9
142241,-6,-2,2,1,3,1,0,-25
142295,12,6,0,2,0,2,6,42
142345,4,2,0,-1,-4,-3,2,16
142398,8,4,0,1,8,4,-2,-11
142450,-9,-3,0,5,23,21,-6,-2
142502,-6,-6,1,5,13,1,11,30
142563,-3,-3,2,3,4,2,-1,-15
142623,15,17,6,7,17,20,6,4
142684,0,0,1,1,3,7,10,19
142736,12,18,2,3,3,3,-4,-10
142788,-3,-2,-1,0,-5,-4,-2,-11
142839,-5,-5,-2,-1,-1,1,4,1
142893,5,-2,2,-4,-10,-4,4,-15
142944,1,7,-1,1,1,2,0,-2
143003,0,3,2,4,16,12,5,7
143058,-3,-5,-4,-2,-1,1,0,-14
143113,18,18,3,0,-2,-1,0,21
143161,1,2,-2,-2,-7,-2,2,73
143223,-3,-1,7,6,17,10,4,-11
143283,1,3,1,-1,-6,-7,-1,16
143334,-1,-4,-1,-3,-20,-29,-3,4
143392,-13,-1,-1,-2,-13,-14,-1,0
143440,-7,-11,0,-1,-1,1,7,10
143491,-8,-9,-1,-1,-19,-24,-1,5
143545,-3,1,-6,-2,0,1,4,-5
143605,11,12,-3,0,2,3,6,1
143671,15,7,-6,-2,-2,0,-1,7
143727,13,1,-3,-6,-17,-19,-2,-11
143789,-5,-12,-9,-13,-18,-12,-6,-10
143839,9,10,2,3,2,0,0,12
143889,23,14,3,2,1,3,0,7
143943,18,4,3,8,19,9,12,28
143996,0,4,-2,-2,11,12,-4,11
144047,6,1,-3,-8,-9,-12,-4,0
144101,9,11,-2,-3,-8,-6,1,-5
144162,-4,-5,-2,-2,1,-1,-6,2
144206,2,2,-2,-1,4,9,2,36
144267,-2,-8,-4,-4,-17,-14,1,22
144328,-5,-1,-3,-3,-2,1,9,19
144377,5,-4,-2,3,-4,-10,-3,0
144429,10,4,3,2,5,2,1,-17
144482,6,5,-2,-2,-13,-12,1,8
144535,11,6,-3,-4,-5,-3,3,43
144589,8,2,1,-4,-8,-12,-5,30
144648,0,-7,-2,-2,-4,-6,4,-28
144708,3,2,-1,0,-1,3,0,-2
144769,-26,-8,-3,2,0,-3,-4,-31
144821,3,3,-5,-4,-2,1,-4,0
144890,12,-1,2,8,22,21,9,-6
144950,6,19,4,1,2,2,-1,12
145011,-22,-14,-3,0,-2,-1,4,31
145072,-11,5,-2,3,1,4,0,-27
145118,17,5,3,2,8,3,0,5
145181,10,12,2,0,3,-1,5,13
145244,-5,-6,4,4,0,-6,-4,-26
145309,-7,-3,0,0,-8,-12,2,0
145367,26,18,-2,4,5,10,8,16
145429,7,-3,-3,-5,-17,-9,-1,-9
145483,4,-1,-4,-1,-7,-8,-1,-12
145537,3,-5,-7,-4,-6,-1,-4,9
145585,0,4,4,8,21,20,3,41
145638,-25,-34,-6,-3,3,3,-3,-1
145691,-4,-5,1,-1,-5,-7,-8,1
145750,15,21,1,2,12,10,8,33
145811,1,-3,1,5,19,25,6,1
145876,3,19,0,2,5,6,1,-33
145923,-3,-6,-2,0,0,2,1,-3
145985,-5,3,-2,2,9,7,-5,-28
146047,7,-5,3,6,19,14,5,-1
146112,-39,-22,-9,-13,-22,-4,7,17
146173,9,4,-1,4,18,13,1,2
146220,-6,0,-1,-5,-11,-10,-1,-11
146286,2,0,2,-5,-7,-6,7,30
146339,8,5,1,3,5,12,1,29
146388,-2,8,1,0,-3,-6,4,22
146443,-8,-14,-2,2,8,7,3,11
146494,6,7,-1,0,0,1,0,-11
146555,0,5,-3,-4,-11,-21,-5,-14
146613,-2,-2,-2,-7,-27,-24,0,-2
146674,-10,-14,-1,6,14,16,0,5
146729,7,0,-4,-2,-4,-3,-2,-5
146795,1,0,-1,0,3,1,3,-2
146857,-3,-9,-3,-3,0,-3,1,8
146917,8,6,0,0,4,0,-3,13
146968,-3,-3,1,3,3,1,0,-9
147028,4,11,-11,-17,-44,-31,-10,-11
147091,1,5,6,12,39,39,1,-40
147156,1,-9,-3,-1,-8,-10,1,1
147213,-19,-9,4,3,2,-7,3,18
147273,-2,3,2,4,14,15,4,-1
147326,-10,-12,0,0,-2,-3,-5,-2
147377,-3,-7,-5,-6,-7,-5,2,-1
147430,-5,8,-5,-7,-11,-8,13,-26
147490,0,4,-3,-7,-31,-40,-7,5
147544,-8,-12,3,4,6,2,4,5
147597,-13,-13,-2,-1,-1,-2,-4,-28
147660,-7,-4,-7,-8,-23,-26,-4,-1
147722,1,-2,3,5,6,-2,-4,8
147783,-5,-11,1,1,1,-5,-1,-2
147828,1,-1,-1,-2,4,2,4,20
147892,3,0,0,2,5,5,5,26
147956,5,-2,0,-1,10,11,-4,-3
148016,10,10,2,-1,6,9,0,-2
148067,6,5,-5,-10,-15,-13,-6,-14
148128,14,18,4,4,18,20,6,-6
148189,-19,-22,-6,-8,-33,-50,-8,-25
148253,7,3,6,7,19,22,4,-6
148317,14,0,3,3,1,3,3,35
148377,-32,-24,-2,-2,0,0,-7,-15
148438,-2,7,3,-2,-3,-5,3,-9
148487,2,-1,2,6,18,12,-2,-39
148539,8,3,-1,-5,-21,-17,-6,-7
148592,-13,-17,-9,-17,-36,-25,-5,-48
148643,-17,-14,-3,0,-1,0,4,16
148698,-20,-21,-2,-3,-5,-7,-1,-18
148759,-8,-8,0,-8,-9,-2,-5,-18
148819,4,-3,-6,-2,4,9,5,9
148880,-10,-16,-7,-3,-8,-4,-3,-17
148931,5,4,-1,-1,-2,0,4,19
149001,-13,-13,-2,-3,-12,-11,-3,-5
149055,0,3,0,-3,1,5,-1,-44
149120,0,5,3,5,10,12,4,34
149190,-2,3,3,2,15,15,-1,-22
149230,5,12,3,0,4,3,-2,12
149285,-6,-7,-1,1,1,1,0,18
149335,-2,-9,0,3,12,13,0,-28
149385,-35,-21,-7,-10,-16,-8,-7,-19
149441,2,4,4,2,5,10,-1,-8
149499,-18,-30,-6,-8,-13,-5,4,-21
149560,-11,2,-3,-3,-4,-4,-8,2
149621,14,5,0,0,4,-2,-6,12
149685,22,6,4,2,8,3,-4,-4
149732,-14,-5,0,1,1,1,-9,-11
149797,-16,-11,-5,-2,-4,-2,3,19
149860,-6,-7,-3,-4,-5,-6,-3,-17
149923,12,13,3,5,15,9,1,-8
149981,-11,-9,-5,-8,-9,-6,-4,-1
150031,-20,-5,-3,-2,-3,-5,-7,-1
150084,-23,-29,-2,-10,-40,-61,-14,1
150138,-9,-3,1,0,-6,-11,-4,-18
150191,-2,-8,-1,-1,-3,2,3,-17
150243,-16,-20,-1,0,3,-4,1,4
150299,-5,-9,-6,-8,-23,-23,-6,0
150362,-15,-2,0,1,-7,-9,-6,9
150422,-26,-15,-3,-2,-1,0,-7,-38
150482,-8,0,-1,-1,0,-4,-4,-9
150535,-10,19,-2,-5,-20,-23,0,-15
150588,-6,2,-2,-5,-11,-5,-8,-1
150641,14,18,7,5,8,5,5,-14
150694,-10,-7,1,3,14,15,3,-10
150745,-11,-10,-2,3,5,0,5,-18
150797,4,-3,0,-3,1,-1,-2,25
150849,-32,-18,-3,-1,1,-2,-4,-19
150906,8,14,-1,-3,-5,3,-3,-12
150967,3,11,0,0,0,6,3,9
151027,-11,-19,-2,1,7,3,-5,-22
151089,11,6,-6,-8,-15,-20,-5,12
151135,3,1,1,7,20,23,3,4
151188,-2,6,-4,-1,2,7,-3,3
151246,4,10,-2,-3,-4,-8,-1,-11
151291,8,-2,3,5,18,15,6,21
151346,7,14,-8,-9,-22,-14,-5,9
151402,6,7,-4,-1,4,9,-1,-9
151465,-4,7,1,0,5,2,-6,7
151526,-33,-21,-4,-1,-1,-4,-2,23
151578,11,7,2,3,2,6,4,18
151629,6,1,0,-1,-8,-7,-2,9
151684,17,4,-1,-1,-5,-8,-6,-15
151735,4,1,3,0,-1,-2,2,-18
151788,7,3,0,-1,-1,-7,3,26
151838,-23,-18,-6,-16,-55,-42,-10,10
151892,8,6,3,3,7,3,1,1
151947,3,1,-3,-3,1,1,0,-28
152005,-3,-9,-3,-3,-10,-10,1,7
152065,13,-6,-3,0,7,4,0,-6
152125,-12,-5,-3,-1,2,-4,-11,-26
152175,-5,-5,1,-1,1,1,-7,-18
152232,3,2,-3,-2,0,5,3,-4
152283,-2,2,-4,-7,-24,-21,-8,-43
152334,-3,2,-3,-6,-17,-10,4,9
152389,2,14,1,-4,-1,-2,-5,-45
152445,4,13,4,2,-4,-6,-1,18
152509,4,4,-3,-3,-2,-11,-4,2
152567,5,1,-1,0,-9,-10,-4,-3
152623,-4,10,0,-4,-13,-13,-3,-11
152674,24,7,-1,0,9,9,1,7
152726,-1,-9,6,-5,-12,-7,-2,-12
152780,13,3,-1,-2,6,7,4,-3
152830,-22,-45,-5,0,2,0,-4,-5
152889,-10,-11,-3,0,7,4,-8,-3
152950,-4,7,-1,1,10,9,1,3
153010,6,8,-2,-1,-8,-14,0,4
153063,1,1,2,1,-8,-14,-10,-6
153127,-5,9,-1,-5,-10,-6,1,0
153190,3,-1,3,3,11,12,3,17
153251,-16,-4,-3,-3,-17,-18,-10,-28
153311,-3,3,-2,3,9,13,7,-9
153362,-3,-2,0,0,2,6,-4,-32
153424,-7,-6,-3,-2,0,-1,-4,2
153488,14,7,2,-1,-4,-1,4,-12
153550,0,0,-4,-10,-31,-26,-1,11
153611,2,-3,0,-1,-6,-12,-2,-10
153663,8,10,2,2,6,3,-3,17
153729,-4,-1,-2,-8,-21,-18,3,14
153789,10,1,0,1,4,-1,-7,7
153853,0,-2,0,0,1,-1,1,11
153915,12,7,-3,-1,-1,1,-8,5
153977,1,0,-5,-5,-8,-1,-1,3
154023,-12,-8,1,-3,-8,-5,-3,-11
154076,15,12,4,2,8,11,1,9
154133,-23,-28,0,-2,-3,2,-3,-50
154180,3,2,-6,-13,-30,-25,-11,19
154233,10,7,-2,-4,-4,7,4,8
154291,15,6,3,5,14,19,6,-8
154354,-4,0,-3,-1,-5,-3,-1,7
154414,2,2,1,3,7,3,3,16
154463,13,9,-4,-4,3,10,0,35
154527,4,3,0,-1,2,1,0,-7
154591,12,-1,-4,0,-6,-9,-1,4
154651,1,1,1,2,14,14,6,-3
154712,2,-2,-1,-5,-6,1,-6,-28
154774,10,16,4,4,6,4,7,38
154836,-5,3,1,3,10,12,-1,-3
154885,12,10,0,-4,-8,-5,3,9
154939,9,11,0,3,-6,-5,-18,-37
154991,-11,-2,0,-1,1,0,6,22
155041,9,16,4,-2,3,8,2,31
155095,-10,-16,-2,-1,-4,-5,-2,5
155152,-2,-3,-4,-3,-9,-8,-5,16
155214,25,30,3,-1,-2,-1,3,2
155276,6,2,1,1,1,3,-2,7
155336,0,-3,0,0,7,8,1,-27
155387,3,0,2,3,10,10,5,5
155450,1,-6,-4,-3,-9,-9,-2,30
155514,-30,-17,-3,-4,-2,4,9,5
155583,8,-2,-8,-13,-24,-9,-1,-4
155640,3,3,0,-1,2,1,0,21
155689,0,-15,-1,-8,-11,-6,-5,21
155740,4,7,-1,0,6,10,1,-28
155793,25,-15,4,-1,-10,-19,-4,-2
155847,4,-6,1,-1,-5,-1,8,39
155899,-1,-1,-6,-6,-19,-25,-3,-39
155959,-3,-10,3,5,14,13,5,5
156018,4,6,1,-2,-11,-15,2,1
156077,6,1,2,4,12,7,-5,4
156137,1,6,0,-5,-10,-9,-11,-19
156199,3,-5,7,10,28,19,-3,-12
156260,13,11,4,6,9,6,2,34
156320,-5,0,-3,-2,-15,-9,-1,-3
156381,-7,-9,-4,-8,-19,-11,1,4
156429,8,9,3,-1,-6,-6,1,23
156493,14,12,-2,-2,-1,4,-4,10
156554,1,2,3,0,2,1,2,5
156624,7,5,0,3,14,18,9,7
156685,4,10,2,0,2,1,4,3
156738,-5,-6,-1,0,2,4,-5,-5
156799,3,0,-2,0,-3,-2,6,43
156848,10,-11,-4,-18,-39,-24,-6,-4
156905,7,6,2,-1,-2,1,0,10
156955,-27,6,-1,6,17,16,-9,-25
157007,-6,-2,-3,2,8,6,-3,14
157062,-8,-3,-4,-4,-8,-7,-4,-21
157117,0,10,-3,-3,-4,-5,0,-12
157179,1,-9,-1,1,6,8,-3,-15
157243,-1,-7,-8,-12,-30,-24,-16,-42
157305,-5,-4,-1,3,15,11,0,-21
157354,-4,-5,-1,0,-3,-2,4,25
157417,2,10,5,-1,-4,-7,-5,-1
157478,14,3,0,-2,-4,1,-4,14
157542,-16,-4,-4,-2,-10,-20,-6,-21
157601,-32,-15,-3,-2,-4,-4,0,26
157653,-5,2,2,-3,-6,-4,-7,-18
157708,5,4,-1,-2,-2,-1,-1,-10
157758,12,-3,-2,-3,-6,-2,3,10
157810,-6,-2,-3,-1,-3,-1,-4,5
157865,19,12,3,3,3,0,-3,-14
157924,-6,-8,2,6,23,8,-4,-40
157983,-6,3,3,1,9,-2,-12,-58
158049,-1,-2,-1,-2,-6,-5,-3,-3
158111,-3,-5,-4,-1,-3,1,6,-9
158155,8,16,7,4,16,7,-2,-35
158217,-6,-1,-1,-3,-7,-5,-4,-25
158280,-12,-4,2,4,17,13,3,-5
158346,5,-1,-3,-3,1,-2,-3,-18
158403,-6,-7,0,2,7,4,3,2
158454,1,1,-3,-1,-5,-1,1,2
158509,-2,-11,-1,0,-5,-3,-4,20
158560,-28,-9,-5,-5,-5,-5,-5,31
158612,6,7,3,6,11,15,11,18
158665,4,2,4,1,-2,-5,1,-3
158725,12,16,6,5,15,7,-8,-23
158786,12,21,5,0,-10,-8,0,-5
158845,-8,2,1,4,10,8,2,7
158897,15,21,4,4,22,23,0,1
158951,5,2,3,1,9,9,-7,-63
159004,-1,-2,-2,-2,-7,-8,-1,16
159056,1,5,-1,-1,-2,-2,-6,9
159108,-4,-4,-4,-2,0,1,6,-15
159159,-11,-7,1,-1,6,8,-5,-10
159218,4,-3,1,3,9,6,8,28
159266,-1,-15,-3,-1,-6,-10,9,9
159324,13,3,-2,-2,-10,-15,-5,-14
159377,11,14,-1,-1,1,4,2,-39
159429,-2,-16,-7,-9,-6,-16,-3,32
159482,-14,-8,1,0,-7,-3,-3,0
159542,6,-2,-1,-1,5,10,0,17
159602,1,-4,-4,-2,-4,-1,10,8
159657,1,-1,4,4,15,10,3,38
159708,-20,-13,-1,4,9,7,4,44
159764,20,10,-2,-3,-10,-5,8,24
159815,-15,1,0,-1,0,2,-5,-19
159865,4,3,-1,1,12,9,3,18
159919,23,23,-2,-4,-2,0,-3,17
159973,5,0,-1,1,3,1,0,0
160023,11,-1,-1,7,6,0,-1,25
160076,-6,1,0,5,8,10,-4,-26
160128,-13,-10,-7,-4,-9,-6,-14,-46
160187,-19,-6,0,-3,-5,-5,4,11
160248,-7,2,4,5,13,11,4,9
160307,-18,-1,0,0,-1,-6,-3,-19
160368,-9,-8,-5,-6,-6,0,5,32
160423,-9,-8,-3,-5,-9,-6,-6,-16
160471,-1,-2,-1,-1,8,8,0,-18
160526,-6,-7,-3,-2,-25,-28,-9,-33
160580,-34,-18,-1,-2,5,2,5,-12
160631,3,10,-2,0,-2,-2,-2,0
160688,-4,-2,-2,0,-1,2,4,-17
160750,-19,-3,2,-2,-3,-1,-1,-8
160810,-10,-16,-3,1,5,3,-2,10
160863,16,24,4,4,10,5,-1,-26
160924,5,6,-2,-2,5,3,2,-15
160987,20,20,-2,-1,0,0,0,23
161050,-13,-9,-1,0,3,2,6,-7
161111,5,-15,-2,-1,0,4,2,-11
161171,-6,4,-1,3,-4,-7,-5,-7
161224,7,-6,0,-2,-11,-9,-11,4
161286,8,12,-1,-4,-16,-14,-1,2
161351,-2,-1,-4,-6,-11,-7,-2,-7
161411,29,18,-1,-5,-14,-7,2,-7
161471,26,22,-2,-5,-8,-7,-10,-4
161523,2,12,1,-1,1,5,5,41
161580,16,8,2,4,9,6,-1,-3
161630,-6,-2,0,-2,-5,-3,-9,-42
161679,-1,3,1,-3,-9,-6,1,20
161732,-9,-3,-2,0,9,4,-6,-47
161790,6,10,0,-3,0,-1,-6,3
161853,1,-24,-2,-1,-4,-4,-7,-10
161905,4,2,2,-1,-1,2,2,7
161967,-2,-3,0,2,5,4,-3,-30
162029,-8,-3,-1,0,0,-4,3,4
162091,2,3,1,0,12,7,-9,3
162154,-3,-10,-3,-1,4,7,3,-26
162213,9,-2,-6,-7,-10,-5,5,29
162265,0,-5,4,2,6,9,1,16
162329,-12,-1,0,-1,-10,-10,-9,-31
162391,6,2,0,-1,-3,-8,4,-3
162455,4,12,0,-2,-6,-10,-16,-30
162514,8,8,1,-8,-19,-9,-3,-23
162570,-5,-3,-5,-4,-14,-17,5,-18
162616,1,2,-2,-2,-8,-11,-6,-13
162670,12,13,1,-6,-20,-20,-13,45
162725,9,-2,-2,-1,4,3,5,-15
162775,-11,-18,-3,-6,-12,-5,5,22
162833,-5,-11,-5,-5,-4,-1,2,9
162896,18,8,1,4,6,4,2,7
162955,-27,-14,-4,-2,-4,-5,-4,-14
163008,9,21,-5,-5,-11,-13,-11,-3
163070,-12,-3,-2,-2,0,1,-3,0
163134,9,20,-2,-5,-19,-15,-4,14
163196,-4,-4,-3,-5,-9,-4,-5,-17
163258,-9,-8,-3,1,-3,0,1,25
163316,16,11,2,1,4,5,1,26
163376,5,12,7,1,-5,-2,-6,-24
163431,-15,-5,-2,1,0,-1,2,-6
163480,-25,-13,-5,-3,-1,0,3,-3
163539,10,-9,-1,-2,-9,-11,0,13
163593,18,5,2,-1,5,5,3,1
163650,-4,-7,-3,-4,-6,-3,-2,-21
163715,-1,-2,-4,-5,-4,-1,2,-8
163774,-1,6,4,6,13,7,-4,-40
163836,-8,4,0,-1,-2,-6,-5,-23
163884,-27,-38,0,7,22,10,-2,-16
163938,-12,-22,-4,-5,-10,-8,0,6
163995,0,0,-4,-6,-20,-22,-4,-10
164058,4,-1,-7,-9,-21,-14,-10,-37
164119,-1,-2,0,1,5,2,-3,-1
164174,10,1,-1,-5,-14,-13,1,-21
164221,-2,-13,-5,-4,-7,-5,6,4
164275,-8,-6,-3,-3,-7,-8,0,6
164335,-3,-4,-3,-3,-3,-3,0,3
164389,3,0,-2,-3,-1,-2,-1,7
164440,27,21,-1,-2,-5,-2,6,17
164495,-18,-3,-1,0,2,-2,-13,-56
164558,0,4,-3,-2,-5,-5,-4,2
164620,-4,6,0,-1,14,16,-1,-11
164680,18,6,-5,-7,-8,1,-2,-16
164741,11,3,-4,0,-4,-12,-10,-14
164793,9,7,5,12,35,31,13,21
164855,-13,-2,-2,0,1,2,2,-6
164918,-23,-18,-4,0,0,-2,2,13
164981,2,-2,-3,-3,-2,1,-3,-1
165040,-8,-2,-2,-3,-5,-6,-7,22
165091,-3,0,-5,-6,-8,0,1,-11
165155,-9,-17,-5,-3,4,5,-6,-76
165206,7,5,2,3,6,3,-3,6
165266,5,4,-1,-3,-3,2,4,27
165313,-14,-18,-7,-8,-21,-10,-11,0
165363,4,-1,-2,0,4,8,-1,-38
165424,-3,-1,0,-1,1,3,0,22
165473,13,-1,1,1,6,-1,4,-22
165535,11,6,-2,-1,-7,-12,-4,-1
165598,-7,-9,-2,-3,2,-1,-8,-13
165661,0,-7,0,1,0,-2,-9,4
165728,10,8,3,1,1,0,-12,2
165783,-8,-11,-2,-3,-5,-6,0,2
165835,-2,0,1,2,4,7,0,19
165897,-4,-1,-4,-4,-19,-20,-13,-43
165959,0,3,0,0,-1,1,7,28
166022,-21,-13,-4,1,4,1,0,7
166083,3,-4,3,2,7,7,1,-12
166143,-6,-2,0,2,2,-1,-5,-8
166196,-22,-21,-4,-3,3,3,-4,-16
166248,11,11,0,-2,-8,-6,5,1
166303,-1,-6,1,2,5,11,-2,-3
166352,10,4,-2,-2,2,1,1,24
166405,8,15,4,5,12,12,-5,-25
166466,7,6,1,-1,-2,2,-4,-3
166525,-3,-1,-2,-1,-1,-1,-7,-10
166591,-25,-15,0,2,2,1,1,-22
166646,6,6,0,-1,-2,-4,1,-8
166702,-6,-3,2,2,4,1,-2,-22
166765,-21,-7,2,2,10,7,-1,15
166825,3,1,-3,-4,-15,-15,-1,1
166877,-1,-8,-2,0,0,3,1,3
166935,1,0,1,2,0,3,-6,13
166982,-7,-19,5,1,1,-3,4,6
167037,2,5,-4,-3,-5,-3,3,32
167089,15,18,-1,-2,7,3,4,16
167145,5,7,-4,-2,-4,-4,-3,3
167209,-16,-6,-6,-7,-15,-16,-7,3
167273,3,-4,-3,-4,-8,-6,-4,-4
167328,5,5,-4,-7,-17,-4,-2,-5
167380,-3,-6,-1,1,6,6,-1,-3
167433,5,6,0,-4,4,8,3,9
167485,3,-12,-2,1,0,2,4,7
167539,21,14,2,-1,-2,2,0,16
167604,1,2,-4,-4,0,0,-3,-33
167670,-16,-9,1,-1,-8,-13,1,9
167727,-4,2,-1,-1,3,4,-3,10
167793,3,3,-4,-3,-6,-5,0,18
167838,-1,1,1,6,13,11,2,1
167891,7,10,-3,-3,-9,-6,0,5
167941,4,6,-3,-2,3,2,-4,-26
167995,-6,-6,-4,-6,-7,1,3,-19
168047,2,-9,-2,1,12,4,1,-14
168107,-8,-14,-2,0,2,5,3,35
168167,3,-2,-2,-4,-3,3,-6,31
168228,-7,-8,-4,-4,-2,-3,-3,-28
168289,6,-1,-4,-2,-6,-7,0,5
168341,8,-10,-5,-8,-17,-7,-3,8
168406,0,-1,0,2,8,6,-2,10
168467,-1,0,0,-1,4,5,-7,31
168530,10,11,4,5,22,19,5,22
168587,-21,-16,0,3,5,0,3,-32
168643,-11,0,-5,-13,-38,-39,-16,-18
168695,8,5,0,-1,-1,-16,-2,-19
168746,11,6,0,1,1,3,-1,2
168799,11,4,0,-1,0,2,2,5
168850,3,2,-2,-1,-2,-4,4,27
168909,0,3,-2,-4,-8,-9,-7,-7
168971,-1,1,4,4,13,15,0,5
169031,10,9,2,-2,1,3,-10,-30
169085,7,11,-1,-4,-1,-1,3,17
169147,-11,-20,3,-3,-1,0,-6,-9
169210,6,5,-1,-1,-3,-3,8,7
169271,11,1,-4,-1,2,6,4,17
169331,0,1,-3,-4,-15,-11,-12,-42
169383,-6,-1,-1,4,14,14,7,-10
169434,5,5,0,0,1,0,5,27
169495,8,-3,-1,-3,-21,-21,-10,-34
169541,7,17,1,2,3,2,2,7
169593,8,6,-4,-4,-3,-2,-1,0
169653,0,-1,3,6,15,16,5,3
169715,-1,-6,-3,-3,-16,-21,-6,5
169773,-6,0,-4,-3,-6,-1,-3,1
169825,-11,-17,-5,-3,-4,-6,-9,-4
169887,-6,-8,-1,-3,-6,-10,-2,-18
169956,3,-1,-4,-2,-1,3,-4,-4
170018,3,5,-5,-8,-22,-28,-10,-3
170078,-3,0,-2,-2,1,0,-7,-44
170125,4,0,-1,1,9,5,4,4
170177,4,3,-1,0,5,7,2,-6
170231,-1,3,-4,-3,0,-3,-7,4
170283,1,-7,4,2,7,3,1,-13
170336,3,-3,0,0,4,7,5,8
170393,-9,-10,-3,-5,-5,2,2,9
170456,27,28,-1,-4,-4,-5,2,-2
170515,0,-3,-2,0,2,4,6,-6
170576,4,9,6,4,0,-5,-8,-24
170629,-6,-7,-3,-4,-4,-1,7,34
170695,-14,-10,-3,-10,-33,-29,1,16
170756,-2,5,-2,-1,1,-2,-5,-42
170816,-3,-4,-2,-2,-4,-8,-8,-40
170869,7,8,3,5,19,17,9,5
170935,-5,-15,-4,2,3,-1,-3,-36
170997,13,6,0,-5,-11,-7,-4,10
171055,8,15,-1,2,5,7,6,0
171108,-1,18,0,0,5,5,1,36
171160,-5,-2,-3,-1,-8,-7,-26,-14
171212,11,17,-2,0,2,-1,2,0
171264,13,6,-3,-5,-10,-9,-7,-50
171319,2,-8,-1,0,3,-3,-4,-13
171379,8,16,5,4,17,12,4,15
171441,-3,-11,-2,2,0,-2,3,12
171503,15,5,-1,2,9,7,9,50
171561,-7,1,1,1,-2,-3,-2,12
171612,-11,-6,-5,-9,-30,-18,-8,-6
171673,8,15,-2,2,1,1,-2,-15
171735,26,27,3,7,13,5,5,18
171798,-3,4,2,0,-1,-1,-5,15
171860,-8,-10,-2,-3,-6,-2,7,5
171919,10,21,5,1,-1,-8,-3,-23
171973,12,4,-4,-6,-10,-10,-1,35
172035,7,-5,-5,-1,1,5,4,44
172096,0,-8,-1,3,23,17,0,-31
172158,4,5,2,1,9,6,11,20
172219,-6,6,0,1,2,0,-8,-2
172274,20,13,-1,-7,-18,-24,-4,6
172323,5,12,4,5,6,-7,-3,7
172374,20,15,0,1,-3,-7,7,20
172429,-23,-12,1,4,13,9,0,-4
172482,-6,2,1,1,8,6,6,-11
172543,0,2,0,0,2,9,4,14
172603,-8,-4,2,1,1,3,-1,23
172664,3,-11,1,3,6,6,4,-2
172724,6,11,1,-2,-10,-21,-6,-11
172774,8,2,1,-1,3,2,3,28
172845,10,10,4,3,2,-2,-7,1
172905,1,3,-1,0,6,9,1,-5
172966,17,9,1,0,-1,-7,-6,-7
173021,-4,1,0,-3,-10,-15,-7,-12
173073,-3,-5,-11,-17,-38,-30,-6,0
173127,-33,-22,-2,-2,5,7,-4,4
173177,7,8,-6,-6,-5,-4,-8,-25
173233,-4,-1,-3,-3,2,11,14,16
173283,8,-1,-2,1,2,-2,1,-23
173340,-32,-40,-9,-10,-16,-15,-8,-8
173401,-11,7,3,3,-1,-7,7,-11
173464,9,9,0,-3,7,5,-1,5
173523,-5,1,-1,-1,12,11,5,0
173575,-5,-2,1,-4,-10,-8,-8,-64
173639,-11,-7,0,-7,-18,-10,5,-9
173702,-8,-9,-3,-4,-9,-5,5,9
173765,0,2,-2,-4,0,3,0,-7
173826,-7,-5,-1,1,5,2,0,-1
173874,-19,-11,4,-3,-6,-9,-5,-1
173929,-6,3,-1,-4,-8,-2,14,-7
173980,-2,-3,4,4,8,4,-10,-38
174033,8,9,-3,-1,-2,-5,-1,-12
174085,-2,2,-1,-5,-16,-13,-6,4
174143,5,1,-8,-13,-31,-22,-4,0
174206,-9,-4,-2,-5,-5,-3,-3,-29
174260,10,17,3,2,3,1,4,15
174309,-7,-20,-3,-2,-3,-7,-4,8
174363,-1,7,-8,-11,-13,-3,4,30
174423,-16,-16,0,-7,-18,-21,-10,-1
174475,-2,3,-1,-6,-17,-9,-5,-6
174528,13,17,3,1,0,0,-4,-7
174586,-17,-8,-5,-10,-15,-6,-1,36
174639,5,4,-3,-2,5,7,2,-12
174692,12,13,-1,-2,-4,-5,-7,-1
174745,6,-8,3,1,8,9,4,22
174806,9,4,-1,2,9,2,-6,-20
174865,5,3,2,2,5,4,2,16
174917,8,14,-3,-9,-29,-29,-8,-1
174970,-17,-16,-1,3,7,3,-3,-6
175025,-7,-1,1,2,-3,-8,-14,-11
175075,1,2,-2,-7,-12,-13,-3,-2
175128,3,8,2,0,9,7,4,16
175186,-13,-29,4,7,13,-4,-6,-21
175247,-13,-13,1,2,12,5,-5,12
175307,1,-1,1,2,8,0,-4,-27
175358,12,9,1,0,3,1,-6,-7
175416,-5,0,-3,1,2,3,-1,12
175468,-4,-5,-9,-18,-66,-62,-22,-29
175525,16,15,5,-1,1,2,1,10
175579,-11,-7,-5,-7,-17,-32,-3,3
175637,-8,5,-2,-3,-27,-29,-1,10
175691,0,0,1,2,6,12,4,30
175751,-1,11,-3,0,-2,-4,2,-17
175801,14,14,1,4,8,4,6,23
175854,-2,1,1,4,16,16,8,2
175917,2,-5,0,4,17,12,1,-33
175961,-5,-8,-3,-3,-5,-4,-2,-15
176014,8,5,0,-2,-2,0,-2,-23
176065,-2,-8,-3,-2,-2,-1,-1,-13
176119,10,3,5,7,27,21,5,15
176170,-1,-6,4,7,20,19,3,1
176229,-34,-12,-6,-4,-1,0,-1,-5
176291,11,15,5,4,10,8,-7,-14
176350,2,4,3,0,-5,-7,-4,6
176405,-12,-11,1,2,11,16,2,-9
176456,-10,-1,3,1,10,4,-14,1
176509,-10,-1,-2,0,2,0,-3,-20
176564,2,2,-1,3,8,7,5,4
176613,3,7,-2,-1,1,-4,-5,-1
176671,3,7,-5,-2,-3,-2,8,-16
176733,2,3,0,0,8,2,2,4
176793,-8,-10,-2,-1,0,-3,-2,6
176845,-1,-4,-2,-2,-8,-3,6,12
176907,1,-8,-2,-3,1,2,-1,-14
176970,0,2,4,4,6,8,-6,-31
177032,0,7,-4,-1,-6,-11,-8,3
177093,2,0,1,1,0,-2,-3,-4
177145,6,3,1,-1,-5,-10,-13,-19
177208,3,6,0,-2,5,5,0,-12
177269,6,-1,-3,-1,-6,-6,-5,3
177331,6,9,-3,-1,1,-6,2,6
177393,5,2,-2,-2,-1,-1,-1,14
177453,3,5,0,-3,-16,-10,2,5
177508,-1,-2,-1,-4,-10,-11,-4,-12
177557,-35,-28,-2,-1,6,5,-4,-8
177610,5,-2,-1,0,3,2,1,-6
177668,-13,-10,-2,0,-1,-2,-6,21
177715,-3,-3,-5,-10,-11,-7,-12,-6
177774,8,6,-1,0,-4,-6,1,-7
177835,-2,-12,-5,-10,-23,-15,1,8
177896,6,2,-3,-3,-2,1,-1,26
177948,8,6,-2,-9,-10,-4,-2,-18
178010,10,10,5,5,14,16,3,-3
178075,-15,-5,-1,-7,-10,-3,-3,-50
178135,1,3,2,3,8,4,-1,7
178196,4,3,1,3,6,0,5,-11
178252,0,5,-1,1,3,3,-1,-28
178313,12,12,0,2,1,-5,-15,7
178373,-16,-31,-2,2,9,3,6,2
178436,-7,-4,0,1,12,13,-8,5
178496,-4,-3,5,2,1,-1,1,33
178555,-8,-3,-2,-1,0,0,1,2
178599,0,-7,-3,-2,1,5,4,-3
178653,-16,-15,-2,-1,0,1,3,19
178709,17,8,2,-2,-7,-5,-4,12
178758,1,-1,-3,-2,-4,0,9,-37
178814,-1,-8,-3,-1,2,-3,-5,-15
178877,2,-1,0,-1,1,0,-1,4
178938,1,4,-1,-3,-5,-1,12,0
178989,-22,-23,-3,2,5,-7,-1,-9
179052,-13,-19,-1,0,0,-2,1,5
179116,16,6,-2,-1,1,0,-3,-4
179178,-7,-7,0,-6,-9,-8,-6,-5
179237,11,18,-3,-2,-6,-6,-1,1
179291,-7,-4,-1,-1,-1,1,-1,-22
179352,12,8,1,2,11,10,0,-1
179416,10,4,1,0,-8,-9,-13,-8
179478,10,-3,0,2,8,5,3,23
179539,-2,9,2,1,-2,0,-7,-23
179593,-3,-8,-6,-8,-24,-27,-6,4
179643,-8,-12,1,0,-2,-5,-2,8
179695,3,-6,3,7,23,14,4,12
179749,-1,3,0,0,-1,0,-8,11
179800,5,-5,1,4,10,14,4,5
179857,5,-6,-3,-3,-4,-7,-3,0
179920,3,-15,-2,0,-3,-3,-2,-10
179980,-1,6,0,0,-5,-9,-5,-8
180031,-18,-3,1,-2,-10,-11,-2,4
180095,5,6,4,5,8,7,5,1
180160,14,19,3,0,-4,-3,0,26
180220,1,-3,-2,2,10,3,-2,-12
180281,2,-2,-2,0,9,7,1,-10
180341,7,-3,2,-1,1,1,0,14
180393,13,4,-4,-1,-3,1,-2,3
180448,9,17,1,3,10,11,-27,-5
180499,2,12,1,0,0,-1,3,8
180553,-5,-10,-2,0,6,-3,-5,-26
180605,-5,-6,0,-2,-3,-1,1,-4
180660,2,1,-1,-1,1,2,-4,-7
180726,-2,-4,-1,-3,0,-6,-3,-3
180783,-14,-7,-4,-3,-7,-4,0,2
180834,-3,-12,0,5,14,13,1,-27
180897,-16,-9,-3,1,15,7,1,19
180962,-3,3,0,-2,-4,0,-5,4
181024,5,6,-4,-5,-8,-7,-7,-42
181084,12,14,-2,-4,-8,-1,-4,8
181136,5,4,-1,-1,-4,-4,-1,-4
181209,11,1,-2,0,9,7,1,2
181267,-7,-8,3,3,8,6,4,-11
181325,14,10,-1,-2,-6,-7,-6,-25
181382,3,-7,3,0,-1,-1,-2,7
181435,5,19,0,-2,-2,0,3,6
181487,-7,-5,-3,-6,-11,-9,-5,10
181543,-3,4,0,-1,-9,-2,0,30
181593,-11,-15,-2,2,6,1,0,-7
181648,-3,-4,-3,-3,-2,-7,1,-19
181700,-1,1,-2,-4,-16,-10,-6,-5
181764,6,-19,-2,-3,-4,0,2,37
181825,-16,-16,-3,1,8,6,0,-22
181887,3,7,0,5,18,16,0,4
181937,2,2,0,1,3,2,0,-18
181990,18,19,4,5,10,4,4,0
182043,5,-5,0,1,-6,-7,-4,0
182096,3,-2,-3,-4,-7,-2,3,0
182151,-3,-5,1,-3,0,8,-6,6
182215,1,-5,-2,1,6,1,-4,-20
182270,-10,-4,3,2,4,-2,-2,12
182319,0,2,0,4,8,2,-4,-21
182372,7,5,3,3,5,0,-20,-4
182428,-4,-5,-4,-4,-1,-1,4,11
182476,-6,-7,-7,-13,-24,-7,1,12
182529,2,-2,-2,-4,-2,-2,3,58
182582,-8,-3,-4,-6,-19,-17,-15,-34
182635,2,-10,0,1,3,1,-8,-12
182686,1,4,-3,-5,-12,-11,-11,-15
182745,-23,-6,-1,0,8,4,0,18
182807,-5,1,0,1,6,4,3,8
182867,4,-2,1,0,-3,2,4,12
182921,1,1,0,1,1,-4,-8,6
182971,2,6,1,-1,3,-1,-2,9
183025,1,0,0,-2,2,5,6,6
183077,-7,0,-1,-2,1,-2,-2,-48
183131,-6,-2,-5,-1,-2,6,-3,-27
183187,4,12,-6,-11,-27,-18,-3,14
183245,6,6,3,4,13,12,7,44
183295,1,4,-4,-3,-7,-6,-1,-18
183347,4,0,-2,-1,0,-3,2,23
183407,5,5,0,2,7,9,2,-22
183468,-2,2,-3,-6,-17,-10,1,-4
183524,-20,-21,-10,-10,-20,-21,-5,-30
183571,-13,-17,2,0,1,0,-5,-3
183625,5,15,0,2,12,5,1,15
183678,7,11,3,2,-1,-8,-3,4
183735,3,8,5,-1,4,9,1,-18
183782,2,-3,-2,-1,6,5,-1,11
183835,2,6,1,1,2,6,-1,23
183888,-1,3,-2,0,-6,-6,6,2
183952,7,7,-1,-2,4,4,0,19
184014,-3,-6,0,3,2,2,-1,-8
184074,-3,-4,6,8,14,9,5,36
184127,-18,-8,-1,-4,-4,-4,-8,6
184183,5,4,-5,-3,-1,6,-5,-2
184234,4,8,-1,3,9,7,2,-3
184293,2,-7,-1,1,-1,-4,-6,-2
184354,-16,-15,-2,0,1,0,1,8
184414,3,0,0,0,-5,0,2,4
184467,-1,-3,-3,-1,-10,-20,5,25
184532,9,16,5,-1,2,-1,1,0
184593,-11,-14,-7,-4,-4,1,-1,-9
184653,-4,0,-3,-7,-19,-12,5,-2
184705,-1,1,7,4,11,10,0,-21
184767,2,-3,1,3,10,5,0,7
184831,0,0,-3,-3,-12,-6,1,-1
184893,-6,-7,-3,-3,-5,-4,1,-4
184953,3,3,0,1,8,6,-2,3
185006,9,3,-1,0,2,-4,3,7
185067,-45,-20,0,-2,0,-1,-4,1
185131,1,-3,-1,-3,-8,-24,-9,7
185189,0,1,-1,-2,-8,-5,-9,18
185238,-6,0,0,0,5,2,-3,-9
185289,-10,-4,-1,3,11,4,3,2
185351,-9,-3,1,-2,2,2,0,10
185410,-1,-1,-3,-5,-5,-1,1,5
185461,-7,5,3,5,15,16,4,1
185515,12,10,1,6,8,10,6,22
185570,15,11,2,1,-5,-2,6,10
185634,-4,0,0,-1,10,7,0,-8
185696,4,-4,-3,-5,-10,-9,0,24
185755,0,7,-3,1,5,3,0,5
185807,10,-1,-2,-2,5,8,3,6
185869,-14,-5,-1,0,0,-3,-3,-4
185933,7,1,1,1,-5,-4,4,1
185996,-4,-6,2,1,2,-4,-5,-5
186055,-29,-29,-3,-1,-3,-2,-3,-11
186108,5,6,3,6,12,11,0,-3
186162,12,-1,0,-2,-4,-3,6,15
186213,2,-3,-1,0,4,4,-8,-27
186266,-3,0,-1,-4,-12,-5,0,2
186319,8,6,1,3,10,11,-1,0
186380,11,1,3,6,23,10,-1,9
186439,-10,-16,-3,-2,-15,-16,-13,-36
186498,2,-3,-1,1,6,4,0,7
186558,10,8,4,0,-6,-5,-2,-18
186619,-6,-1,-4,-7,-9,-8,-1,10
186672,-39,-20,-4,0,7,6,1,7
186723,-16,-8,-3,-5,-4,-7,-4,-4
186776,-23,-18,-3,-1,0,-1,-5,-19
186829,1,-1,-1,-3,-8,-1,-2,-3
186878,-1,-3,-7,-8,-14,-5,-1,1
186941,-13,-10,2,5,23,22,4,0
187007,-5,-3,-7,-6,-7,-2,-2,-7
187061,2,1,0,1,-2,-6,-7,-17
187112,-4,-7,0,-3,-7,-10,-4,-2
187176,-2,0,-1,1,4,2,1,-12
187239,-5,5,-1,-1,-3,-7,-1,1
187301,-15,-13,-7,-9,-32,-20,-9,2
187362,14,-7,-3,-6,-21,-14,-7,-11
187413,-4,-3,-4,-5,-11,-9,-6,5
187475,8,6,-1,-3,-3,-1,3,21
187540,-5,-11,-1,2,10,4,-14,-33
187602,-7,2,-2,0,5,1,-6,-19
187663,-2,-1,0,2,3,2,-5,-15
187715,4,7,2,0,5,1,1,-3
187777,6,-1,1,-1,-1,1,3,22
187836,5,2,-2,-4,-11,-8,3,4
187901,7,9,0,1,0,-1,-2,3
187962,-19,-23,-1,1,-1,-2,-5,-17
188021,-3,3,-1,-3,-1,2,-2,17
188073,-7,3,-1,-2,-5,-4,-3,-15
188123,0,-2,0,-2,-1,3,0,37
188177,-11,-9,1,0,-1,-2,-1,-14
188234,-3,0,-2,-3,-4,-5,1,16
188283,1,3,2,4,12,9,2,16
188340,-1,-2,-1,0,4,4,-1,40
188401,3,-1,0,-2,1,-2,1,14
188463,-4,-10,0,4,10,8,8,16
188523,-3,-7,-3,-2,-3,0,1,-8
188575,-2,-6,-2,-2,1,-1,-4,-12
188637,-2,2,0,1,-2,-1,-2,-7
188700,-12,-7,1,-2,5,4,-6,-54
188764,-10,-6,-3,1,0,3,-2,-1
188823,0,0,2,2,9,6,-1,-15
188883,-2,0,-1,-1,1,0,-1,35
188936,6,4,-2,0,4,4,6,4
188987,2,-3,-1,-1,-6,-4,-1,2
189046,5,-1,0,1,-2,-3,-6,-11
189093,10,9,3,2,6,7,2,3
189146,1,0,0,0,-2,-3,4,-1
189204,-1,5,0,-1,0,1,-1,1
189265,9,8,0,2,0,2,0,-17
189325,6,8,-3,-7,-19,-18,-7,-8
189376,5,4,1,1,3,3,-1,-25
189439,1,4,0,0,9,7,-1,-15
189497,13,8,1,2,9,11,2,-5
189543,7,1,-3,-5,-8,-1,0,11
189597,1,3,0,0,5,7,0,-12
189653,-8,-10,-3,-4,-16,-12,-5,-24
189699,1,4,-6,-6,-4,0,-3,-6
189756,-14,-7,-2,0,5,6,0,-9
189806,2,-4,-2,2,2,2,-5,13
189866,-19,-15,-3,2,12,19,7,-5
189925,-6,-6,-4,1,3,1,-2,24
189984,8,-9,-1,-5,-10,0,-2,-29
190029,2,-3,-3,-3,-13,-19,-4,0
190083,-18,-17,-2,-1,-1,-1,3,4
190139,14,11,0,-1,1,1,6,16
190186,-18,-12,-2,-3,-2,0,1,4
190241,-1,-3,3,3,5,2,1,-11
190305,0,10,-5,-6,-9,-7,-2,-13
190367,-5,-5,-3,-4,3,3,0,3
190428,-1,-10,-4,-2,0,1,1,-8
190480,-3,-2,-3,0,1,1,1,9
190532,8,12,-2,-1,6,0,5,3
190585,3,5,-4,-1,0,-1,0,12
190638,-19,-16,-5,-5,-11,-6,1,22
190693,3,0,1,1,7,6,1,5
190749,9,8,1,2,1,1,0,4
190811,-6,-5,0,-1,-9,-7,2,-13
190872,-3,-4,-4,-4,-14,-14,-4,-18
190924,-42,-23,-5,-2,3,9,-1,-13
190976,-4,-2,3,-1,0,0,-12,-31
191033,9,5,0,4,13,10,3,-1
191079,4,9,-3,-4,-3,-2,0,-11
191132,11,12,6,8,24,16,3,46
191186,8,3,0,-1,3,12,0,14
191237,6,2,1,3,6,7,-4,-18
191292,7,5,0,2,-1,-2,5,11
191349,1,-4,-3,-5,-1,1,7,12
191401,2,2,3,-2,-3,-2,1,-11
191457,-1,1,2,0,-4,-6,-3,26
191505,-31,-33,-5,0,0,5,1,3
191567,-3,-18,0,3,6,2,0,-2
191627,4,0,0,0,1,2,6,13
191679,5,3,0,6,19,20,8,19
191733,-1,3,1,0,-1,-1,-2,-17
191792,-14,-5,0,0,1,0,-7,-24
191845,25,14,1,0,3,6,8,-10
191897,-1,3,-1,0,0,0,-1,2
191948,1,4,-2,-4,-7,-8,2,0
192010,9,10,3,1,0,2,6,22
192071,5,-1,0,1,0,-7,-10,-24
192121,6,10,-1,2,5,3,8,25
192174,-6,-5,-3,-1,5,7,4,-7
192228,0,6,-4,-2,4,5,0,1
192280,-10,-2,-2,-4,-12,-8,-7,4
192336,-6,0,-3,-2,-1,2,4,8
192392,3,6,0,-1,-8,-21,0,20
192455,2,10,4,6,6,1,-3,-11
192515,26,26,3,6,18,16,8,32
192574,2,0,-2,1,6,4,-2,-20
192625,-17,-3,-5,-10,-33,-28,-9,-14
192678,10,13,1,-4,-6,-9,-2,-20
192731,-5,-4,-5,-2,1,-1,1,4
192780,11,8,0,-1,-7,-9,-16,-8
192835,1,1,1,3,7,7,0,17
192890,3,3,-3,-4,0,1,7,15
192952,5,-4,-2,-2,-7,-9,-6,-8
193015,-9,-16,-2,-3,-5,-8,-10,-5
193076,17,13,2,1,5,5,3,-12
193127,7,-4,-1,1,10,13,4,-3
193190,2,1,0,4,15,20,4,5
193252,3,4,-1,-1,-7,-8,-7,-6
193314,-9,-6,-1,-7,-19,-14,-10,7
193375,8,-7,0,1,4,3,3,14
193435,4,-8,1,-1,-2,-1,1,13
193487,-1,7,-2,-1,-1,-6,-12,-30
193549,-2,-4,-3,-4,-8,-12,-4,-23
193612,-2,0,-3,-8,-33,-32,-9,-9
193675,7,-3,-6,-8,-12,1,-1,-3
193735,7,9,2,0,-6,-4,1,6
193787,-7,-6,-2,-2,7,5,1,-9
193844,-7,-6,-10,-15,-22,-17,-14,-22
193893,2,-1,3,6,18,22,6,37
193943,3,-1,-3,-5,-20,-22,-3,-1
194000,-19,-8,-4,-2,1,6,2,-27
194052,11,7,0,1,-1,-5,-2,8
194116,12,6,1,0,-1,0,-1,-8
194182,-7,-6,-4,-4,-4,-9,2,-19
194242,-1,-2,0,-1,-2,-2,0,0
194289,5,6,-3,-6,-24,-22,-6,-26
194344,-31,-19,-3,0,1,4,-9,-21
194399,0,4,2,2,14,17,3,9
194456,1,1,-3,-1,-1,-2,0,5
194509,7,6,4,6,17,10,-5,18
194560,0,6,-8,-11,-27,-15,-4,10
194621,7,4,-4,-6,-11,-6,-5,-3
194681,4,5,-2,-2,-1,-5,1,-3
194732,4,1,0,-2,5,2,0,4
194792,-2,-3,0,0,-4,0,5,5
194855,-15,-22,0,-5,-16,-20,-12,0
194920,-5,-13,-3,-7,-17,-6,9,11
194982,0,-3,-4,-2,2,-4,-3,12
195043,4,3,-2,0,9,5,-3,-14
195093,6,7,-1,0,3,-1,-8,-39
195155,4,5,0,0,1,1,-3,1
195216,6,5,-2,2,5,8,5,-2
195279,-6,-3,-1,0,0,5,-5,-44
195342,-3,0,1,2,-1,0,13,22
195401,7,6,2,1,2,-1,5,0
195452,-4,-6,-1,-1,-5,-12,-3,10
195514,18,0,-1,-2,-3,-2,-7,39
195577,-10,-8,-4,0,10,8,12,-17
195641,-6,0,-1,-4,-16,-17,-8,-8
195699,15,12,-1,-5,-9,-2,-5,-10
195761,-9,-6,4,2,0,1,2,4
195814,-2,-3,-2,-3,-15,-15,-3,1
195864,11,12,4,3,4,4,8,20
195918,-2,-3,1,0,1,6,-1,-16
195977,6,13,0,-2,0,3,6,20
196029,2,7,1,4,10,3,4,3
196083,7,5,-2,-2,1,-3,1,7
196144,5,0,1,-2,-2,-3,-3,-4
196203,5,5,2,4,11,9,0,-2
196263,0,-1,-4,-3,-3,-1,3,5
196323,-18,-16,-9,-6,-14,-23,-10,-22
196376,6,5,3,0,1,-1,-4,-25
196445,-2,-1,-2,-1,3,4,-1,-19
196504,2,-5,-2,3,4,5,-1,-10
196564,4,12,3,1,2,-1,2,23
196625,12,11,-3,-3,-9,-2,3,5
196685,-21,-6,0,2,10,9,0,-15
196737,4,3,2,4,7,7,1,-9
196788,1,6,4,4,10,6,-8,27
196842,7,3,-1,3,11,8,4,4
196893,1,-1,-2,-7,-9,-6,0,19
196946,4,0,0,-1,-4,-4,0,4
197003,3,8,2,7,5,2,7,4
197065,8,8,1,1,-4,-2,3,6
197125,1,0,-4,-2,1,-4,0,-8
197178,16,10,-7,-6,-18,-18,-2,-17
197240,-3,-3,-3,-3,-5,-6,1,0
197302,7,8,0,3,8,7,-30,36
197365,7,10,-1,-2,-1,1,3,-20
197425,-16,-9,-2,-4,-6,0,17,-31
197485,-5,3,1,2,8,-1,0,1
197538,-10,-14,3,0,-1,-3,-8,-5
197590,-11,-9,-3,-1,1,2,-1,-8
197644,6,11,-1,2,4,3,1,21
197697,-2,-1,0,-2,-8,-14,-24,-6
197747,-11,-11,-1,2,13,8,-1,-2
197806,0,-5,0,2,11,13,1,9
197868,-7,-5,-3,-6,-5,-3,-1,-7
197928,2,3,-4,-9,-17,-13,8,30
197981,2,4,2,-2,-3,-1,-3,12
198043,-2,-7,0,-4,-5,-5,1,-1
198104,5,8,3,3,0,-10,-15,-5
198167,-2,1,0,4,9,2,-4,-14
198227,1,8,1,2,10,7,-2,13
198279,-4,-6,-4,-9,-30,-21,-9,-13
198332,12,12,1,0,-1,0,6,20
198390,6,6,2,1,-3,-5,-4,-15
198438,10,11,3,-1,-1,-3,-4,2
198492,0,-8,-4,-3,-8,-4,-3,23
198549,-6,-13,-4,-1,1,3,-2,15
198609,6,1,-3,0,4,1,-5,3
198664,-9,-10,-2,-1,-1,0,-1,30
198715,2,-2,0,-2,-1,-1,-4,0
198768,2,5,2,2,8,5,0,21
198819,3,7,1,-1,3,-1,-3,-10
198873,-1,3,-2,-5,-29,-33,-6,-12
198924,5,1,1,0,5,5,1,3
198976,8,11,2,1,5,-1,-3,0
199030,-4,-7,-3,-2,-4,-2,3,20
199087,0,-10,-3,-3,-7,-12,-4,-6
199149,3,4,3,4,4,5,5,0
199210,-10,-7,-2,-4,-12,-13,-10,0
199268,23,29,8,5,9,12,4,1
199314,-5,-1,-3,-8,-18,-12,-11,-56
199368,2,6,0,2,8,4,8,-12
199419,-18,-16,-6,-7,-7,-3,4,-18
199478,21,17,0,0,2,2,7,35
199532,20,9,1,4,6,2,-5,-16
199593,-4,5,-3,2,5,2,-5,-58
199654,11,7,-2,3,11,9,8,25
199705,15,6,0,2,3,2,5,-2
199760,7,0,4,2,5,-7,-7,29
199810,6,6,-3,-1,-3,-2,1,36
199865,-1,6,-1,0,-1,-1,0,66
199916,0,3,1,-1,-4,-5,5,7
199970,-4,-7,-4,-4,-10,-6,1,14
200025,8,1,-8,-10,-33,-23,-6,-28
200088,11,5,1,-2,-5,-4,-5,-18
200148,-15,-18,-6,-1,7,4,-3,16
200214,13,8,4,6,9,4,2,6
200275,-1,-3,0,-1,-5,-8,-4,-19
200335,-1,-4,0,3,7,4,4,6
200396,-18,-14,1,4,11,5,-1,4
200448,-16,-22,-3,-12,-26,-14,-5,-16
200508,3,-11,5,3,7,8,3,10
200576,-3,-1,-1,2,9,5,0,-4
200636,8,7,0,-1,-8,-11,2,21
200696,-17,-27,-2,1,-5,-11,-6,-19
200755,6,-2,1,10,28,22,0,-4
200808,-9,-21,-4,-1,1,1,-5,14
200869,9,14,-5,-8,-22,-15,-4,2
200919,-3,-6,-5,-6,-18,-19,1,-8
200973,-3,-7,-2,1,8,6,1,-23
201034,-33,-15,-3,1,4,-4,-1,-37
201090,-6,-2,-2,1,6,3,-3,17
201138,8,19,6,7,10,9,-1,44
201194,14,10,-1,-2,-3,-5,-7,27
201257,4,0,0,-1,-1,-3,-1,-18
201318,21,28,6,6,13,11,1,1
201378,2,4,-6,-9,-16,-7,-1,13
201431,6,-3,0,3,5,1,1,-1
201493,-3,-5,-3,-2,-7,-7,2,-3
201557,-2,-4,0,-1,-9,-9,-1,18
201619,1,0,0,0,3,-8,-1,5
201668,-5,-4,-6,-4,-10,-2,-1,-15
201733,-3,-7,0,0,-2,-4,-2,-14
201795,1,5,-4,-6,-2,0,-1,-10
201858,11,8,0,1,8,7,2,5
201918,4,2,1,2,5,5,4,8
201969,-33,-23,-6,-7,-9,-7,2,1
202032,0,-1,3,3,14,13,6,13
202098,5,0,-2,-2,-9,-3,2,20
202159,-5,-5,-4,0,2,3,-1,12
202220,-5,-1,-2,0,-3,-2,9,6
202280,-10,-4,0,-5,-3,-2,-3,-11
202331,-14,-8,-2,-2,3,6,-4,-18
202390,-8,-4,-3,-3,-13,-9,-8,-12
202442,1,5,4,0,4,10,1,-8
202497,-7,-8,-3,-7,-26,-33,-17,-14
202553,-9,2,0,3,7,3,-1,-1
202601,-20,-16,0,0,-1,-2,0,-5
202661,3,2,-1,0,-2,-5,-2,-11
202720,4,1,-2,-3,-6,-4,0,1
202781,-6,-4,-4,-4,-3,-2,-2,-16
202832,11,11,-1,-1,-2,-2,0,4
202896,2,5,1,-1,-2,-4,-1,-3
202959,2,-2,1,1,7,4,-2,16
203020,-4,-6,-3,-4,-5,1,-6,-48
203080,-5,-21,-4,-3,-10,-9,4,33
203131,-4,2,-3,-4,-13,-11,-7,6
203189,-2,-7,-1,-3,8,13,-4,1
203238,-5,-6,-3,-4,-13,-14,-2,12
203297,-3,-3,-1,1,8,7,3,4
203350,-1,1,-1,1,2,1,2,0
203407,1,-5,-3,-3,-8,-2,1,17
203461,2,1,-2,-1,4,3,-11,-38
203523,-1,-1,2,3,14,2,2,0
203583,7,4,-3,-11,-31,-25,-7,-29
203633,-49,-24,-7,-6,-8,-9,-4,-6
203696,11,10,-1,-4,-7,-1,-1,-4
203759,-19,-14,-13,-19,-42,-26,-14,4
203822,0,-7,-5,-6,-13,-8,1,5
203883,8,8,1,-2,-9,-11,1,-6
203935,3,2,1,0,5,10,2,-8
203987,0,-2,0,-1,-10,-14,1,1
204042,3,-5,-7,-7,-18,-12,-1,-14
204094,-1,-1,3,7,8,5,3,14
204147,5,-1,-3,-4,-12,-7,7,10
204203,-21,-27,-6,-6,-7,-5,-3,-36
204267,-5,-2,-2,-1,-1,3,-5,8
204328,0,-1,2,1,9,5,1,6
204387,-1,-1,-1,0,-9,-12,2,6
204445,-8,-15,-4,-14,-49,-52,-12,-6
204505,14,17,-1,1,5,2,4,34
204567,-6,-8,0,4,12,11,1,-9
204627,-23,-15,-3,-2,3,-1,-3,-2
204676,12,8,-1,-1,1,1,-1,1
204745,-5,-3,2,3,21,16,-1,7
204807,10,4,-2,-3,-4,-2,5,9
204866,13,8,0,2,1,6,3,19
204927,-13,-1,-2,-1,4,6,1,12
204976,-6,-10,-1,-3,-8,-15,-5,3
205039,2,3,-2,3,4,-3,2,7
205105,6,5,2,3,12,11,6,13
205166,6,10,-1,1,10,7,-2,-9
205227,-4,-3,0,-1,-2,-3,-3,9
205288,20,15,1,0,-2,-6,-5,11
205348,-21,-13,-4,-6,-1,0,-2,2
205409,-5,2,-8,-11,-22,-13,2,5
205459,-33,-23,-2,3,8,0,-12,-28
205510,-8,-7,-3,-3,-4,-5,-1,-1
205561,-39,-19,-5,-4,-7,-6,-2,-12
205621,4,3,1,0,4,3,-1,13
205668,-2,-3,-2,-3,-7,3,1,1
205726,16,14,3,3,-10,-14,-6,47
205787,-5,-7,3,4,2,1,-3,4
205847,10,5,-4,-4,-14,-10,-5,18
205908,0,4,-3,-3,-7,-10,-8,-22
205960,-7,-7,0,3,13,8,-2,-6
206022,12,8,2,0,-11,-11,-13,-17
206086,8,8,2,2,7,2,9,14
206139,8,-1,-5,-3,-1,4,3,2
206191,-12,-4,-1,0,-3,6,3,-6
206250,7,1,1,2,9,8,3,6
206297,-7,-5,-4,-5,-10,-6,4,-1
206351,27,21,1,-3,-5,-2,2,26
206402,8,10,-1,2,9,9,4,-5
206454,1,-23,-1,0,1,2,-2,-5
206507,4,0,-5,1,0,3,1,7
206559,20,20,4,4,11,9,6,16
206612,5,4,1,4,4,7,1,2
206670,3,3,-1,-2,-9,-7,-3,-6
206715,1,3,3,4,12,10,1,-13
206771,-21,-9,-2,-3,-8,-10,-7,-22
206828,19,18,0,3,5,2,4,7
206887,10,-3,1,2,7,4,3,-17
206949,-3,-5,1,1,1,-4,-4,-19
207010,12,-4,0,3,9,7,7,17
207061,3,-4,2,3,1,-1,-5,14
207114,-3,-2,0,4,9,8,4,-3
207168,-12,-11,-4,-2,-6,-4,-1,-11
207218,-24,-13,-2,0,2,6,-5,14
207275,-16,-21,-2,-5,-9,-8,0,2
207331,5,3,-3,0,0,2,-1,13
207385,11,7,1,1,3,3,2,1
207436,7,9,0,0,5,2,-2,4
207489,4,2,-2,0,-1,-1,2,5
207549,7,0,4,3,6,5,0,8
207610,7,-1,-1,-1,-1,2,3,18
207660,-3,4,-6,-8,-26,-24,-10,-29
207714,9,12,0,-2,-2,-4,-4,-18
207773,9,6,-2,4,5,7,3,13
207834,-7,-3,-2,-2,-4,-2,-2,-1
207895,9,14,-1,-4,-20,-19,-2,-2
207956,8,-4,-3,-4,-13,-11,8,9
208009,3,-8,2,6,16,13,6,9
208059,5,5,1,1,9,4,4,34
208114,1,-1,0,3,10,5,-3,0
208164,2,14,1,1,2,1,0,5
208218,-7,-6,-2,-3,-1,2,1,-13
208270,10,16,0,-1,9,4,-2,-41
208323,-7,-16,-2,-1,-3,-9,-1,-10
208379,8,-1,5,5,7,6,3,22
208442,6,10,1,-2,-1,0,0,9
208503,12,6,-1,1,4,4,8,16
208563,10,5,9,5,13,11,-6,11
208609,-6,-7,-4,-2,-4,-5,3,13
208674,7,6,-2,-7,-15,-12,-1,2
208739,8,4,-4,-1,-2,2,5,21
208800,4,3,-1,0,1,3,2,-10
208859,1,6,-2,-3,-3,3,3,-6
208909,-11,3,-1,1,4,10,5,2
208975,14,11,1,2,-4,1,2,2
209044,-2,-3,-8,-9,-13,-4,0,-10
209098,-12,-10,-2,-3,-3,-4,1,8
209146,6,11,1,2,10,9,2,-25
209201,11,12,-1,0,-7,-7,-3,-19
209252,6,9,0,-2,1,6,-6,36
209312,1,1,0,1,-1,0,1,-1
209363,0,2,-1,2,6,0,-3,-18
209419,-4,-3,-1,2,4,3,-1,11
209476,17,16,3,3,9,4,7,0
209538,0,5,3,5,13,12,0,-14
209603,1,-9,0,0,3,9,2,-2
209660,-19,-28,-5,-5,-7,-7,5,8
209717,-5,4,-3,-4,-9,-11,-4,-2
209782,1,2,-1,0,-2,-7,-3,2
209843,9,10,2,-1,0,0,5,2
209889,-7,-3,-4,-1,0,1,-2,-10
209941,7,7,3,3,16,12,5,19
209998,-13,-16,-3,0,11,4,0,13
210048,6,10,0,-3,-1,-5,4,14
210100,-10,-4,2,3,0,0,-4,7
210161,6,-3,0,1,2,4,0,4
210220,-34,-34,-11,-13,-22,-19,-12,-19
210280,5,7,3,1,0,1,-2,-22
210341,-16,-11,-1,0,2,6,-1,-7
210392,5,3,-1,-1,-4,-3,3,8
210454,3,6,2,4,15,15,6,4
210508,-2,2,4,1,-9,-9,-1,30
210558,0,0,-3,-4,-1,-1,-3,-13
210615,-1,-3,2,3,10,10,-7,-13
210663,0,8,0,2,6,1,-2,0
210723,-7,-5,-2,-3,-4,-2,-9,-15
210784,-3,3,3,4,13,16,1,12
210834,-6,-3,0,5,8,1,-6,-42
210896,4,9,5,-1,-5,-7,-5,-9
210964,7,8,-3,-4,-25,-20,1,13
211023,8,9,-3,0,0,2,-4,2
211083,-6,-5,-1,1,8,7,-1,-1
211133,6,8,-2,-2,-7,-10,-1,-2
211196,-8,0,0,-1,-4,-6,-7,-53
211259,-1,-2,-5,-7,-19,-8,2,15
211321,15,5,0,0,0,-4,3,16
211383,-8,-3,-3,-2,-3,-2,-6,1
211443,-6,-5,-1,1,2,5,3,6
211494,10,3,-2,-2,3,3,-4,-14
211548,1,-3,1,0,1,3,-1,-2
211603,0,2,1,-5,-12,-6,4,6
211652,-11,-10,-2,2,18,15,-6,-28
211708,0,7,0,-3,-7,-4,0,2
211762,-1,-6,-2,0,-4,-8,-7,-1
211825,-19,-22,-8,-9,-22,-15,-5,-12
211885,3,7,-4,-4,-2,-6,0,14
211946,3,2,-1,0,4,2,-1,1
212002,8,6,2,0,-7,-4,1,-4
212064,-8,-3,0,0,3,3,-1,9
212127,5,14,4,3,7,9,2,1
212187,-13,-6,-2,0,4,6,-15,-36
212236,-18,-12,-3,-4,-4,-3,-5,10
212297,2,-2,-1,0,-3,-2,-5,2
212360,8,11,2,0,-2,5,1,-21
212423,0,-4,-1,-3,-2,-5,-3,11
212484,5,2,2,1,1,1,1,-11
212545,1,-2,-3,-2,-1,1,0,5
212605,-3,3,-5,-10,-22,-17,-6,-15
212656,-12,-3,-3,-2,-3,-1,-1,-5
212709,-3,3,0,-4,-2,-7,0,5
212764,-2,1,0,-3,-19,-14,-3,17
212816,0,-6,1,2,0,0,6,-1
212868,-3,3,-2,-4,-14,-15,-3,-5
212922,-7,-4,-2,-1,-6,-4,1,11
212985,-6,-4,-2,-3,-3,2,-6,-26
213050,-11,-2,-3,-3,-3,2,-5,-12
213108,-2,-6,-5,-5,-9,-9,-4,13
213159,4,9,1,1,-3,0,-6,-20
213215,-14,1,2,0,1,-1,-8,-65
213265,-8,-3,2,2,7,6,0,-6
213315,-15,-3,-6,-5,-9,-5,5,37
213371,-7,-5,-1,-4,-15,-13,-2,-3
213427,1,6,0,1,3,5,-1,-14
213475,-5,-5,0,-4,-3,1,-1,25
213530,-4,-1,0,-5,-16,-11,-7,-7
213585,5,19,2,2,7,8,0,-12
213646,-3,4,-1,-1,3,-2,-2,-10
213708,23,19,9,5,10,7,2,10
213768,8,-17,0,2,6,11,4,1
213829,-1,4,2,-1,0,-1,0,-7
213880,-2,-9,-1,-5,-12,-8,2,36
213931,-2,-4,-3,-1,-4,3,8,4
213984,-5,3,-2,-2,-14,-12,-1,0
214038,0,-1,-4,-6,-9,-5,3,30
214096,-3,-1,-3,-6,-10,-14,-6,0
214151,5,2,0,-1,3,5,6,8
214215,-18,-3,-7,-12,-27,-25,-9,-23
214275,-2,1,0,1,9,12,2,1
214321,6,1,0,3,10,13,9,22
214374,-4,-7,1,-2,-3,-3,-2,1
214429,-14,-11,-2,-2,2,0,-1,-4
214479,7,9,3,1,12,7,1,-12
214531,-5,3,-3,-3,-1,2,-2,-21
214591,7,8,3,2,11,6,4,7
214652,-4,-9,2,2,4,7,2,18
214702,-4,13,0,-2,-1,0,-15,5
214756,-7,-7,-4,-7,-16,-19,-6,-5
214810,-7,-10,-5,-4,2,10,6,2
214875,0,6,0,3,5,1,5,7
214931,8,14,4,1,0,1,-2,9
214984,0,-6,-2,-6,-8,-3,8,11
215034,4,-3,4,8,21,11,-3,-30
215088,-2,-3,-1,-1,-4,-12,-6,-21
215139,0,10,-2,0,6,5,4,34
215192,1,14,0,-3,-9,-16,-7,-6
215251,-10,-1,-5,-4,0,4,-2,0
215312,3,2,0,0,14,9,-2,-5
215364,-5,-11,-3,0,3,6,5,15
215418,12,9,1,2,8,10,8,-19
215472,-13,0,-2,-8,-34,-25,-1,12
215521,0,2,1,3,12,6,-1,14
215575,-13,4,0,2,5,7,-1,2
215629,-8,-7,-1,2,4,6,-5,5
215693,4,8,-1,-2,-5,-8,1,3
215755,12,3,-3,-1,1,-3,6,24
215817,-4,3,3,-1,0,3,0,-7
215875,-9,-4,-5,-5,-9,-12,-8,0
215926,5,1,1,3,15,10,2,16
215986,-18,-14,-5,-6,-18,-10,-2,-25
216039,1,-1,2,7,16,12,2,5
216098,0,3,1,3,5,13,11,27
216146,-8,-7,-3,1,7,8,-2,17
216199,4,5,1,4,23,17,12,23
216250,-30,-35,-6,-4,-4,-2,-1,-29
216310,1,-3,-1,-1,-3,-4,-3,-4
216355,3,-13,-6,-4,2,8,-4,-32
216415,-3,-11,2,6,19,17,9,35
216465,-5,-2,-1,1,4,2,1,6
216519,10,4,3,5,9,7,9,33
216576,1,-1,1,-1,-2,-3,-1,-10
216637,5,7,-3,1,10,8,1,6
216684,9,-8,0,-3,1,0,-1,5
216738,17,20,-2,0,1,9,2,15
216793,-10,-3,0,1,3,1,0,-1
216856,8,-6,-3,3,5,4,-2,0
216918,8,8,-1,-6,-25,-29,-3,-8
216978,16,20,5,5,8,8,7,-7
217029,-5,5,0,2,6,10,-4,-19
217093,-5,-8,1,4,10,8,1,3
217155,-4,-4,-3,-4,-7,-8,-4,0
217218,-15,-9,1,-3,-1,0,0,27
217279,1,7,-1,-10,-42,-32,-5,28
217340,5,9,-1,-1,0,-2,-3,3
217390,-10,4,3,-3,-25,-26,-6,-7
217441,3,-9,-2,-7,-13,-14,4,21
217494,-6,-2,0,-2,-12,-5,-7,4
217551,21,3,1,4,20,19,7,-3
217600,0,1,0,0,5,0,-2,19
217658,-19,-12,-5,-8,-14,-3,4,24
217720,-26,-18,-1,-1,-1,-2,-4,2
217782,-4,0,-3,-5,-10,-7,-6,-8
217831,19,22,-5,-3,-7,-4,0,11
217895,8,3,-2,-2,-4,-3,4,44
217958,10,13,2,3,6,5,3,-1
218020,7,1,8,11,20,9,3,4
218081,-9,-16,2,4,13,13,0,0
218138,-23,-30,-4,2,5,7,-2,-34
218194,-2,1,0,-3,-2,3,3,13
218259,-1,-4,-2,-2,-3,1,-4,11
218321,11,13,-3,0,4,4,5,5
218381,-12,-13,-2,-4,-5,-4,-7,5
218431,1,-2,0,-2,-3,-2,2,-6
218485,-7,1,-1,-3,-7,-3,2,8
218538,8,13,5,6,18,13,5,11
218587,10,5,-1,-1,-13,-12,-1,-13
218645,-5,3,-2,-5,-8,-9,-7,-33
218697,-4,-6,-5,-8,-17,-11,1,-11
218761,4,7,0,-2,-2,-3,0,23
218826,-25,-13,-1,3,7,0,-3,-22
218883,-11,-5,-3,1,3,2,-2,9
218936,-17,-8,-4,0,-3,-4,-4,47
218999,6,6,2,0,6,5,-1,-2
219062,3,10,2,3,8,4,0,-2
219123,-8,-8,-4,-4,-8,-3,0,9
219184,-8,-9,-1,-1,-10,-3,-2,18
219236,10,0,1,-3,-6,-5,-6,-3
219286,13,4,-3,-4,-1,-1,1,5
219340,-13,-8,-3,-3,-6,-6,-10,7
219393,1,2,0,1,8,7,-1,-7
219446,0,-2,0,1,4,7,-2,0
219504,5,10,5,5,14,7,-4,-37
219565,-12,-5,4,4,4,0,2,-11
219626,-6,-6,-5,-10,-27,-28,-7,-24
219680,-11,-13,3,1,6,4,3,8
219741,-1,1,-3,-3,0,-1,-5,-17
219810,-9,-1,-1,-3,-7,-12,-9,-21
219871,1,6,2,6,19,16,0,-6
219932,1,2,0,-1,1,2,7,18
219977,7,-1,1,0,3,8,2,-22
220040,-17,-14,-2,0,-9,-10,-4,8
220104,-2,-1,4,7,25,22,7,-27
220168,4,9,0,-4,-4,-2,-1,4
220226,-6,-2,-4,-6,-13,-10,-4,-12
220276,14,6,-5,-5,-7,0,4,59
220332,-15,-10,-1,-5,-13,-8,4,27
220382,8,5,2,1,5,6,-3,17
220435,6,10,1,0,0,0,5,12
220487,5,-4,1,-1,-1,2,-3,-8
220545,7,6,0,2,1,-3,-2,-1
220608,-6,-2,-7,-8,-15,-5,-5,-6
220665,7,1,2,-2,-4,-1,-1,-9
220725,3,-4,-2,1,1,1,2,12
220785,-1,-3,-3,-6,-6,-1,-2,-3
220847,-6,-2,-1,3,2,-4,-9,22
220908,8,10,1,0,-2,-1,-3,6
220965,-12,-8,0,-1,-1,1,-6,-12
221026,6,-8,-5,-6,-11,-9,-3,-11
221087,13,4,2,2,10,1,-3,9
221148,-10,-9,-7,-6,-6,-1,-4,-18
221209,-8,-4,-1,2,7,7,2,17
221260,2,-7,-1,-2,-6,-8,0,1
221314,-1,4,-1,-2,-5,-1,3,20
221365,4,10,-1,-6,-14,-7,0,0
221416,4,2,1,2,5,3,-5,-3
221470,4,5,-2,-3,1,-1,-8,-2
221527,-13,-7,0,6,16,13,-1,-32
221590,6,-1,1,1,7,7,3,19
221650,-5,-14,-3,-6,-8,-8,-1,6
221712,6,-4,-5,-6,-9,2,0,-5
221764,-13,-7,-1,5,13,8,-4,-26
221815,-31,-15,-5,0,-2,-9,1,-7
221868,-6,-4,-5,-11,-23,-16,0,-2
221925,11,6,-3,-2,4,4,-1,-35
221973,-7,-3,-3,-1,3,-1,2,1
222030,2,6,0,0,-10,-23,-5,0
222093,-38,-21,-11,-17,-37,-23,-10,-24
222152,1,-1,1,4,13,13,-4,-1
222205,4,-1,7,12,31,27,7,16
222259,-7,4,-1,-2,-4,-3,3,11
222310,1,-11,-2,-2,-5,-7,1,-5
222364,-8,-4,1,-2,-2,1,2,23
222414,4,5,-2,0,2,-2,-6,-14
222471,18,12,3,3,5,-3,3,8
222526,-7,-4,-1,3,6,0,-3,-4
222579,-24,-36,-1,-5,-5,-2,0,-4
222632,2,-5,-4,-7,-21,-10,1,-8
222693,2,1,2,3,7,-3,-2,5
222753,12,10,0,4,8,8,0,-1
222811,1,3,2,6,14,5,6,-5
222858,7,10,-2,-9,-17,-10,1,-2
222910,10,10,1,3,0,-6,2,-17
222970,-18,-24,-7,-6,-14,-12,-6,-42
223027,-4,-8,-3,2,6,4,10,9
223075,-1,-3,0,1,-1,-3,-2,-23
223135,6,5,-3,1,7,4,6,16
223198,5,0,-6,-8,-21,-22,-15,-35
223255,5,11,5,3,6,9,-1,-7
223307,-6,-33,-4,1,10,12,4,13
223359,19,4,7,4,6,6,5,28
223412,-3,17,3,1,-4,2,10,61
223466,-4,-20,1,2,5,11,-1,-3
223521,-20,-27,-7,-3,0,3,1,5
223569,16,15,0,4,6,9,1,-12
223626,19,13,-2,-7,-27,-29,-3,37
223675,2,7,3,4,8,8,-4,-3
223735,15,5,0,1,4,0,2,9
223796,-7,5,-2,1,6,8,-6,-20
223848,-20,-19,-5,-1,-1,2,-5,-17
223899,4,10,-4,-3,4,1,-4,25
223952,-9,0,-2,0,-2,4,-1,-7
224003,7,16,2,2,14,13,-2,4
224058,9,2,-6,-10,-17,-6,4,0
224114,7,13,-1,5,9,6,2,15
224178,2,-6,3,0,2,-3,-1,1
224238,-10,-8,-1,2,11,6,-4,-5
224298,-26,-19,-6,-3,-6,-4,-3,9
224350,-4,4,0,1,5,3,-4,11
224413,11,6,0,-6,-19,-16,-6,-46
224477,10,19,5,6,12,6,3,-7
224538,10,13,3,-2,2,7,-1,-17
224588,12,6,-6,-12,-32,-22,5,59
224646,4,-13,-6,-12,-25,-9,-3,28
224695,-7,-2,-2,-1,6,8,-1,-9
224749,-4,-3,0,0,10,9,5,-3
224802,6,18,1,3,1,0,6,-5
224863,-1,-6,-5,-4,-3,-1,1,58
224924,3,2,1,4,12,-5,3,34
224984,-5,-3,-1,-4,-6,-4,2,2
225032,5,11,7,10,23,18,7,7
225094,-6,-2,-1,2,0,-12,1,30
225145,7,9,-2,-4,-9,1,7,0
225197,9,6,-1,2,11,7,12,22
225258,5,1,-1,0,6,6,-1,11
225302,-21,-9,-5,-3,3,-5,-3,-31
225355,-3,-3,-1,-1,-5,-2,4,-13
225407,7,10,0,1,5,-2,-1,37
225460,-17,-5,6,8,16,10,7,-6
225518,1,1,0,1,3,2,-1,17
225580,21,8,-4,-2,-4,-2,-4,-13
225640,0,3,1,1,3,-1,-1,9
225696,23,18,-2,-3,-6,-4,8,41
225754,7,10,3,6,22,27,1,-32
225816,2,0,6,4,8,4,-1,1
225881,7,0,1,-4,-10,-1,-3,21
225940,17,3,-4,-11,-29,-23,-5,9
225990,9,5,4,3,6,4,0,-4
226044,13,2,4,6,16,8,9,8
226097,11,1,-1,1,3,0,-4,11
226150,8,3,-2,-6,-13,-12,6,21
226208,17,17,0,-1,-1,0,3,11
226258,14,16,-2,2,2,4,-1,12
226326,6,-3,0,0,12,12,3,-6
226385,-13,-6,1,3,9,4,2,-6
226433,-11,-6,-6,-13,-40,-26,-8,-7
226495,-21,-22,-3,-6,-17,-16,-2,21
226561,11,12,2,2,6,3,4,-11
226623,6,5,7,2,6,3,-1,1
226685,-9,-6,-2,-4,2,-3,1,2
226746,-8,3,-2,-4,-4,-4,-4,2
226797,-7,6,1,-1,-10,-6,-8,-13
226860,0,1,1,4,9,-4,-5,-35
226922,-7,1,-1,-3,-1,1,2,14
226983,0,-5,-3,-2,-7,-6,-5,14
227043,12,17,4,1,2,-1,5,27
227096,-27,-19,1,1,1,3,-8,-24
227152,-13,-11,-2,-4,-6,-2,1,44
227198,-2,-3,-1,1,8,9,2,1
227253,12,8,-3,0,2,2,1,40
227306,-15,0,-3,-3,-1,-1,-10,-40
227366,0,1,-4,-2,6,7,2,21
227427,3,19,8,6,5,-5,0,-9
227489,7,6,1,-3,-7,-2,3,25
227538,-9,-10,-4,-6,-11,-9,-2,-21
227589,22,17,3,-2,-2,2,-2,-27
227645,-12,-8,-4,-6,-1,3,-13,-38
227696,-19,-9,0,3,16,10,-9,5
227747,-11,2,-1,2,-4,-7,4,6
227808,4,6,-3,-6,-1,2,3,-20
227868,9,-2,-2,0,8,5,-4,3
227920,10,3,-5,-11,-23,-12,-4,-19
227984,-10,-25,-3,0,1,7,-1,-9
228046,-14,-10,-3,-6,-31,-39,-3,-2
228108,14,14,3,-1,0,4,1,20
228168,3,-6,0,2,7,-2,3,15
228219,-2,-1,1,5,17,19,5,-4
228286,0,6,1,-1,-3,-5,-1,-34
228345,10,10,2,2,6,-1,-2,-7
228411,20,6,-1,2,7,7,8,23
228475,17,-2,-1,-8,-45,-33,-11,-1
228533,-13,-7,1,-2,-9,-4,-7,-18
228584,-11,-4,-2,-3,-11,-13,-19,-57
228647,9,1,0,1,8,9,-3,14
228716,6,2,3,1,-5,-12,1,-38
228768,3,7,-1,-1,1,3,-5,7
228820,-20,-20,-4,-2,2,1,6,10
228871,-47,-27,-5,-5,-3,-2,-5,1
228925,4,4,0,-2,-3,0,-10,-26
228977,8,11,1,0,-1,-1,6,16
229030,11,5,-1,-2,-2,8,3,16
229087,-28,-9,2,2,-4,-9,4,-19
229151,-8,-5,1,2,1,-5,-2,11
229210,-7,-3,-4,-6,-6,-10,-6,-19
229270,-23,-26,-12,-18,-45,-38,-4,16
229324,8,0,0,-1,-3,7,-1,-11
229387,-8,10,0,-3,-1,0,-1,31
229448,-8,-7,-3,-2,-7,-9,-3,-35
229510,1,-9,-5,-3,-12,-5,5,5
229577,-11,-8,-3,-3,-6,-7,-7,-21
229622,8,5,-3,-4,-8,-8,0,5
229686,10,0,6,7,10,11,7,25
229749,8,1,-1,-3,-6,-7,3,-4
229811,-5,-2,5,10,24,22,0,-11
229862,6,3,1,-2,-2,-2,-1,-8
229913,25,22,6,4,8,11,12,39
229967,-2,-8,-7,-8,-21,-16,0,-10
230019,-9,-9,-2,2,7,5,5,23
230072,-6,2,1,7,20,12,4,2
230132,3,-3,1,0,8,6,-2,-1
230194,-4,3,4,2,9,7,1,7
230256,-9,-7,-3,-8,-14,-8,-6,-17
230316,-1,2,0,1,6,3,-6,6
230363,10,9,4,4,7,-4,-1,-7
230418,-8,-5,-6,-9,-15,-6,0,-10
230470,-13,-9,0,-5,-13,-8,-15,-39
230521,-8,-6,-1,0,3,6,4,24
230574,0,-4,-2,-6,-23,-31,-7,29
230630,-12,-14,-2,0,-7,-4,-4,2
230694,-12,-10,1,1,3,5,-4,-22
230755,2,9,0,0,5,8,7,-2
230814,-2,9,6,2,6,9,4,-4
230868,0,-6,-4,-6,-7,-1,6,5
230923,20,20,-2,-2,-6,-8,-6,11
230973,2,16,0,0,2,2,5,13
231026,-3,4,-3,-4,-3,3,-8,-21
231081,-3,-10,-6,-3,2,7,9,-12
231129,-7,-9,-1,-2,-3,-2,-5,-5
231181,9,-3,-4,-5,-2,-1,4,37
231233,14,6,-4,-7,-16,-14,2,2
231295,7,3,-1,-3,-21,-21,-3,-15
231356,-5,-7,0,2,8,5,-2,8
231404,0,-1,0,1,0,1,-12,2
231460,8,3,-1,1,-1,8,6,14
231512,18,8,3,6,12,6,13,31
231574,22,17,2,4,8,9,20,14
231625,-5,-4,-5,-10,-20,-17,3,2
231678,1,-9,-4,-4,-1,-1,-11,5
231736,16,10,1,0,-7,-16,-3,-1
231797,-16,-6,-3,-4,-10,-11,8,2
231858,16,1,-4,-11,-21,-9,-8,-32
231917,-16,-17,0,-2,-5,-10,-27,-7
231962,-15,-4,-1,3,15,18,7,-13
232016,1,-7,-2,0,7,11,-2,-14
232067,-12,-12,-7,-12,-25,-30,-10,18
232119,8,7,-5,-6,-18,-7,-5,18
232172,-20,-7,-2,-1,-5,-7,-5,-6
232227,-4,-10,-5,-4,-3,0,8,4
232279,12,10,-2,-1,-3,-6,-10,4
232341,2,4,-1,-3,-15,-13,4,33
232401,-10,-2,-2,-1,3,6,11,10
232448,-9,-10,-3,-3,-11,-22,6,5
232501,-16,-11,-2,-3,-5,-6,-4,1
232555,17,16,5,2,2,-1,7,-13
232607,-1,6,-2,-4,-4,-1,6,-15
232660,5,7,0,1,-6,-6,6,17
232719,-21,-17,-7,-4,-8,-7,-10,-44
232780,-6,2,-2,4,8,8,-1,-28
232840,11,13,-9,-12,-40,-33,-6,4
232893,-1,17,0,1,8,15,-2,-7
232958,-26,-10,-4,-4,-8,-10,-1,-1
233017,2,2,-4,-5,-17,-17,-12,-39
233080,-23,-15,0,2,8,3,-5,-18
233140,-42,-38,-7,-2,7,8,7,62
233200,-23,3,-4,-7,-20,-12,-8,38
233262,-23,-14,-4,-3,-2,-4,5,-14
233324,5,13,3,1,1,-1,-9,-14
233387,-4,-1,0,0,2,2,9,12
233447,-10,-15,-4,0,12,14,10,-23
233501,0,1,3,3,15,15,-11,-20
233553,-18,-19,-6,-6,-15,-11,1,-19
233606,-17,-3,-8,-13,-35,-27,-4,20
233657,7,6,5,3,-5,-7,-3,-8
233711,7,22,9,8,17,4,-1,14
233762,13,12,8,11,24,25,3,-2
233825,-20,-21,1,0,-4,-11,4,-8
233884,-13,-4,3,3,2,-1,-1,-2
233946,-6,-9,0,0,-2,0,1,6
233997,20,18,-1,-1,-6,-3,3,-1
234058,6,-4,4,5,2,1,2,1
234124,-4,-1,-5,-6,-8,-13,2,-6
234185,14,17,3,1,-12,-16,-2,-45
234234,9,10,6,6,13,8,-8,31
234288,22,12,1,-3,-9,0,8,10
234339,3,4,0,4,14,10,5,8
234392,0,5,4,9,8,2,2,15
234445,-16,-17,-2,0,0,3,0,49
234503,5,11,7,3,9,8,9,20
234566,11,7,-6,-11,-29,-27,-27,35
234625,10,3,2,1,1,1,6,14
234685,3,-17,-3,-2,2,6,7,3
234740,-9,-4,-5,-1,-3,-2,4,8
234799,0,-2,1,3,11,7,8,20
234862,2,-11,-1,0,-1,-2,0,35
234924,2,1,1,3,5,5,8,-19
234985,-7,-1,-2,-10,-39,-57,-11,11
235046,6,-2,-1,-3,-8,-1,2,5
235097,-18,-8,-2,-2,-3,3,-4,-5
235161,-4,1,0,-3,-8,-8,-4,-40
235222,2,6,-4,-3,-19,-8,-4,-15
235284,-6,0,-7,-6,-6,-1,-3,12
235345,-19,-13,-3,0,0,3,1,-13
235405,2,-3,-2,2,2,-2,-4,14
235465,2,2,4,1,0,-3,-3,0
235522,-1,3,2,1,-2,-1,-2,-1
235590,-3,-6,-6,-7,-14,-19,-11,-55
235652,8,-2,4,8,20,16,2,-6
235708,-5,0,0,2,7,7,5,-13
235758,-10,5,3,-1,-2,-9,0,-4
