timestamp,emg1,emg2,emg3,emg4,emg5,emg6,emg7,emg8,label
2.009313,-3,-2,-2,-2,-2,-1,-4,-2,1
2.009744,-1,0,-2,-1,-1,0,-3,0,1
2.010640,-3,-1,-1,0,-1,-2,-3,-4,1
2.010665,1,-2,-2,0,-1,-1,-1,-1,1
2.031453,-1,0,0,1,-1,-2,-2,0,1
2.031471,-2,-4,-1,-2,1,-3,0,-3,1
2.032989,0,0,-1,-3,-2,-2,0,0,1
2.032997,0,-1,-1,-2,-1,-1,-1,0,1
2.054769,-1,-3,0,1,0,0,0,-1,1
2.054789,0,-1,1,2,-1,-2,0,-2,1
2.055542,2,3,1,1,-1,-1,0,4,1
2.055586,-2,-2,-2,-1,0,0,0,-1,1
2.068793,7,5,1,0,-1,1,1,3,1
2.068806,-12,1,-2,-4,-4,-1,-3,-8,1
2.075282,12,-6,-4,-1,0,-1,-3,-3,1
2.075306,10,0,-4,4,5,4,6,9,1
2.092401,-4,30,8,3,3,6,9,4,1
2.092432,-83,-62,-8,-2,0,0,0,5,1
2.094442,10,18,-3,1,1,-3,4,1,1
2.094449,58,-1,-2,-3,-7,-8,-16,8,1
2.114076,-8,-6,-1,-3,1,5,-1,-31,1
2.114104,-16,17,-2,-4,-8,-23,39,-3,1
2.115834,-7,-9,-1,-9,-15,-17,-48,1,1
2.115848,11,9,5,10,19,28,23,-10,1
2.128431,48,21,10,16,39,40,72,93,1
2.128459,11,-4,-5,-9,-13,1,-58,-24,1
2.135242,-28,-18,-8,-14,-33,-39,-14,-17,1
2.135268,-15,12,-3,-3,-11,2,-38,-37,1
2.151527,21,2,1,1,-9,-37,43,-8,1
2.151561,60,40,19,24,60,85,33,74,1
2.153249,-8,-9,14,21,45,30,-4,27,1
2.153284,-47,-17,-10,-17,-42,-46,-37,-34,1
2.174311,-18,-3,-15,-18,-42,-20,36,-11,1
2.174354,13,-14,-13,-23,-38,-53,-16,32,1
2.176240,11,15,-16,-20,-41,-22,6,-43,1
2.176258,9,5,25,17,31,16,127,-28,1
2.188598,-62,-26,-23,-24,-28,-16,55,1,1
2.188635,-11,-10,-1,14,37,56,-30,-11,1
2.195192,-3,-15,14,19,43,44,-25,18,1
2.195221,-17,-9,-11,-8,-18,-39,-91,29,1
2.211369,25,23,11,15,45,88,-19,63,1
2.211387,-10,-15,-12,-17,-50,-111,-42,-91,1
2.213161,-7,5,-5,-2,6,-8,-92,-45,1
2.213190,3,-5,-4,-5,-6,10,101,38,1
2.233889,-8,-18,-5,-4,-15,-25,-58,-36,1
2.233907,48,24,10,17,42,59,23,34,1
2.235435,-12,-23,4,-2,2,45,80,86,1
2.235452,-6,29,3,2,5,-9,-59,-43,1
2.248562,-8,-41,-3,8,12,-21,75,25,1
2.248581,-15,8,-2,-13,-55,-101,-9,-14,1
2.255390,-12,-10,3,5,6,35,-43,-54,1
2.257259,-3,-12,-10,-15,-24,-55,5,55,1
2.272388,8,22,4,1,3,17,-21,-23,1
2.272406,-4,-10,0,4,24,30,30,21,1
2.273122,19,14,1,-3,-6,-17,32,11,1
2.273147,-2,-5,-3,0,5,26,23,11,1
2.293945,5,0,5,5,14,-13,-109,-52,1
2.293965,3,1,-4,-8,-8,42,38,-3,1
2.296673,1,-4,-11,-11,-32,-72,0,3,1
2.296681,43,40,3,7,15,34,-4,29,1
2.307985,-49,-45,-9,0,14,23,105,-87,1
2.308022,-53,-25,-8,-15,-25,-20,-48,-86,1
2.317951,9,-1,3,-1,0,6,51,38,1
2.317958,1,12,-2,-1,-7,-10,-23,1,1
2.331549,41,9,7,5,6,4,31,37,1
2.331570,-10,-3,-1,2,13,22,-24,-16,1
2.333153,8,19,1,1,-7,-12,-8,-4,1
2.333166,-23,-24,0,3,5,12,-16,-24,1
2.354053,-17,-9,-10,-9,-4,3,-4,36,1
2.354119,14,10,4,4,-1,0,3,4,1
2.357028,49,42,4,6,19,55,37,13,1
2.357055,-51,-46,-3,-3,-6,-6,-55,47,1
2.367479,-1,-6,-3,-1,-13,-13,4,9,1
2.367498,17,8,0,-2,-7,-7,8,3,1
2.376742,-8,2,-4,0,1,-4,21,8,1
2.376755,-2,3,4,4,12,26,30,-15,1
2.392003,2,-1,-3,-9,-13,-6,-111,-7,1
2.392034,18,15,2,6,16,-2,11,27,1
2.394165,-4,-3,-1,-1,-4,5,16,16,1
2.394172,9,-10,-6,2,23,29,76,13,1
2.413944,-18,-2,0,-11,-20,20,-26,-15,1
2.413957,11,17,1,1,0,62,68,-6,1
2.415384,-17,-8,1,2,8,27,4,-16,1
2.415414,-4,-3,3,3,-5,-9,12,-9,1
2.429242,21,11,10,7,22,26,-9,23,1
2.429248,2,-1,1,3,5,-16,17,23,1
2.435239,-9,-8,-8,-10,-12,-31,-48,-20,1
2.435257,11,26,1,-1,8,19,72,-12,1
2.451605,7,12,0,-4,-12,-39,18,-28,1
2.451626,-16,-20,-1,-1,-6,-17,-54,-6,1
2.453033,6,-3,-2,1,4,-6,12,-40,1
2.453042,4,-1,-3,-4,-9,-4,-8,-38,1
2.476233,6,9,-5,-2,-10,-18,-4,-9,1
2.476241,-40,-34,-2,-3,-13,-17,20,5,1
2.476245,-1,6,3,6,10,8,43,-13,1
2.476248,29,16,3,6,35,73,-18,23,1
2.488168,-24,-23,-8,-11,-57,-93,-69,-18,1
2.488205,16,0,-5,-7,-12,-1,-13,9,1
2.496520,-12,-12,-6,-3,-3,22,10,14,1
2.496538,-15,-22,3,-1,-4,-36,-20,14,1
2.511598,6,31,4,6,4,8,-29,-3,1
2.511948,10,12,8,7,13,22,28,37,1
2.513962,-34,-36,-13,-13,-14,-22,-24,-26,1
2.513975,8,24,3,4,-5,-19,-28,-19,1
2.533891,15,2,-1,-2,0,11,38,-18,1
2.533917,7,6,1,3,-6,-12,2,5,1
2.535383,8,6,1,4,21,52,-5,6,1
2.535421,-19,-13,-6,-10,-32,-41,29,-64,1
2.547633,-14,-18,-6,-6,9,17,-69,-20,1
2.547651,-12,-1,-8,-4,-2,-28,-85,-12,1
2.556952,-2,-2,3,-3,-12,-5,-5,13,1
2.556959,35,19,-2,2,4,18,23,26,1
2.572876,-34,-29,-4,-1,-3,-5,-22,9,1
2.572896,-4,4,1,-5,-11,-7,29,-35,1
2.573004,-27,-34,-7,-3,5,-2,47,42,1
2.573012,9,31,8,7,4,-10,-59,-4,1
2.593990,19,-1,11,5,1,0,10,-14,1
2.594008,5,20,3,4,14,25,19,27,1
2.596429,20,19,7,4,7,4,-14,7,1
2.596437,-20,-38,-19,-20,-44,-41,1,-5,1
2.607906,-5,0,-6,0,10,33,-10,6,1
2.607949,28,14,5,7,22,51,78,29,1
2.618351,-23,-29,-3,-3,-18,-45,-86,-20,1
2.618361,0,13,-1,-7,-13,-35,-22,-18,1
2.631528,6,4,0,1,4,0,36,27,1
2.631554,33,19,-3,-1,-7,-14,0,-6,1
2.633345,-53,-30,-11,-6,-3,-2,9,6,1
2.633352,-11,-12,2,5,19,40,-34,16,1
2.654535,-3,5,1,-1,-10,-13,55,-3,1
2.654555,-6,-1,0,-2,-1,-11,-37,-50,1
2.656185,41,13,0,-3,-5,-7,43,15,1
2.656191,-23,-10,-7,-8,6,18,-16,-32,1
2.667579,19,1,2,5,3,-10,-17,34,1
2.667595,-39,-26,-2,-4,-13,-41,10,-8,1
2.677314,14,31,8,11,12,10,22,-10,1
2.677321,-29,-28,-1,-2,-7,-11,-71,3,1
2.691951,-2,2,-8,-8,0,19,-23,-68,1
2.692008,2,-10,-12,-9,-10,-1,-5,9,1
2.693943,5,17,5,6,0,-10,-18,-4,1
2.693949,22,13,10,6,7,13,28,38,1
2.713960,1,10,7,10,19,13,21,11,1
2.713976,-24,-29,-8,-4,-5,0,-59,6,1
2.715409,-17,-11,-10,-13,-20,-26,29,-28,1
2.715432,16,12,-5,-6,6,27,3,3,1
2.728188,-6,-9,-3,4,-6,-17,12,19,1
2.728196,11,9,7,-4,16,17,25,0,1
2.738775,36,25,2,-1,-13,-14,-4,5,1
2.738790,-48,-40,-13,-7,7,9,14,-6,1
2.751947,-30,-17,0,1,-6,-10,-31,-10,1
2.751972,27,28,7,11,21,45,61,56,1
2.753936,-37,-14,-1,1,-16,-30,-65,-89,1
2.753943,13,-4,0,0,1,-6,-2,19,1
2.774846,23,16,-8,-8,-2,16,-5,21,1
2.774862,3,-22,4,5,-3,-22,39,58,1
2.775692,38,28,11,2,7,22,-12,45,1
2.775708,-37,-9,-3,-6,-15,-17,-6,-25,1
2.789864,2,-3,-4,-1,12,18,8,-2,1
2.789881,21,10,-5,-3,-9,-23,-6,-8,1
2.798191,-7,-11,1,-3,2,-8,18,12,1
2.798200,2,-1,5,5,6,19,-20,1,1
2.810769,14,14,4,0,-5,-37,20,22,1
2.810788,-10,-5,-3,-5,5,22,-37,-38,1
2.825350,-4,-1,-3,-3,-16,-35,24,-5,1
2.825382,15,7,1,4,-2,-4,20,10,1
2.834310,-2,0,0,4,5,14,-17,7,1
2.834344,15,11,6,5,18,11,13,5,1
2.836899,-16,-10,-8,-7,-15,-10,-7,-11,1
2.836911,-5,-8,-6,-6,-6,19,15,19,1
2.847936,16,8,-6,-6,-5,5,4,-30,1
2.847953,-46,-29,3,4,2,-8,-58,-12,1
2.858430,20,17,1,1,14,22,17,-9,1
2.858443,4,-1,1,3,-1,-1,3,5,1
2.871152,3,14,0,-1,1,13,-6,-44,1
2.871193,-2,-12,-2,0,-6,4,31,43,1
2.877691,-11,-2,-2,-2,-4,-8,-15,-31,1
2.877712,10,2,0,-1,4,-2,13,-1,1
2.895356,8,-1,0,5,8,2,-62,-18,1
2.895384,-33,-18,-10,-14,-25,-27,15,-54,1
2.897084,22,17,0,3,13,23,18,-11,1
2.897098,-32,-25,-1,3,3,-11,27,2,1
2.916922,18,13,3,1,5,11,42,125,1
2.916947,-12,-13,6,0,-10,8,-43,-43,1
2.922613,-3,-1,0,0,5,-19,-36,30,1
2.922635,22,17,0,-3,-8,-13,6,26,1
2.930801,-29,-21,-7,-8,-8,0,45,-18,1
2.930821,32,9,-2,2,0,-16,-24,72,1
2.937759,-15,-17,4,3,6,24,21,92,1
2.937788,19,17,4,2,-17,-1,-3,-18,1
2.954137,-4,-5,1,-3,26,-19,-20,14,1
2.954162,13,13,-7,-4,2,18,37,-13,1
2.956032,16,4,-5,-3,-4,-2,-18,-44,1
2.956043,-11,-7,2,1,3,-8,-5,6,1
2.977090,-20,-14,-1,2,-7,6,26,-9,1
2.977100,12,20,-1,1,3,-3,34,-54,1
2.977915,-15,-16,0,-4,0,1,3,34,1
2.977928,6,5,-7,-4,11,11,-6,-25,1
2.991172,6,0,-4,-7,-11,-4,1,-35,1
2.991211,6,8,7,-1,-14,-26,-24,4,1
2.997682,-16,1,7,5,-1,4,-4,-4,1
2.997708,-2,-5,1,1,13,29,-10,-1,1
3.014203,-11,-12,-4,-6,-19,-27,-13,-5,1
3.014334,11,2,-8,-5,0,7,25,12,1
3.015960,-4,-7,-7,-2,3,10,-10,-38,1
3.015967,-3,-3,-7,-4,-1,-4,-3,15,1
3.036760,-17,-16,-5,-6,0,6,-2,-28,1
3.036794,-2,10,6,6,2,-2,3,-1,1
3.039742,9,3,0,-5,2,10,-14,3,1
3.039755,7,9,-3,-2,-1,-8,-9,-8,1
3.050908,8,6,2,3,-1,8,7,-11,1
3.050935,-14,-6,-1,-2,-4,-19,-34,-9,1
3.057950,-15,-11,-1,0,0,-1,14,-17,1
3.057984,0,2,-5,-2,-5,-13,-10,-17,1
3.073982,9,7,-6,-9,-6,-2,-20,2,1
3.074002,-17,-15,8,10,6,5,-7,-19,1
3.075949,20,11,6,5,8,17,18,9,1
3.075988,-18,-6,9,3,-9,-25,-19,6,1
3.096570,4,13,2,5,8,13,7,13,1
3.098312,12,-3,-17,-10,-10,-23,4,17,1
3.098318,-16,-35,-8,-5,-9,-21,19,0,1
3.098321,-23,-7,-4,-3,-1,3,-17,-27,1
3.110880,-3,-1,7,4,2,6,-23,18,1
3.110900,-13,7,-6,-11,-12,-7,-29,-14,1
3.118209,23,18,4,4,14,30,14,2,1
3.118247,16,-1,-1,-1,-4,-9,-7,2,1
3.135410,2,1,2,0,-12,-24,-1,-5,1
3.135416,-8,-9,-9,-3,4,16,1,0,1
3.135462,0,4,-5,-1,-6,-2,2,-1,1
3.135483,-9,-4,-1,0,8,17,0,-26,1
3.156505,10,-1,-3,-2,4,14,-20,-7,1
3.156529,-26,0,8,6,3,4,12,-11,1
3.159164,-8,-6,-7,-1,-11,-34,7,9,1
3.159171,-34,-27,-8,-5,-8,-13,-3,4,1
3.170588,12,4,0,3,1,0,0,-12,1
3.170606,22,26,15,5,2,7,-8,-22,1
3.180629,-21,-9,2,5,7,9,5,29,1
3.180645,27,22,2,0,-1,-2,28,2,1
3.194195,-19,-21,-5,-12,-11,-6,23,9,1
3.194221,2,-18,-9,-3,6,18,-36,2,1
3.196855,7,20,0,-3,-9,-11,-15,-2,1
3.196865,7,-8,-2,-1,-8,-30,-8,-5,1
3.216354,5,12,2,2,3,-8,-15,9,1
3.216371,1,-11,-6,2,13,7,0,-1,1
3.217847,9,6,0,-7,-10,6,-13,-18,1
3.217866,-6,-2,-5,-6,-10,0,8,17,1
3.230193,-22,-2,6,6,-2,-10,-9,-40,1
3.230213,16,20,1,1,-1,4,0,-5,1
3.240092,-58,-57,-10,-4,7,26,-8,-5,1
3.240100,3,19,7,0,-2,0,2,18,1
3.253900,20,9,1,3,4,6,20,23,1
3.253922,-17,-12,-7,-7,-4,1,-31,-37,1
3.256035,15,14,-2,-3,-10,-19,-7,-51,1
3.256042,-37,-30,-8,-4,0,2,2,14,1
3.276999,-24,-14,-3,-2,-5,4,-16,-7,1
3.277007,10,8,3,2,10,12,20,29,1
3.277923,35,22,-5,-2,-1,3,9,3,1
3.277937,25,3,8,10,28,31,20,22,1
3.290417,-12,-4,-2,-11,-38,-65,-28,-5,1
3.290486,9,11,1,7,14,5,-27,-13,1
3.300755,-39,-36,-8,-11,-28,-16,-6,1,1
3.300762,32,20,1,6,1,-2,26,12,1
3.313960,34,25,-1,6,21,42,-18,16,1
3.313978,-76,-64,-7,-7,-17,-45,-20,-34,1
3.315392,46,35,2,3,12,10,46,60,1
3.315403,-40,-20,4,0,-8,-23,-101,-29,1
3.336908,-25,-30,-9,-2,-1,4,36,19,1
3.336950,19,8,-7,-11,-13,-7,10,35,1
3.339579,7,9,2,5,13,11,6,22,1
3.339587,7,-2,0,2,4,7,25,-14,1
3.350209,-10,-4,2,0,2,-13,23,-15,1
3.350235,15,17,4,6,1,-26,25,-7,1
3.359787,-6,-5,-3,-7,-6,-2,-21,-16,1
3.359796,32,21,4,0,6,19,-14,-32,1
3.373997,8,10,2,-1,-11,-21,41,23,1
3.374023,-42,-38,-7,-5,14,39,-15,-15,1
3.375549,27,20,1,5,3,-1,-39,40,1
3.375568,-35,-9,3,-2,0,5,42,-35,1
3.396550,0,-4,-3,1,-3,2,16,-13,1
3.396575,17,9,0,-2,-14,-8,-8,15,1
3.399100,27,25,10,6,6,-2,11,-10,1
3.399108,24,-3,-4,3,9,9,-6,16,1
3.410489,59,44,14,8,13,30,25,-12,1
3.410506,-65,-41,-17,-15,-28,-29,-22,34,1
3.420390,22,26,10,12,33,21,-23,40,1
3.420405,16,-1,-2,-6,-26,-47,11,43,1
3.441796,4,17,1,3,16,10,7,-20,1
3.443084,49,45,9,9,6,4,6,7,1
3.443093,-44,-51,-3,0,1,-8,-28,-59,1
3.443097,-25,-4,-6,-2,-3,9,11,-4,1
3.456542,29,17,2,10,36,59,13,1,1
3.456588,-50,-45,-4,-9,-29,-41,-60,-22,1
3.458631,-34,-21,-11,-16,-22,-28,-8,-58,1
3.458640,31,30,7,2,-7,-19,39,-32,1
3.470721,-25,-10,-9,-12,-6,0,-65,-9,1
3.470766,37,23,14,13,28,58,26,80,1
3.481386,-24,-7,-13,-18,-45,-73,42,-57,1
3.481392,-11,-25,-3,3,11,23,-8,35,1
3.493982,8,20,5,5,20,52,42,18,1
3.494000,8,-4,-5,-11,-34,-63,29,45,1
3.496547,7,10,3,5,6,17,108,32,1
3.496555,41,9,-17,-6,-6,10,-39,67,1
3.516477,-48,-46,7,-1,12,11,37,65,1
3.516584,1,-4,-17,-9,5,23,41,-43,1
3.517933,-24,-39,-7,-7,-29,-43,-79,-33,1
3.517948,-21,37,5,4,22,28,-1,-5,1
3.530196,29,31,23,17,2,-23,5,30,1
3.530215,-14,-38,-11,-2,-6,-29,67,-9,1
3.541273,-18,-19,-1,-6,7,23,11,25,1
3.541283,4,-10,-18,-8,15,29,38,-25,1
3.553529,7,-1,-5,2,-8,-11,-37,3,1
3.553563,-5,2,25,13,19,46,102,22,1
3.561501,32,62,13,10,32,28,5,-12,1
3.561526,36,6,7,-6,-28,-51,-57,-1,1
3.576423,47,41,-4,1,19,-13,-45,45,1
3.576437,-43,-21,-20,-28,-85,-107,-26,-120,1
3.577892,30,-29,-5,4,17,64,9,102,1
3.577915,-64,-29,0,-4,-6,6,-23,-17,1
3.590225,-3,31,10,7,-5,-24,42,23,1
3.592559,117,93,15,22,61,95,-75,18,1
3.600728,-73,-68,-7,-12,-37,-69,-17,-59,1
3.600734,4,25,2,3,2,11,94,-6,1
3.614373,9,-39,-16,-12,-26,-2,-92,-38,1
3.614392,10,24,11,10,36,62,13,34,1
3.615712,8,10,0,1,-11,-10,1,1,1
3.615718,15,-32,-1,-2,-6,-21,-21,24,1
3.636487,-80,-42,-18,-11,10,43,76,-30,1
3.636512,31,16,4,1,2,-7,-72,-14,1
3.638640,30,27,13,10,13,13,-46,6,1
3.638658,16,18,0,-2,4,22,-77,-25,1
3.650034,-26,-27,-8,-12,-30,-49,21,-7,1
3.650052,0,9,2,7,18,25,0,-21,1
3.660086,21,8,-8,7,1,5,20,9,1
3.660096,-36,-27,-10,-12,7,15,11,10,1
3.673994,33,-11,1,7,0,3,-45,-17,1
3.674017,-70,-34,8,1,-11,-14,-12,-24,1
3.675626,-18,23,7,-5,9,28,38,9,1
3.675649,27,8,4,3,1,-35,71,16,1
3.696585,2,-24,-32,-26,-31,-38,8,-56,1
3.696602,11,-30,-19,-7,-31,-22,18,20,1
3.697954,15,33,2,-5,12,14,-41,-22,1
3.697970,-35,12,16,12,-6,-9,3,-14,1
3.710693,-4,-3,3,12,22,24,-8,2,1
3.710735,-2,17,-6,-9,-36,-78,-47,-16,1
3.720979,-7,-14,-8,-13,1,22,53,0,1
3.720995,34,1,3,-9,-4,6,-6,44,1
3.735299,-41,-34,-13,-9,-10,-19,-47,32,1
3.735308,-19,-7,1,7,12,27,11,-3,1
3.735312,7,10,3,6,1,-3,41,32,1
3.735315,-35,8,-7,-3,-1,-3,-48,-25,1
3.757272,12,4,7,2,-2,-7,14,-25,1
3.757305,34,-2,4,6,14,9,13,33,1
3.759164,25,17,-4,-3,-9,-33,-26,-17,1
3.759174,-4,-34,-5,-1,-3,0,-8,-14,1
3.770619,-25,30,4,-5,-6,43,23,9,1
3.770655,-13,-2,5,-3,10,9,-35,-18,1
3.779560,-5,-5,3,13,13,-9,-9,-3,1
3.779566,5,-3,-5,-1,-3,-9,-29,0,1
3.793994,22,-1,-10,-8,-4,-9,2,11,1
3.794012,14,-10,2,-3,8,8,17,-1,1
3.795789,-72,-2,3,7,8,19,-10,-17,1
3.795800,32,-2,1,3,-4,-7,34,5,1
3.816466,1,11,4,-3,4,-4,-20,-8,1
3.816483,17,-5,-6,-6,-1,9,18,19,1
3.818193,-23,-17,-12,-3,22,40,-22,23,1
3.818221,2,4,0,2,-27,-74,-9,-19,1
3.839256,-24,-21,1,-2,-13,-14,-13,-54,1
3.840858,9,19,-3,-5,-4,6,46,-15,1
3.840875,9,-29,-9,-5,-6,-2,-29,61,1
3.840878,36,17,-2,3,12,31,12,13,1
3.854201,0,6,11,5,-2,-15,20,-4,1
3.854239,-28,17,1,0,-1,-9,-32,-3,1
3.860101,12,5,-2,0,6,16,24,-1,1
3.860121,-43,-16,2,0,-4,10,15,-24,1
3.876379,28,-16,-1,-3,-14,-36,-13,5,1
3.876393,-2,11,-1,1,11,11,-16,7,1
3.877940,11,0,2,1,-3,-6,9,-23,1
3.877958,-29,1,-5,-5,-12,-14,-7,9,1
3.899053,-15,5,2,-3,3,-4,-18,4,1
3.899073,-21,-8,-5,-1,2,1,-8,-6,1
3.900456,9,10,4,1,15,26,-14,8,1
3.900464,-5,-8,-7,-11,-41,-80,1,-32,1
3.913592,2,1,-5,4,3,17,16,17,1
3.915549,26,10,-2,-4,-11,-8,-6,11,1
3.920195,-22,-24,-7,-9,-3,-13,-17,-27,1
3.920224,11,14,12,11,23,34,-3,-24,1
3.936703,-26,22,14,4,6,5,6,20,1
3.936712,35,-15,-7,-4,-5,-9,22,-7,1
3.938187,-6,-19,-8,-5,-14,-13,30,-27,1
3.938208,8,8,-8,-6,9,25,9,6,1
3.959109,-3,-20,-2,1,6,-6,-22,-5,1
3.959130,-28,22,7,4,7,14,32,16,1
3.960913,-31,5,8,6,-3,-12,-32,-27,1
3.960919,25,-3,-2,-5,22,43,4,8,1
3.973356,38,11,-8,-4,-28,-67,-13,15,1
3.973375,45,46,9,6,10,12,-16,30,1
3.980448,-68,-74,-19,-15,-25,-21,-6,-37,1
3.980477,21,11,-2,0,11,21,6,-62,1
3.999849,-22,-4,-3,-3,5,14,-9,-6,1
3.999857,15,-12,-8,-1,-1,-10,-11,4,1
3.999861,58,42,14,7,10,7,13,22,1
3.999863,-15,-10,-6,-9,-18,-19,-46,-24,1
4.019296,1,-6,-3,-2,-6,3,-4,10,1
4.019415,-52,-43,-8,-1,9,4,19,10,1
4.022783,36,37,8,1,-18,-26,-9,5,1
4.022805,-33,-33,-6,-4,8,18,12,17,1
4.033320,36,45,-2,3,0,-1,5,3,1
4.033337,1,-8,1,-5,-12,-35,8,-14,1
4.040335,-75,-73,-11,-5,-2,17,-75,-5,1
4.040359,24,28,18,8,-22,-44,-66,5,1
4.056500,-24,-8,-4,-4,6,17,24,-9,1
4.056527,60,38,-4,7,18,18,2,10,1
4.058645,-19,-4,-16,-19,-18,-16,83,-20,1
4.058667,-31,-14,-4,0,-1,4,11,23,1
4.079276,21,25,0,2,15,37,24,6,1
4.079291,-9,-34,29,14,14,36,-3,17,1
4.080583,54,46,1,4,-9,-35,-73,-38,1
4.080602,45,20,-9,-3,-9,6,-22,34,1
4.092915,-16,16,11,-3,-2,-4,31,49,1
4.092935,-8,34,-30,-10,4,35,4,30,1
4.102475,-70,-75,8,-1,7,37,76,-3,1
4.102481,45,7,-8,-11,-25,-30,-10,-64,1
4.116988,-10,18,1,9,11,27,-35,-13,1
4.117006,57,6,-7,-5,-5,5,47,-15,1
4.118446,-81,8,-1,6,27,14,67,46,1
4.118483,-26,14,-9,-12,-30,-78,-31,-10,1
4.139613,48,2,25,20,35,71,105,-4,1
4.139620,-34,-8,3,-18,-81,-90,-42,-40,1
4.140524,83,26,-15,1,11,37,23,34,1
4.140545,-34,-30,22,21,16,-16,92,24,1
4.155081,26,26,-22,-9,8,-1,-92,12,1
4.155096,-111,-104,15,4,32,42,101,-17,1
4.162775,23,80,1,-4,-34,-83,-89,-63,1
4.162784,25,24,-12,-13,2,24,21,1,1
4.176403,-28,-44,-16,-7,-14,-40,-36,-18,1
4.176421,-16,22,-20,-5,8,20,17,9,1
4.178094,-4,-40,2,8,9,17,-26,7,1
4.178126,-35,-1,22,17,41,53,35,-8,1
4.199176,-27,-21,-1,-15,-42,-51,-29,-91,1
4.199202,105,37,-4,4,9,19,-51,6,1
4.201032,24,26,-13,-12,10,24,-46,10,1
4.201039,-47,7,18,9,-15,-27,44,-6,1
4.212973,62,-7,0,-6,-6,2,10,-12,1
4.212999,-29,-11,-4,1,2,-23,-29,-9,1
4.223194,80,65,36,29,35,57,17,35,1
4.223203,16,-34,-8,1,-14,-45,-25,30,1
4.236414,-42,0,-11,-15,-48,-4,-24,-21,1
4.236439,25,47,-10,-3,32,13,-13,-6,1
4.238929,-34,-42,-15,-3,-12,-23,-4,6,1
4.238936,6,-12,-1,-3,5,49,-8,20,1
4.258946,1,13,20,11,2,-12,5,17,1
4.258964,-33,-24,-9,-12,-17,-32,-58,-30,1
4.260455,14,4,-9,-6,0,22,39,-22,1
4.260461,-6,-6,-13,-2,-2,-2,-6,13,1
4.272860,-3,-30,-15,-7,-3,-6,-9,6,1
4.272914,24,45,-5,-3,-11,-3,-26,-24,1
4.283571,-59,-82,7,-2,17,24,44,-26,1
4.283577,-35,10,-12,-1,-6,-23,-49,-10,1
4.296357,-5,-27,-7,-8,-1,0,-1,-1,1
4.296371,31,22,16,12,5,3,6,14,1
4.297928,27,10,-3,-2,-12,-24,-5,-18,1
4.297952,-29,6,-1,-10,4,34,4,-34,1
4.319443,-32,-18,-3,6,16,10,12,19,1
4.319476,-34,-23,3,8,-8,-32,-13,-43,1
4.322901,53,42,-4,-4,-16,-5,-11,19,1
4.322911,4,-57,-6,-9,-3,9,-7,4,1
4.332870,-45,10,8,13,19,9,24,1,1
4.332889,17,-9,15,9,7,18,-13,9,1
4.341666,9,52,8,-7,-13,-39,52,3,1
4.341704,8,4,-2,2,15,22,-42,-15,1
4.356558,-1,-20,-7,-8,-10,-13,37,9,1
4.356569,2,-2,-6,-8,-13,8,-19,36,1
4.358338,6,8,0,3,10,2,0,-2,1
4.358372,15,15,-8,-4,-20,-31,-18,-1,1
4.379808,-72,-60,-3,2,9,9,-1,-16,1
4.379826,-60,-72,0,-1,-3,12,1,7,1
4.382417,51,61,4,-1,-10,-16,4,4,1
4.382426,-16,-26,-7,-3,11,17,-30,17,1
4.392670,42,18,2,1,10,21,23,17,1
4.392690,-33,12,-10,-9,-16,-33,40,-37,1
4.402419,-4,-24,3,-5,-11,-4,-18,23,1
4.402425,4,-10,-1,0,10,20,24,-23,1
4.418005,43,20,5,2,-1,-13,-58,22,1
4.418014,-18,4,-6,-7,5,2,25,-11,1
4.418018,11,12,-4,2,8,23,-34,-34,1
4.418020,-19,-23,4,8,-4,-43,27,78,1
4.439237,-4,-10,5,2,0,10,9,10,1
4.439266,31,6,-9,-14,-18,-11,21,-28,1
4.441744,-32,2,6,14,6,-2,-55,109,1
4.441754,15,23,-4,-7,-1,16,24,-44,1
4.452927,26,6,11,8,12,11,-2,64,1
4.452944,11,-15,7,13,20,21,12,121,1
4.462147,12,-20,-4,-10,-18,-29,-66,-69,1
4.462159,89,100,2,13,28,31,10,83,1
4.476568,-83,-79,2,-6,-21,-12,-11,-51,1
4.476586,-53,5,-2,-2,4,19,-1,-50,1
4.478913,12,0,-4,-2,0,-8,-15,-6,1
4.478929,-14,4,-4,-3,3,23,50,-35,1
4.499151,60,40,-6,0,-1,-14,-22,42,1
4.499171,-51,-6,1,-3,-8,-10,26,-32,1
4.501665,-24,-17,2,-5,-5,1,21,8,1
4.501671,8,-18,3,7,12,15,-40,-11,1
4.512659,-13,12,-6,-10,-4,-15,16,-29,1
4.512854,15,-9,0,-2,-16,-41,-11,-72,1
4.522956,2,1,-2,1,3,-2,14,20,1
4.522966,25,6,-3,-1,10,19,41,-88,1
4.536642,19,7,-9,-4,-4,1,-56,94,1
4.536669,-41,-64,0,-5,-11,-6,-1,-14,1
4.538854,-8,18,4,1,5,15,-11,21,1
4.538861,27,-8,-4,-11,-22,-15,3,36,1
4.559644,-24,14,3,9,15,10,-22,11,1
4.559659,41,14,-2,1,4,-15,-32,11,1
4.560546,-22,-22,-2,-4,-7,-6,11,-8,1
4.560568,-30,-10,-2,-6,-5,-1,13,-44,1
4.572609,35,45,7,2,2,-6,11,-40,1
4.572628,26,17,0,-3,0,36,19,13,1
4.583970,-22,-23,-2,3,-2,-13,-10,-21,1
4.583979,-6,-6,-8,-5,2,3,-59,-12,1
4.595935,7,13,-4,-4,-18,-33,55,-65,1
4.595961,27,3,-4,-8,-9,7,-19,-65,1
4.603059,-8,-11,-5,-1,6,19,43,0,1
4.603094,-20,-6,4,3,-34,-31,-71,77,1
4.619239,27,10,-9,-3,15,0,-54,-13,1
4.620475,-21,-23,13,5,11,-1,27,-26,1
4.620492,-22,-11,-8,-8,-7,-14,-26,9,1
4.620495,-3,9,2,4,19,32,16,-2,1
4.632686,4,-5,-1,-9,-4,11,11,-32,1
4.632704,2,15,0,9,-9,-38,-57,-38,1
4.642355,44,23,8,7,6,11,54,11,1
4.642361,-56,-7,5,4,8,12,9,3,1
4.655781,-12,-28,-13,-7,-15,-27,14,-114,1
4.655802,18,36,8,2,11,13,31,38,1
4.662755,-27,-2,-4,-1,2,12,-45,-13,1
4.662782,-23,-7,-1,-2,-3,-9,43,3,1
4.679089,8,-1,-5,-6,-6,0,-53,-42,1
4.679108,22,37,4,-2,3,13,16,47,1
4.680578,-3,-42,-6,-3,-2,-5,-11,-31,1
4.680585,39,2,0,10,2,11,6,38,1
4.692636,-39,-10,-6,-12,-4,-4,9,49,1
4.692658,6,-12,1,-9,6,-3,-28,30,1
4.702624,32,4,-4,-6,-11,3,-1,-17,1
4.702636,-8,16,2,0,9,10,32,-27,1
4.715893,-11,-6,3,6,-8,17,44,-29,1
4.715912,32,9,0,7,0,-13,-128,32,1
4.722688,18,43,17,10,3,-1,94,-17,1
4.722717,-74,-110,-16,-5,-3,-19,-73,18,1
4.738925,72,46,2,0,0,-1,-13,32,1
4.738944,-32,15,6,4,7,14,19,85,1
4.740824,-64,-6,-10,-6,-3,-4,3,-93,1
4.740841,47,25,0,-9,-11,-32,-31,32,1
4.752847,-33,-19,-3,4,-4,-4,22,-18,1
4.752882,19,-29,-13,-15,-16,-19,7,-5,1
4.762187,18,-8,-4,-2,10,-1,-40,-2,1
4.762207,57,27,7,9,-10,-24,0,0,1
4.775916,-55,-20,-4,-13,-5,2,-11,23,1
4.775939,-45,2,-6,5,3,4,-7,-33,1
4.782505,36,10,11,6,12,24,-4,29,1
4.782530,-26,-3,-5,-10,-9,-3,56,-70,1
4.798871,54,31,10,13,18,12,5,33,1
4.798890,-46,-33,-4,6,-4,-8,14,-29,1
4.800504,25,2,-11,-11,0,-3,1,1,1
4.800610,49,25,2,-2,5,0,-22,1,1
4.821603,-17,8,6,-1,-8,-6,-9,-7,1
4.821634,2,23,4,-3,6,18,44,15,1
4.824098,28,-10,-7,-5,-11,-17,-53,10,1
4.824112,-2,-10,1,0,-3,5,0,-10,1
4.835914,-47,-28,-4,0,3,-13,-26,-18,1
4.835939,-48,-12,-6,1,-6,-5,-3,-55,1
4.842566,-10,0,-4,-18,-14,0,-16,-15,1
4.842583,6,7,0,-8,-3,-16,53,-27,1
4.860474,36,13,2,4,2,22,-6,-7,1
4.860482,-3,-10,-4,5,0,-14,-39,16,1
4.865646,7,0,3,10,4,-4,-1,15,1
4.865664,-4,20,4,5,8,17,52,24,1
4.881444,-2,-29,-5,1,1,2,-2,-15,1
4.881463,-11,23,1,0,3,5,44,-54,1
4.882815,-51,-22,-2,2,-9,2,31,21,1
4.882825,36,25,0,2,6,3,-26,-19,1
4.895951,-48,-51,-12,-2,-2,-13,8,-13,1
4.895981,69,-1,-1,-5,-12,-7,-14,5,1
4.902810,29,21,5,7,6,5,68,58,1
4.902843,-49,-6,-7,-5,-10,-11,-50,-91,1
4.919366,-13,-6,-3,3,13,14,19,-17,1
4.919399,22,6,2,5,26,36,5,40,1
4.922920,10,1,-3,-9,-32,-44,-40,-31,1
4.922929,14,3,4,1,2,21,-12,37,1
4.948912,42,15,2,-2,-2,5,-7,-1,1
4.948933,-5,-7,0,-2,-6,-25,8,-23,1
4.950380,-27,17,5,3,-6,-2,79,27,1
4.950399,-11,-27,-12,-9,-2,-17,-48,7,1
4.955303,-13,11,0,-6,-7,24,0,80,1
4.955330,1,-29,-6,-5,-6,-7,55,20,1
4.965413,9,3,-4,0,0,-7,-44,-51,1
4.965419,14,14,1,-2,-2,-1,-14,18,1
4.979924,-6,-30,-9,-3,-2,-6,46,-23,1
4.979950,10,-4,-7,-7,-9,-6,-19,-33,1
4.981413,-64,7,6,7,2,-12,-5,-14,1
4.981425,-34,-14,-3,-2,5,20,-53,12,1
5.002195,-11,21,7,2,-4,-16,-20,57,1
5.002203,29,12,3,3,6,18,59,52,1
5.002912,11,-25,-15,-8,6,-3,-76,-79,1
5.002929,-16,13,6,4,-1,4,44,25,1
5.015464,35,7,9,11,21,13,47,-17,1
5.015590,-23,2,1,-7,-16,4,-73,-13,1
5.026128,52,17,3,9,17,22,93,39,1
5.026135,-75,-53,-17,-15,-18,-34,29,-29,1
5.038958,5,-6,0,-5,-13,-17,-30,0,1
5.038981,-52,7,-2,-6,-6,-5,-18,-66,1
5.041163,60,8,11,15,10,16,8,8,1
5.041176,-22,-9,0,8,18,27,3,-11,1
5.061561,18,16,-5,-9,-16,-22,-19,-41,1
5.061577,-17,17,-3,-4,3,8,1,-10,1
5.063339,0,-20,-2,-4,-5,-13,-13,18,1
5.063346,22,11,6,1,0,-1,45,-20,1
5.075198,-17,-1,4,9,13,9,-42,-46,1
5.075215,17,-4,-5,3,2,-6,4,1,1
5.085427,4,-3,-6,-6,-9,-1,6,12,1
5.085433,-24,-22,-10,-8,-3,1,0,3,1
5.098904,-37,-8,-13,-2,-2,-13,4,-3,1
5.098920,22,12,15,10,9,-2,11,12,1
5.100378,-7,-11,1,-4,0,-2,-32,11,1
5.100393,9,1,1,1,-3,6,-15,10,1
5.121560,-14,-7,1,-17,-15,1,-4,0,1
5.121580,4,-6,-29,1,3,-2,49,8,1
5.124043,-14,7,30,-2,-1,4,-30,-5,1
5.124067,41,45,1,15,0,-31,-15,25,1
5.135148,-13,-3,20,3,3,5,61,12,1
5.135171,19,-43,-7,0,-2,3,6,0,1
5.144379,-11,6,1,8,8,6,-34,10,1
5.144385,25,23,-21,-17,-7,-8,-1,2,1
5.159663,-42,-15,0,7,7,3,-40,-20,1
5.159670,-21,9,3,-8,-5,9,-11,16,1
5.160512,3,-7,-6,-6,-2,-5,5,11,1
5.160528,35,-8,-9,1,-1,7,-23,-5,1
5.181562,28,28,21,13,3,-3,46,28,1
5.181584,3,-30,-6,-18,-4,8,-58,-3,1
5.182827,-50,-56,37,20,-7,-14,-27,-11,1
5.182836,21,78,-65,-3,12,17,48,2,1
5.195260,28,35,36,12,33,21,57,18,1
5.195276,13,-6,24,4,-14,-2,-78,-2,1
5.206695,2,-32,-40,-28,-17,12,0,-13,1
5.206706,-48,-39,-4,-7,-5,-2,-24,-20,1
5.219167,12,38,-8,-1,-2,-6,-14,-8,1
5.219198,5,18,16,5,7,3,13,4,1
5.225270,-20,-31,-9,-7,-7,-14,23,5,1
5.225291,13,4,11,2,-3,1,-41,-7,1
5.241602,-6,-30,-18,-12,-3,2,-23,-10,1
5.241620,5,40,22,15,2,-13,16,-4,1
5.242961,0,19,-11,-2,2,1,16,12,1
5.242972,-18,-1,6,-5,1,-2,44,-2,1
5.255170,3,-31,-3,-7,-18,-16,-48,-7,1
5.255199,13,-4,-17,4,-1,-7,23,-6,1
5.266756,2,35,-2,5,17,-2,13,3,1
5.266764,21,-14,40,-4,-5,0,12,0,1
5.279411,-28,-22,-32,-9,-3,1,-19,-13,1
5.279435,-18,-32,-7,0,10,22,-26,4,1
5.281480,31,6,-8,2,-8,-9,-18,-3,1
5.281486,-11,-5,-2,3,5,8,-1,8,1
5.301681,-9,1,-2,-10,-13,-9,-14,0,1
5.301704,11,-3,-13,-6,-4,-5,-1,-5,1
5.303183,-13,-2,-9,-8,-2,1,-4,-5,1
5.303200,-22,-23,-16,-12,-1,3,-5,-3,1
5.314986,23,41,10,2,-8,-8,-10,7,1
5.315002,-2,20,14,15,1,-6,30,9,1
5.325601,12,4,3,2,6,7,-9,0,1
5.325617,-13,-45,-1,0,-12,-15,2,-3,1
5.339209,17,-33,-16,-22,2,12,-7,-6,1
5.339228,30,77,10,17,-2,0,23,27,1
5.340814,-34,10,62,28,7,-3,-5,-13,1
5.340838,58,22,6,8,8,10,-12,11,1
5.361400,-18,-23,-30,-10,1,5,23,-2,1
5.361417,-16,-61,-34,-29,-13,-34,3,-16,1
5.362931,-9,-4,-16,-6,-6,-3,-20,-7,1
5.362946,-14,15,23,6,9,10,12,7,1
5.375499,7,-33,-13,4,-9,-10,-52,-12,1
5.375511,3,6,12,1,-5,-1,25,7,1
5.384656,14,24,-31,-16,-3,14,34,10,1
5.384668,-42,-55,-12,-20,-14,-12,-22,-17,1
5.398930,18,13,3,12,11,13,14,-3,1
5.399905,-45,37,50,25,4,-3,8,-14,1
5.400460,46,12,15,8,4,0,-8,10,1
5.400479,-13,-30,-24,-18,-16,-3,11,5,1
5.421681,12,-6,-24,-16,-6,-1,-2,-11,1
5.421694,10,13,-12,5,16,10,-5,3,1
5.423051,-40,-28,28,9,2,6,0,-14,1
5.423074,9,38,22,16,7,1,8,-4,1
5.435095,-27,-61,-2,1,-4,-6,17,7,1
5.435110,-27,-27,-34,-24,-13,-12,-29,-19,1
5.444855,17,19,-9,-4,4,14,-6,7,1
5.444862,-5,2,4,3,2,-8,12,-9,1
5.458962,-29,0,-4,-6,-8,-12,8,6,1
5.458980,-11,-45,-36,-21,-12,7,10,-2,1
5.460414,26,39,45,30,17,0,4,2,1
5.460428,19,32,19,3,-1,-2,-28,-6,1
5.481519,-18,-9,-8,-7,-12,-13,8,-12,1
5.481535,-12,-30,-33,-14,3,14,4,-5,1
5.483080,-26,4,19,6,4,-7,2,-16,1
5.483096,8,5,21,12,-12,-52,18,9,1
5.495163,26,32,6,4,1,4,19,6,1
5.495178,14,-20,-15,-15,-7,-7,-40,4,1
5.506406,-5,-28,-44,-24,-15,2,3,-3,1
5.506415,16,7,16,10,11,18,12,5,1
5.518383,8,17,13,15,8,-5,-11,7,1
5.518504,43,36,8,2,0,4,22,8,1
5.525162,5,1,-17,-9,-7,-11,-13,4,1
5.525179,12,-26,-19,-15,-6,15,-13,-3,1
5.541541,3,-14,9,11,3,-3,-17,-11,1
5.541566,30,21,31,19,11,1,47,2,1
5.543650,35,-1,-19,-9,4,-5,-5,7,1
5.543658,19,-36,-29,-18,-11,-3,-13,-12,1
5.563892,39,23,7,6,6,7,6,-3,1
5.563904,115,67,51,17,12,14,-18,15,1
5.565512,30,-11,-2,5,0,-12,-25,-2,1
5.565526,72,-2,-8,-8,-6,7,-1,-2,1
5.579428,36,28,2,-3,-6,-14,-13,9,1
5.579434,-11,-44,-20,-12,-4,4,-2,-10,1
5.588521,10,11,-12,-6,12,26,-3,5,1
5.588532,-32,22,24,7,-3,-5,-18,-19,1
5.601569,-29,5,-11,0,-5,-2,-7,9,1
5.601594,-22,-16,-101,-8,-11,-17,7,2,1
5.602990,-52,-16,-128,-6,-5,0,6,-11,1
5.603033,26,-1,-61,9,16,16,9,8,1
5.615019,60,8,-74,-4,-3,0,4,-4,1
5.615038,-54,-26,97,-14,-7,-6,-36,0,1
5.626043,-56,38,111,8,3,0,18,4,1
5.626060,-83,25,77,9,12,15,-2,-17,1
5.638393,-104,-7,80,-6,-20,-38,-42,2,1
5.640031,-94,6,41,10,5,0,-5,-1,1
5.645753,-72,-21,-26,-7,-5,-5,-16,-5,1
5.645785,-54,-17,22,3,-2,-9,22,11,1
5.661419,-37,-9,31,-9,-2,27,12,-6,1
5.661434,-15,-6,52,-2,-3,-25,-17,5,1
5.663072,-7,3,13,0,3,1,-4,-1,1
5.663092,10,6,-110,1,-2,-7,0,-8,1
5.675071,30,11,-81,3,-1,1,-10,6,1
5.675088,-15,-7,69,1,5,8,4,-4,1
5.685633,18,17,127,-9,-8,-18,-4,-4,1
5.685639,-1,-42,118,-1,3,9,-3,10,1
5.698513,23,14,-47,-4,-3,1,16,-19,1
5.698536,-14,-1,-119,3,-4,-7,6,2,1
5.705397,14,8,-127,-4,-1,-1,11,-8,1
5.705423,8,18,-84,-3,-3,-6,-10,-6,1
5.722813,16,-15,-13,5,2,-1,12,10,1
5.722828,12,-20,-63,-18,-12,2,-16,1,1
5.723061,-36,-10,-4,5,9,6,28,-5,1
5.723075,-13,20,16,7,4,-13,-29,10,1
5.744755,-38,-21,48,6,2,1,-4,-2,1
5.746821,3,5,-6,0,4,4,-19,-7,1
5.746827,31,-17,-12,-13,-21,-7,17,11,1
5.746830,-28,-22,-5,-12,-8,-1,-7,-14,1
5.758541,-2,41,19,12,17,4,1,0,1
5.758559,-23,-7,14,2,0,2,-13,-1,1
5.765565,2,-10,4,-8,-1,12,2,-7,1
5.765588,10,-10,-1,1,-12,-22,2,-4,1
5.782072,17,14,7,-3,-1,-1,6,18,1
5.782097,0,6,4,9,6,-1,22,-14,1
5.784342,12,1,9,6,5,27,-25,-17,1
5.784350,-13,-4,-3,-1,-9,-30,3,5,1
5.804293,-5,-13,-4,-10,-8,-1,4,-1,1
5.804414,62,-2,-22,-6,-1,-6,1,-10,1
5.806134,-7,30,-2,0,4,2,-3,11,1
5.806144,-24,-5,13,7,15,14,1,10,1
5.818760,20,3,3,-12,-14,1,-12,-17,1
5.818778,-17,4,2,7,6,5,32,7,1
5.825402,26,-6,-14,-11,-15,-22,-17,-14,1
5.825421,-2,4,-10,-5,1,6,22,1,1
5.841478,-15,7,9,-2,0,-7,7,-1,1
5.841495,10,-5,-3,-8,-3,3,-10,16,1
5.842862,30,-4,-14,-5,-5,-10,5,14,1
5.842874,-35,16,22,8,0,3,-18,-20,1
5.863924,-5,-16,6,2,10,16,13,2,1
5.863937,6,8,-8,8,43,61,-8,15,1
5.865512,-18,-21,4,-11,-60,-101,10,-17,1
5.865529,37,4,-6,-4,-4,9,-35,-6,1
5.879906,-50,-16,-1,-3,-3,-1,7,-23,1
5.879912,20,17,-4,1,-4,-5,-13,48,1
5.888995,5,-1,-3,0,18,21,-11,-8,1
5.889010,-7,-31,2,2,6,11,24,12,1
5.901568,3,-4,-3,-2,-8,-18,-7,11,1
5.901584,-49,-9,-4,-2,-4,-12,5,-85,1
5.903777,10,-24,-4,5,10,17,-11,77,1
5.903784,45,26,4,4,0,-7,-21,32,1
5.924377,5,-3,-3,-4,5,14,2,2,1
5.924470,-3,-2,-9,-4,-10,-16,-1,-11,1
5.926551,-13,-7,-3,3,4,2,-20,-11,1
5.926558,-22,-9,-7,-13,-13,4,41,-45,1
5.937907,13,8,8,2,1,0,-45,35,1
5.937933,31,4,4,6,0,-7,8,9,1
5.948977,-14,-8,-10,-6,-6,-9,6,-19,1
5.948987,-8,16,7,2,7,5,19,4,1
5.961438,10,-4,5,8,11,5,2,16,1
5.961454,7,2,2,-8,-19,-18,8,-5,1
5.963049,-1,-7,-2,0,11,20,-8,37,1
5.963069,17,7,0,-5,-1,-1,10,10,1
5.983941,0,7,0,2,-1,-12,2,-35,1
5.983965,-34,-8,0,-2,-6,-2,-5,-9,1
5.985624,37,4,3,4,6,6,9,-15,1
5.985637,-8,-4,-18,-9,-8,-4,-18,-21,1
5.997865,8,20,19,10,12,16,16,65,1
5.997889,16,-23,-5,-5,-4,-9,-11,-1,1
6.007215,-27,6,2,-15,-10,12,-8,11,1
6.007223,45,15,-9,20,25,4,-38,-15,1
6.023398,-45,-22,-3,-16,-24,-30,-2,-83,1
6.023471,27,18,13,17,13,6,-15,67,1
6.023474,-1,5,3,3,4,1,16,-2,1
6.023477,-9,-4,-1,-8,-9,2,-8,-1,1
6.044354,-18,-7,-10,2,27,29,-14,-52,1
6.044377,3,7,-2,-11,-36,-44,47,-14,1
6.045964,7,-2,-7,-1,-4,2,-12,-33,1
6.045969,-15,-4,4,-5,-8,-9,11,18,1
6.057826,12,0,-9,-3,0,7,7,-4,1
6.057845,-20,-1,7,1,7,5,-19,-47,1
6.069119,-15,-19,1,9,10,-1,9,-9,1
6.069126,3,-1,1,-7,-13,2,-5,50,1
6.081473,30,10,-3,3,-7,-16,-6,22,1
6.081489,-24,-29,-3,-8,3,9,1,-23,1
6.083801,20,14,11,10,1,-11,9,7,1
6.083816,-6,3,9,7,9,7,6,-3,1
6.104284,13,7,0,-3,-5,-5,7,-22,1
6.104320,9,1,-6,1,-3,5,-14,51,1
6.106432,1,-2,-4,-8,-4,3,56,-53,1
6.106441,-11,-8,-3,0,-2,-3,-27,40,1
6.117499,-8,5,3,1,-3,-4,17,-62,1
6.117514,-5,-2,-6,-2,14,22,6,-22,1
6.127037,-28,-17,-2,-4,-18,-35,-6,8,1
6.127043,23,6,-2,0,1,2,13,-57,1
6.141505,-24,-15,-3,11,6,5,-1,46,1
6.141522,19,32,-2,-17,-12,-5,-32,-12,1
6.143000,-29,9,12,4,9,23,-13,-11,1
6.143060,13,-6,-8,-11,-13,-21,7,-32,1
6.164026,41,4,11,14,13,5,-30,88,1
6.164108,-14,7,-4,6,4,-2,12,-28,1
6.165515,-5,-10,-3,3,-1,12,-11,16,1
6.165530,1,-8,0,-8,1,2,-1,-10,1
6.177545,-22,-11,-13,-11,-4,2,36,-16,1
6.177561,0,-27,-18,-11,-2,-8,-31,-8,1
6.189160,13,31,20,17,6,-9,6,-10,1
6.189172,-12,-1,15,29,9,1,-17,36,1
6.201617,38,12,6,-18,-8,-5,4,6,1
6.201640,-49,-18,-3,7,15,11,-13,-6,1
6.203220,6,-19,-19,-26,-19,-11,12,-71,1
6.203227,-15,25,-12,-10,-3,-6,19,-64,1
6.226153,-26,-47,4,8,6,7,23,33,1
6.226167,15,5,-3,2,-5,-7,-8,-58,1
6.226172,4,-4,-7,-1,11,4,6,8,1
6.226175,-14,-5,5,1,3,8,-33,18,1
6.237767,-3,5,3,-12,-18,-24,0,-33,1
6.237787,-4,-5,2,-7,-1,6,27,-26,1
6.248494,29,17,-13,6,3,0,-55,15,1
6.248501,14,-6,1,-5,-8,-5,30,-7,1
6.261426,-20,-4,-1,9,11,9,-14,-16,1
6.261441,37,13,9,-7,-14,8,28,34,1
6.263077,-5,-8,-6,-11,-10,-25,-79,-14,1
6.263090,-5,-8,-8,1,-9,-4,-15,26,1
6.283364,11,7,0,-3,7,5,10,-2,1
6.283393,31,30,3,6,-5,-5,6,25,1
6.285323,-35,-20,2,7,12,12,23,18,1
6.285328,-61,-32,-11,-2,-1,11,2,-27,1
6.305742,11,12,-1,-8,-16,-30,-26,-52,1
6.305762,-4,1,7,2,0,-5,6,27,1
6.306503,26,21,3,-4,4,2,-7,33,1
6.306543,17,1,8,14,12,2,16,71,1
6.320769,14,24,-1,2,-4,1,-19,46,1
6.320792,-85,-40,-5,-1,3,-2,-6,12,1
6.321917,9,-2,4,6,-1,1,13,-20,1
6.321925,36,12,-4,-7,0,5,-2,-29,1
6.343354,-31,-26,-9,-4,-7,-3,-13,-20,1
6.343377,17,7,4,5,4,3,-21,-21,1
6.344417,-1,0,0,3,-5,5,-12,22,1
6.344424,-56,-9,-4,-3,8,17,6,-12,1
6.367544,18,5,-5,-7,-11,-2,49,15,1
6.367550,29,6,5,11,6,-3,3,5,1
6.367553,-25,6,-1,-3,-5,-5,14,-6,1
6.367556,-17,-27,-6,-5,5,16,-1,12,1
6.383183,2,1,-2,6,-7,-6,33,-7,1
6.383190,2,7,1,-7,-6,-6,-86,-3,1
6.383193,11,-13,-8,-7,-5,5,58,-23,1
6.383196,8,3,-3,-3,-1,-7,-45,-31,1
6.403724,-10,-3,-6,-3,2,-1,-1,-23,1
6.403750,-14,-17,-8,0,-4,-2,27,29,1
6.406003,3,-2,-1,2,10,11,-25,-47,1
6.406016,-16,0,0,-6,-14,-20,37,3,1
6.425806,9,5,1,6,10,8,-37,-27,1
6.425824,6,8,1,-9,-15,-14,11,54,1
6.427932,-64,-27,-7,0,5,3,68,9,1
6.427941,26,12,1,0,-1,-3,15,4,1
6.440937,-2,-1,-1,-6,3,11,-12,6,1
6.440956,-1,1,0,0,-9,-22,46,-14,1
6.442118,20,9,4,5,4,3,-4,27,1
6.442130,43,4,1,-1,1,4,38,-10,1
6.463412,20,8,6,-2,-2,-20,5,25,1
6.463437,-10,-6,-2,3,3,-4,-22,-33,1
6.463964,8,-1,-4,-6,-3,0,-4,-8,1
6.463982,-50,8,6,-1,7,-3,-2,23,1
6.485789,28,9,-1,-2,-5,8,-24,-5,1
6.485811,-1,-3,5,6,11,10,-9,41,1
6.488014,-17,-13,-4,-6,-5,-11,-6,-26,1
6.488026,43,21,4,-4,-7,-11,-72,-45,1
6.501015,-19,-8,-1,0,4,5,71,-1,1
6.501035,-15,-10,-6,-9,-13,-16,-54,-29,1
6.502444,46,16,2,2,0,10,11,30,1
6.502451,-9,-4,1,2,-8,-16,-15,0,1
6.531588,-44,-21,-7,-1,4,1,-9,5,1
6.531664,37,13,3,0,4,5,-3,5,1
6.532893,-28,-20,-6,-9,-9,-13,-43,39,1
6.532906,38,4,-4,-2,2,7,61,-1,1
6.545693,44,17,4,1,-10,-16,-76,0,1
6.545710,-14,-18,-7,3,14,15,42,-2,1
6.546969,-35,3,1,4,2,3,-9,18,1
6.546990,-7,-10,-8,-3,5,8,19,-20,1
6.560885,-40,-5,1,-1,-4,2,5,2,1
6.560914,20,15,3,-5,-8,-9,-28,42,1
6.562252,31,5,3,0,-1,-4,15,2,1
6.562263,-20,-16,-5,2,9,8,-12,19,1
6.583284,2,-6,-6,-4,-11,-8,-4,-26,1
6.583306,3,8,4,-1,-1,9,18,-26,1
6.584404,9,-3,-4,-3,0,4,-13,-15,1
6.584416,24,13,3,2,1,16,38,55,1
6.614122,23,4,-4,1,6,10,-10,-48,1
6.614145,-95,-27,-12,-3,-14,-33,-34,-37,1
6.615225,18,7,5,7,4,0,4,12,1
6.615238,25,12,3,0,2,4,11,-24,1
6.621119,1,1,-3,-2,-7,-7,13,58,1
6.621151,12,1,-3,0,-2,-3,34,-25,1
6.623358,-6,9,-1,-9,-1,6,2,-53,1
6.623367,-3,-13,0,1,2,-16,-22,-13,1
6.643390,-13,5,0,-2,-6,0,-59,-4,1
6.643415,33,-2,0,9,17,25,33,12,1
6.644842,2,-13,1,0,-1,-11,-52,28,1
6.644849,-2,12,3,-2,-9,-8,7,-6,1
6.665668,-46,-16,-4,-4,6,14,47,-11,1
6.665681,15,-5,-5,-4,1,4,-18,-4,1
6.666346,27,9,0,3,2,3,-21,-35,1
6.666362,-15,1,-2,-3,-5,-2,6,22,1
6.680840,-2,-11,-3,0,-1,0,30,3,1
6.680863,-6,-2,0,-2,-3,2,-14,-8,1
6.682327,-13,17,1,-2,0,5,15,26,1
6.682338,-8,-7,-3,-2,-1,-24,3,10,1
6.703705,-40,-32,-7,-6,-8,-17,-36,-43,1
6.703735,8,9,2,-1,3,6,30,1,1
6.706231,35,26,2,7,-1,-4,18,12,1
6.706238,-19,-20,-7,-11,2,11,-22,-7,1
6.726594,16,9,4,1,-5,-8,-2,3,1
6.726604,-27,-9,-6,-7,-2,7,-12,-10,1
6.726607,-5,-10,-6,-3,-9,-4,20,1,1
6.726609,5,16,14,12,10,8,-11,-2,1
6.741038,11,18,6,4,19,27,31,14,1
6.741058,-24,-3,-1,-6,-18,-28,33,-34,1
6.742205,9,-35,-7,1,2,-2,-3,22,1
6.742211,-18,-14,-16,-13,-17,-9,-19,-21,1
6.763453,6,9,-1,-4,-5,-2,8,8,1
6.763549,9,15,4,0,3,10,-48,-7,1
6.765142,-9,5,2,-4,-1,-1,-5,-40,1
6.765151,-1,-5,-1,5,-4,-12,20,-18,1
6.785911,33,21,4,0,1,0,-35,76,1
6.785929,-82,-32,-4,3,1,-2,52,2,1
6.788386,17,-5,-5,-7,1,10,-1,-5,1
6.788393,-1,-19,-1,3,-9,-38,-28,-9,1
6.800633,-7,2,-2,3,3,0,20,-1,1
6.800657,34,14,1,-1,-2,3,-13,-42,1
6.808371,-10,8,6,6,2,3,15,5,1
6.808389,6,-3,-4,1,1,22,7,-14,1
6.823335,21,3,0,-1,11,14,-29,1,1
6.823356,3,-12,-2,6,-4,-39,10,-28,1
6.824260,-49,-9,-7,-16,-12,-8,7,-79,1
6.824312,26,8,1,-3,-3,5,4,-20,1
6.846439,-1,-2,-3,4,1,-4,3,-10,1
6.848843,31,2,-3,-12,5,22,2,39,1
6.848850,-46,-18,-1,2,-5,-6,-1,10,1
6.848853,16,21,-2,-2,0,-4,-3,-27,1
6.860759,-29,-28,0,0,0,4,13,-87,1
6.860775,31,23,0,7,7,10,34,8,1
6.862344,-10,-13,2,-2,-9,-33,-13,-54,1
6.862349,-23,2,1,-2,-5,3,12,-31,1
6.884821,-1,-12,-7,-4,-6,-10,-28,-52,1
6.884827,10,4,2,-1,1,17,-14,-22,1
6.884830,1,3,1,0,5,14,69,22,1
6.884833,27,9,5,3,-3,-21,-36,16,1
6.905921,-31,-10,-4,0,-3,6,9,56,1
6.905939,9,4,3,2,7,-2,10,53,1
6.907787,22,-2,1,-1,-11,-40,-11,18,1
6.907800,-29,-9,-3,-2,4,13,4,-23,1
6.921001,-3,19,-1,-4,-8,-7,0,-17,1
6.921029,1,-13,1,3,1,7,-12,-2,1
6.923252,-3,-4,-4,-5,-7,-31,-18,-1,1
6.923259,22,3,-2,-4,0,8,-4,32,1
6.943329,-61,-10,3,-5,-1,-13,6,-67,1
6.943346,10,8,-4,-9,-1,9,15,-59,1
6.945003,20,4,3,11,13,24,-9,86,1
6.945009,-8,-3,-5,-4,-2,-6,-29,35,1
6.965928,43,9,8,4,-2,-3,-23,73,1
6.965951,-37,0,1,2,-4,-6,7,0,1
6.966544,12,-1,-4,-3,-5,10,-36,16,1
6.966638,4,-1,0,2,4,0,16,-17,1
6.980713,20,14,-1,3,4,16,28,22,1
6.980736,1,-10,-1,-3,-2,-10,12,-7,1
6.982579,-13,-22,-3,-4,-4,-4,-44,-22,1
6.982592,-6,15,6,1,-7,-10,-17,7,1
7.004211,7,-12,-8,-2,-4,-1,12,-19,1
7.004244,1,-6,3,0,-4,1,-4,22,1
7.010841,8,17,3,1,0,8,-17,49,1
7.010864,-20,-9,-9,-9,-6,3,5,-43,1
7.027610,16,-10,3,2,7,12,-27,30,1
7.027701,-2,11,-1,7,-2,-11,-33,15,1
7.027706,33,33,2,-6,-2,5,14,-53,1
7.027709,-40,-49,-3,1,0,2,-10,-11,1
7.043251,-3,6,-4,-1,-8,-12,26,30,1
7.043258,5,6,0,4,0,1,-41,-1,1
7.043261,9,8,0,0,-1,2,21,-19,1
7.043264,4,16,2,4,-1,-2,-2,29,1
7.063315,-13,-13,-5,-5,-2,1,-14,-16,1
7.063338,41,4,1,-3,0,-5,14,11,1
7.065054,-30,-4,-2,-2,-8,-1,21,-21,1
7.065062,-12,-7,-6,-8,-3,0,-11,15,1
7.085928,20,-12,1,1,1,-5,-14,-15,1
7.087848,0,7,-4,-6,-4,1,15,1,1
7.087863,5,1,1,2,6,11,0,-10,1
7.087866,13,-10,0,1,5,21,-32,16,1
7.101266,-38,-9,-2,-3,-4,-35,-38,-42,1
7.101297,7,6,-3,-1,-4,-5,6,-14,1
7.103378,-17,-21,-10,-4,-5,-4,2,-39,1
7.103386,-23,2,1,0,9,24,13,47,1
7.123560,20,16,5,0,-3,-5,27,10,1
7.123587,-12,1,3,3,7,-1,-20,-4,1
7.123906,2,-20,-9,-11,-5,-5,26,1,1
7.123995,32,15,2,0,-3,-13,-9,-18,1
7.146240,-6,-1,-1,0,4,15,11,63,1
7.146266,-53,-11,-3,-2,1,-2,16,-2,1
7.149216,24,7,1,3,5,9,-31,16,1
7.149223,10,9,-1,0,-5,-8,-22,1,1
7.169243,43,-7,-1,-1,-2,-2,7,-9,1
7.169250,-32,-7,0,1,4,15,-22,-17,1
7.169737,-20,-11,-5,-3,0,9,-33,10,1
7.169754,-26,0,-4,-5,-8,-7,27,-3,1
7.184167,-20,11,-2,0,2,4,-4,-29,1
7.184173,34,1,3,8,13,22,-26,18,1
7.184176,25,-1,-4,-1,-5,-12,32,8,1
7.184179,-9,3,-4,-4,-9,-14,-4,-15,1
7.205904,-45,6,7,8,8,5,-9,-7,1
7.205930,63,17,5,1,1,-4,6,5,1
7.207244,-66,-22,1,6,8,7,7,-12,1
7.207259,57,6,1,3,0,-6,-15,2,1
7.220907,-22,-21,-15,-14,-12,1,-41,-10,1
7.220928,16,-2,-8,-7,-8,-14,16,3,1
7.222646,27,19,6,1,-2,-6,3,8,1
7.222652,-22,-19,-9,-7,-1,-5,14,-16,1
7.244701,32,2,-1,1,7,24,102,2,1
7.244711,-30,-12,-2,-8,-19,-46,-89,-5,1
7.244714,34,14,0,-3,-11,-9,2,-1,1
7.244717,-42,-5,6,8,25,48,0,17,1
7.265764,9,-7,-3,-6,-42,-92,1,-27,1
7.265779,81,-2,-7,-8,0,17,88,52,1
7.266726,-72,3,1,-2,-6,-11,-46,-49,1
7.266733,-2,-7,-32,2,9,-2,-11,-12,1
7.280300,-21,-24,21,6,13,33,14,-7,1
7.280317,18,3,4,-3,-10,-19,-24,-2,1
7.288454,50,24,29,19,18,23,-48,35,1
7.288475,31,34,6,-10,-20,-26,27,-26,1
7.303438,-59,-19,-27,-10,-4,-4,-11,-26,1
7.303470,26,-5,-7,-1,0,7,-19,14,1
7.305676,-83,-1,1,4,17,31,90,31,1
7.305683,50,4,-5,-5,-5,-13,-100,5,1
7.325813,-23,-58,-10,-18,-30,-45,12,-51,1
7.325833,-17,6,0,-6,-6,-2,1,-36,1
7.326512,35,-5,-10,-4,8,38,-33,-11,1
7.326528,-61,1,8,3,-12,-27,11,25,1
7.340157,47,33,15,20,40,43,97,24,1
7.340181,-67,3,1,-8,-16,-1,-73,-27,1
7.348582,7,-49,-15,-18,-23,-18,113,29,1
7.348605,-47,1,2,-5,-11,1,12,-16,1
7.363490,113,20,-1,-3,-4,5,-51,40,1
7.365407,-110,-1,-7,-1,7,9,31,9,1
7.365417,-3,-12,-8,2,10,1,-65,-18,1
7.365420,78,-6,21,-1,-11,0,7,-1,1
7.387879,9,75,11,1,-3,3,-40,20,1
7.387894,-16,-59,-12,0,-1,-13,-65,-19,1
7.387898,-12,0,-11,-10,-23,-41,32,-9,1
7.387900,24,-17,-6,2,28,37,121,24,1
7.400245,-5,3,-2,-7,4,28,26,-8,1
7.400271,23,6,-3,-6,-31,-53,-21,-21,1
7.408383,-67,12,6,4,4,2,-32,2,1
7.408402,17,11,4,15,6,6,-11,3,1
7.423546,33,-8,1,-3,6,16,45,17,1
7.423579,-59,10,-6,-5,0,6,37,1,1
7.424390,15,-24,2,7,6,6,47,28,1
7.424424,-75,-4,-7,1,11,7,-30,-72,1
7.446651,35,-3,-3,-4,-1,0,-91,-41,1
7.446675,-8,13,10,11,11,36,74,14,1
7.448814,64,21,-3,-3,-13,-17,-53,2,1
7.448819,26,19,3,-3,-8,-6,28,16,1
7.460148,-52,-9,-3,3,9,2,-36,1,1
7.460164,-3,11,11,10,5,-10,33,0,1
7.468158,28,6,-5,-14,0,16,24,-13,1
7.468168,22,3,-6,-22,-31,-26,45,-4,1
7.483335,44,-8,-6,-1,-22,-45,-26,31,1
7.483349,-7,-19,6,6,19,23,69,13,1
7.484129,16,5,3,5,5,-7,11,-12,1
7.484205,22,7,5,3,2,-2,-73,-4,1
7.505903,34,34,3,15,19,31,33,20,1
7.505922,-29,-23,-8,-16,-12,-19,-91,-2,1
7.507101,-10,-24,-6,-1,10,-6,-5,-40,1
7.507107,48,8,8,0,-14,-41,-14,36,1
7.520248,-18,2,5,5,-2,-1,75,-2,1
7.520374,45,7,-5,-2,-5,-4,-51,9,1
7.528218,30,47,6,2,-4,-12,-41,-8,1
7.528235,-107,-42,-10,-3,8,22,2,-18,1
7.543686,-3,-1,-1,0,4,-11,12,7,1
7.543698,53,18,3,1,-2,-1,12,10,1
7.544026,-74,-25,-10,-6,-2,5,-30,-9,1
7.544124,20,8,3,1,4,15,56,26,1
7.566076,-90,-17,-5,-7,-3,5,-47,-40,1
7.567149,53,-5,-8,-12,-12,1,46,68,1
7.567154,17,14,9,6,2,7,-1,26,1
7.567157,-54,-7,-3,1,-4,-15,-27,13,1
7.580623,-5,-11,-3,0,1,-2,-28,-10,1
7.580653,27,23,4,6,15,9,-52,4,1
7.588513,38,-4,-1,1,-10,-23,-10,26,1
7.588531,-51,-34,-2,-3,-13,-12,-2,-36,1
7.603909,-37,-16,-6,-3,7,17,-15,-15,1
7.603943,38,6,7,7,9,5,93,25,1
7.606748,7,8,-1,-4,-7,-3,-21,46,1
7.606760,63,16,-3,1,8,10,24,-43,1
7.625733,-11,7,2,2,4,9,21,-42,1
7.625750,-72,-46,-11,-5,-3,8,9,-79,1
7.626470,71,1,0,-1,6,-3,-42,-34,1
7.626486,-46,-8,-2,-3,5,14,-7,15,1
7.649397,-18,12,-3,-4,-5,-8,47,1,1
7.649412,38,-19,0,-3,-8,-11,-9,-13,1
7.651406,-82,44,4,-2,-3,7,7,11,1
7.651414,-3,-17,-5,0,4,-6,-2,5,1
7.663464,8,-6,-6,-1,-4,-4,-12,-21,1
7.663489,-2,14,4,4,11,19,-12,-34,1
7.665086,16,-16,0,-2,-3,-13,24,36,1
7.665094,25,10,0,-4,-2,2,-2,-12,1
7.686306,-92,-10,-2,-5,-14,-7,-30,8,1
7.686312,13,-7,-3,3,3,-3,-19,2,1
7.686315,19,1,4,9,13,23,38,32,1
7.686363,-19,5,2,1,-1,5,37,45,1
7.709039,66,1,3,2,7,-2,-86,18,1
7.709057,-28,20,6,-1,-13,-20,14,-61,1
7.709910,-90,-62,-13,-7,-12,-14,47,-37,1
7.709916,70,16,5,0,2,-3,-37,7,1
7.723337,2,0,2,-1,-1,9,37,13,1
7.723360,2,19,1,0,7,7,-32,10,1
7.725197,12,-2,-6,-5,-1,2,65,-7,1
7.725210,-26,-16,2,3,3,-4,-12,9,1
7.746520,6,-8,-1,-3,-7,-21,-23,-19,1
7.746559,33,27,0,-4,7,15,21,46,1
7.748461,-10,-2,-1,-2,-10,-3,12,2,1
7.748467,38,0,-3,1,-1,2,2,1,1
7.769156,-11,10,4,-2,4,7,-40,-19,1
7.769186,-10,-8,-3,2,2,-8,13,35,1
7.769642,23,14,0,-1,7,9,35,-16,1
7.769654,-9,0,2,-1,-9,-11,-84,-25,1
7.783355,-38,-32,-10,0,-11,-12,2,-19,1
7.783376,-6,2,-4,-22,-9,9,18,-15,1
7.784047,-8,-26,-1,-4,-9,-20,-37,-55,1
7.784063,79,30,7,10,15,18,52,104,1
7.805835,-11,-10,0,3,6,0,-4,-19,1
7.805855,-42,-23,-6,1,-11,-6,-6,-19,1
7.808017,21,14,1,-1,7,10,-36,-24,1
7.808029,37,40,3,1,2,4,-10,3,1
7.828879,-35,-49,-5,-6,-9,-10,8,6,1
7.828891,-30,-9,-2,4,7,0,1,-54,1
7.829625,25,5,4,3,6,5,10,-3,1
7.829663,-21,-1,-1,-3,-7,-12,-36,-25,1
7.843381,37,28,2,-4,-4,-8,-35,-17,1
7.843398,-22,-8,-1,5,2,6,-13,65,1
7.844047,16,8,4,3,15,26,31,-19,1
7.844062,-28,-6,2,-4,-12,-20,-17,-42,1
7.865800,30,20,5,6,15,14,42,34,1
7.865825,-14,-14,-5,-3,0,-9,-27,-20,1
7.866676,-4,7,-1,-2,-13,-20,-92,-43,1
7.866683,-15,-6,-2,2,8,12,72,9,1
7.890122,69,20,0,-5,4,7,-27,-17,1
7.890135,-52,-2,-4,-3,-12,-21,-18,3,1
7.890138,-5,-3,-2,-4,-5,-7,-22,-32,1
7.890141,-14,-15,-7,-7,-7,0,28,-35,1
7.906032,32,2,-6,-1,-2,-6,-25,-67,1
7.906044,13,19,5,3,5,10,42,-6,1
7.906047,-18,-11,-2,-2,-3,-3,-25,-35,1
7.906050,-53,-17,-7,0,6,4,-7,-3,1
7.925835,11,8,-2,-5,-11,-7,25,27,1
7.925855,93,9,6,7,14,9,1,69,1
7.928536,-67,-18,-7,-1,-1,0,79,40,1
7.928545,16,-7,-2,-4,-8,-7,-75,-26,1
7.949072,-27,9,4,3,-4,-5,1,80,1
7.950383,2,2,1,-4,3,12,-21,-26,1
7.950393,46,15,0,-1,-2,-10,16,31,1
7.950396,-41,-8,0,-3,1,0,18,67,1
7.963575,-1,0,1,5,0,3,36,-9,1
7.963597,-24,-21,-8,-6,-11,-1,-37,-65,1
7.965862,6,24,7,6,2,1,19,50,1
7.965876,24,-27,-8,-3,4,8,-3,-23,1
7.986796,-29,22,6,-3,-11,-14,-9,41,1
7.986827,21,-17,-3,5,4,8,50,17,1
7.986836,0,-4,1,2,2,0,-121,24,1
7.986844,-17,12,1,-1,-2,4,52,-28,1
8.008956,27,-14,-4,-4,-2,4,70,-5,1
8.008973,-17,3,2,3,6,6,3,41,1
8.009741,37,-5,-3,-3,-6,0,7,18,1
8.009746,38,4,-3,0,-1,-7,5,-33,1
8.023457,-36,-17,-6,-7,1,5,-18,-19,1
8.023738,32,1,-3,-2,-3,0,21,-30,1
8.025095,29,6,2,3,-2,-24,14,25,1
8.025102,-35,-5,-5,-10,-11,2,1,-11,1
8.046548,-22,-2,-1,-2,-1,1,6,-13,1
8.046554,-13,2,-3,-2,7,9,5,26,1
8.046557,3,-19,-5,-2,-8,-11,5,0,1
8.046560,11,7,6,8,9,5,19,34,1
8.069078,-39,-7,-4,-6,-10,-19,-37,31,1
8.069102,11,-15,-5,-2,-6,-2,-9,-29,1
8.072067,4,-2,-1,-1,3,15,6,-18,1
8.072076,6,10,6,-3,-2,0,24,19,1
8.083829,-15,-17,-4,-1,3,5,-52,21,1
8.083852,8,20,3,0,-2,-9,-19,-9,1
8.085671,5,-19,-5,-3,-1,0,-7,0,1
8.085678,-54,-10,-2,1,-3,-2,-2,48,1
8.105780,11,1,-2,0,0,1,-18,70,1
8.105802,-6,6,1,-3,-13,-20,-23,-16,1
8.108028,22,11,3,7,13,17,35,89,1
8.108040,24,-16,-7,-10,-4,4,-2,-22,1
8.128894,-69,-7,-1,0,1,0,-20,17,1
8.128944,25,10,-2,3,4,6,28,44,1
8.129825,-22,-13,3,1,10,24,23,-12,1
8.129846,16,7,-4,-5,-25,-38,-42,8,1
8.143339,46,23,2,2,-1,1,6,-114,1
8.143356,-6,-24,-3,-2,-4,-9,-29,-62,1
8.143983,-80,-4,-5,-2,7,12,2,5,1
8.143998,32,13,-2,-1,7,5,23,-15,1
8.165684,32,11,4,0,3,3,-37,-20,1
8.165699,-72,2,9,8,10,6,17,78,1
8.166664,21,32,2,-6,-11,-17,-20,-84,1
8.166671,-2,-70,-7,-1,8,7,14,36,1
8.196499,-5,11,-2,0,-2,-1,34,4,1
8.196514,-40,-14,-7,-3,1,3,16,-3,1
8.198334,-9,6,-7,-2,2,2,-14,59,1
8.198345,-13,3,4,3,3,-5,-42,34,1
8.203692,80,3,1,-1,-10,-5,40,-13,1
8.203796,-43,-18,-9,-6,-2,2,-5,-36,1
8.204073,11,3,1,0,4,6,-17,15,1
8.206289,14,17,-3,-4,-11,-30,-33,-38,1
8.225826,29,-6,3,4,7,2,-12,21,1
8.225844,55,15,1,1,0,7,68,10,1
8.226608,-61,-14,-5,-6,-10,-18,-52,-85,1
8.226624,2,-2,-2,-2,1,4,-12,-62,1
8.249296,-51,2,-1,-2,0,0,-1,-10,1
8.249326,3,-1,0,-11,-9,-11,15,-76,1
8.252284,4,8,0,2,3,9,32,-11,1
8.252290,1,2,4,1,2,18,0,-1,1
8.262879,-11,-7,-8,-6,-8,-16,39,-27,1
8.262905,36,5,1,-2,-1,10,18,7,1
8.270886,69,19,4,4,4,-10,-53,-64,1
8.270904,-101,-37,-13,-6,-11,-8,27,-68,1
8.285880,18,5,6,8,13,9,-19,8,1
8.285886,5,-4,0,2,7,5,-14,-5,1
8.286559,10,2,-2,-6,-4,0,-31,-28,1
8.286576,40,35,12,9,2,2,11,57,1
8.309301,25,2,-2,-3,3,5,2,-34,1
8.309317,-7,4,1,-4,-7,-8,-30,3,1
8.310811,-29,-22,-5,1,-7,-14,-43,-30,1
8.310826,22,8,1,-9,0,8,-14,-19,1
8.322795,10,1,3,1,11,9,57,5,1
8.322819,69,35,9,4,-7,-17,-54,-15,1
8.332582,-110,-43,-17,-11,-10,-1,20,-58,1
8.332588,58,6,-1,0,2,2,19,-84,1
8.346141,-5,3,2,-2,-3,-7,-33,-11,1
8.346184,42,19,2,0,-1,-2,3,-9,1
8.348698,-38,-12,4,0,-1,-1,34,84,1
8.348705,-12,3,-4,1,1,-3,1,10,1
8.368550,55,10,-1,2,3,9,-4,70,1
8.368566,-82,-16,-4,0,5,15,-15,-10,1
8.370660,-9,-51,-13,-12,-21,-25,59,20,1
8.370674,-6,19,1,0,4,4,-31,8,1
8.382991,-45,-3,0,2,8,5,37,-6,1
8.383016,-13,-2,-2,-4,-15,-17,-16,0,1
8.391205,50,16,4,4,8,12,16,16,1
8.391248,6,7,1,8,0,1,24,77,1
8.405887,7,-16,-5,-5,-3,5,25,-37,1
8.405906,-47,-10,-8,-17,-14,-5,-12,-18,1
8.408050,-21,13,11,9,-3,-13,39,82,1
8.408056,30,-7,-3,-7,-3,-4,-5,-20,1
8.429101,-46,0,-1,-3,-11,-7,-2,-10,1
8.429125,29,0,4,10,19,26,19,4,1
8.429697,20,20,2,-5,-6,0,-9,-22,1
8.429710,-41,-17,-3,3,-2,-10,-74,-36,1
8.443260,-47,-25,-12,-8,-4,-5,-13,-3,1
8.443267,43,12,8,2,-2,-4,12,43,1
8.458777,23,28,6,8,14,13,-17,-18,1
8.458785,63,-3,3,2,-1,4,47,29,1
8.466171,-28,-4,1,3,1,-9,-29,-16,1
8.466201,-27,-16,-6,-2,-5,-14,-81,-36,1
8.468834,65,16,-1,-7,-6,-5,-2,-23,1
8.468841,-42,-3,4,0,4,8,22,53,1
8.490660,6,1,2,5,0,-12,-14,54,1
8.490685,13,-10,-7,-8,2,13,47,97,1
8.490690,10,2,6,13,17,13,-25,62,1
8.490694,-2,10,2,-3,-9,-13,-8,-60,1
8.502911,44,9,0,-4,-12,4,6,-39,1
8.502941,-26,-33,-6,-3,-7,-19,-65,-33,1
8.510831,-18,2,-7,-13,-15,1,-1,-51,1
8.510847,24,5,-4,-2,5,7,23,-38,1
8.525757,19,-13,-1,5,1,2,-42,42,1
8.525881,-50,0,-4,0,-10,-29,-9,-12,1
8.526586,21,17,4,-3,2,7,4,15,1
8.526603,-14,-9,-7,3,13,10,13,-18,1
8.549052,12,2,5,-3,-8,-10,28,-20,1
8.549068,-28,5,3,7,4,-6,23,-53,1
8.549905,-28,-4,7,7,0,-3,-7,59,1
8.549910,-23,1,0,-2,6,11,44,24,1
8.571888,42,-2,-1,-4,1,3,-58,-15,1
8.571913,-9,7,0,0,1,-1,19,44,1
8.572292,-25,-1,-3,5,10,15,55,-27,1
8.572309,14,-12,2,-5,-1,-9,-16,32,1
8.585824,-3,-1,-7,-5,-19,-19,-39,-40,1
8.585847,35,3,6,4,6,7,44,2,1
8.586461,-10,5,0,-3,-6,-7,-86,-56,1
8.586525,28,11,2,4,-1,3,8,6,1
8.609042,-25,2,-3,-4,4,6,28,30,1
8.609069,18,-2,3,4,1,5,0,87,1
8.610311,3,3,1,-3,-2,-1,-46,-26,1
8.610317,-2,0,-3,-6,-9,-11,-32,-7,1
8.631623,-12,-30,-5,4,15,12,-30,44,1
8.631644,47,11,2,1,-4,-6,26,-61,1
8.632159,3,6,2,2,7,11,22,3,1
8.632182,-13,-10,-2,2,-10,-12,16,47,1
8.646194,59,24,5,0,1,-5,-51,-2,1
8.646201,-66,-10,-10,-13,-5,-7,0,-59,1
8.646390,-3,-19,-3,-3,1,5,35,29,1
8.646422,33,18,9,8,6,-2,-23,-1,1
8.669123,-19,-4,-2,-6,-2,11,57,-21,1
8.669139,10,-8,-2,2,-1,4,-18,-18,1
8.670412,25,14,-1,-3,-6,-3,22,64,1
8.670428,-27,-21,-9,1,7,11,3,-35,1
8.692722,-58,-6,-1,-9,-9,0,14,49,1
8.692730,8,-5,-3,4,10,14,-16,11,1
8.692733,27,1,-2,2,1,-8,16,9,1
8.692737,-26,4,-2,-14,-8,1,-27,-11,1
8.705829,6,0,2,-2,-1,0,9,-7,1
8.705846,5,1,-5,-1,2,-3,2,-14,1
8.708257,-15,-27,-11,-13,-9,-13,-39,-21,1
8.708263,16,17,10,12,10,19,3,23,1
8.729057,-13,9,3,6,5,-4,-27,-27,1
8.729081,-30,1,2,-1,-5,-5,22,47,1
8.729934,24,-7,-2,2,-1,-5,31,-54,1
8.729959,-47,9,-8,-8,-8,-12,-35,-62,1
8.753827,-33,-14,-4,-2,-3,4,33,47,1
8.753833,38,15,8,5,6,2,-41,21,1
8.753836,30,12,5,2,1,4,17,-34,1
8.753839,-7,-7,-3,-4,-9,-22,-18,-15,1
8.765911,17,-1,-2,-5,-3,2,12,-1,1
8.765935,17,0,0,3,16,27,29,-12,1
8.768364,-55,-17,-10,-11,-18,-34,-89,-14,1
8.768379,38,10,2,0,-7,-3,-2,0,1
8.789318,38,6,-3,-6,-7,-11,25,-21,1
8.789347,-85,-22,-6,-5,-7,0,-21,-42,1
8.789934,-9,1,-3,4,7,1,7,10,1
8.790099,21,4,2,-3,0,10,21,1,1
8.811673,79,5,7,10,6,9,-29,-16,1
8.811700,-17,-3,-1,-4,-3,-8,11,-43,1
8.813532,-61,-18,-6,-4,-8,-4,18,7,1
8.813540,16,-2,-6,-3,-3,-9,-4,41,1
8.825785,6,-5,-3,-1,0,6,53,-45,1
8.825802,-21,10,1,0,-2,-1,-6,27,1
8.827444,3,7,7,11,17,19,6,90,1
8.827450,-24,-27,-8,-8,-15,-4,7,-4,1
8.848858,10,10,-1,1,9,-5,1,-2,1
8.848867,52,5,-1,-7,-9,-5,13,12,1
8.849526,25,2,0,-1,-6,-3,-3,23,1
8.849544,-104,-29,-8,-6,5,3,-19,-31,1
8.871723,-5,12,6,3,9,9,59,31,1
8.871739,29,-2,-4,-2,-13,-16,-30,-2,1
8.873548,-7,-4,-2,-2,-3,-1,-4,-16,1
8.873563,51,9,2,-2,4,9,54,26,1
8.885974,-38,-6,-2,1,-7,-11,-21,-24,1
8.885997,24,6,1,2,4,0,-2,31,1
8.888611,26,-5,-3,-2,-6,-6,3,-16,1
8.888618,18,3,-1,0,4,6,-2,-20,1
8.910124,-21,-20,-10,-7,2,1,-30,10,1
8.910130,37,25,13,10,3,-3,-7,39,1
8.910133,-25,10,7,6,-1,-7,-43,-12,1
8.910136,32,10,4,8,11,8,-30,12,1
8.932129,-13,-9,-6,-9,-12,-7,15,11,1
8.934393,-61,-17,-8,-5,1,11,1,63,1
8.934400,38,7,0,-4,-3,-5,54,-38,1
8.934403,-34,1,4,3,5,2,26,8,1
8.946279,25,-6,-6,-1,-5,2,-22,-22,1
8.946309,29,-3,-2,-3,-6,-5,-1,16,1
8.946552,-8,0,-3,-1,9,12,13,-7,1
8.946560,61,9,2,1,-15,-17,5,48,1
8.969017,-81,-6,0,1,-3,0,-14,2,1
8.971119,-7,-15,-9,-11,-9,-7,28,-27,1
8.971137,33,-14,-10,-5,-1,8,-5,22,1
8.971141,-44,-7,-4,-3,2,1,-22,-19,1
8.991586,16,9,9,5,4,-5,-10,16,1
8.991604,-16,-4,1,3,10,10,19,-23,1
8.992257,47,13,4,-1,0,-2,16,6,1
8.992276,-52,-18,-9,-4,-4,-8,-11,-19,1
9.006761,-22,-10,-5,-2,8,7,8,-6,1
9.006770,49,30,2,-3,-6,-10,22,-38,1
9.006773,12,3,2,7,9,12,-14,20,1
9.006775,-14,2,8,5,-2,-3,-11,4,1
9.029057,1,15,7,5,6,5,-1,-4,1
9.029195,-13,-19,-2,-1,-4,7,3,-8,1
9.031143,-48,-12,-15,-12,-10,-17,6,-60,1
9.031155,4,-3,-5,-5,-4,-4,-69,3,1
9.053416,23,7,1,5,3,1,12,20,1
9.053432,-20,4,3,-2,4,-2,14,-11,1
9.058713,-25,-5,1,3,-4,-15,-20,6,1
9.058739,-3,1,2,6,9,12,16,6,1
9.066126,-6,-4,-4,-11,-9,-2,14,-2,1
9.068031,27,2,-2,-1,-5,-8,-35,0,1
9.068037,-32,-4,-2,0,7,13,-40,1,1
9.068040,27,-3,0,-4,-3,-3,90,10,1
9.089224,1,10,5,4,0,-1,-40,-16,1
9.090860,-3,-18,-6,-2,5,-2,-45,-17,1
9.090875,-13,-7,0,-8,-8,4,17,0,1
9.090879,92,43,9,9,4,2,33,17,1
9.111562,-76,-22,-14,-6,-6,-7,-4,-27,1
9.111586,48,6,12,-3,8,22,16,-7,1
9.113364,8,6,7,3,-15,-36,-26,0,1
9.113370,-21,3,-10,1,0,3,-11,53,1
9.125799,11,-34,-5,-2,-3,-4,24,24,1
9.125815,-10,-16,-9,-4,-4,-3,-18,-4,1
9.128138,-20,-2,-1,-4,-3,-1,25,-18,1
9.128148,-20,0,1,-4,-1,1,0,-22,1
9.148922,73,27,8,4,-2,3,-27,23,1
9.149847,-82,-15,-7,1,-5,-14,-18,-26,1
9.149853,14,-13,-9,-15,-8,-1,-27,-10,1
9.149856,-25,-10,-13,-5,-2,-7,-19,-13,1
9.171814,-3,8,-3,-4,-7,-14,8,-5,1
9.171845,41,-6,3,3,-1,-3,-9,-8,1
9.173498,9,24,14,11,11,10,26,-2,1
9.173507,-82,-11,3,-2,3,1,-11,-11,1
9.185407,59,3,2,-1,2,4,-13,-3,1
9.185429,-45,19,0,4,-9,-35,12,-29,1
9.193925,-22,-53,-18,-7,-2,-5,40,-6,1
9.193933,5,2,-2,-1,0,-2,-12,-1,1
9.208956,1,-10,5,1,3,7,11,12,1
9.208975,10,11,-7,-11,-10,1,17,-2,1
9.209664,3,17,5,8,3,11,14,14,1
9.209758,6,-8,-1,-1,-4,3,-20,-16,1
9.232118,-17,-17,-9,-2,-3,1,8,-12,1
9.232154,19,10,4,6,10,12,17,14,1
9.234811,-49,-8,-3,-4,-1,3,10,-7,1
9.234820,14,-9,-1,-3,1,0,-9,-16,1
9.245477,-2,4,-6,-1,-2,-3,9,-2,1
9.245508,19,-7,-14,-1,-6,1,2,15,1
9.256699,65,16,12,-8,-8,-13,-16,6,1
9.256719,-50,6,0,3,-2,-7,-17,-16,1
9.268475,-7,-1,7,2,5,13,-12,-8,1
9.268491,62,-8,0,-1,-8,-12,1,6,1
9.276544,-19,-2,-21,-7,-6,-4,69,1,1
9.276562,53,-6,16,1,0,9,-18,3,1
9.291747,-21,21,6,-1,-3,-11,-3,-9,1
9.291798,-11,-10,0,1,6,12,39,12,1
9.293027,46,19,4,8,4,5,-77,-2,1
9.293046,7,-2,3,0,5,1,17,17,1
9.305121,-44,-10,-6,-2,0,13,6,-11,1
9.305146,-2,-9,-4,-9,-1,-4,2,-7,1
9.314555,19,-1,-4,-3,-2,13,-12,-8,1
9.314560,25,0,-4,-2,-3,-17,-3,-8,1
9.327560,36,23,3,9,6,7,18,6,1
9.327576,-71,-4,4,2,1,-2,17,-10,1
9.336909,-30,-12,3,5,8,2,0,-3,1
9.336915,61,19,-8,-10,-7,-1,20,6,1
9.353162,-63,-14,-1,-4,-9,-11,-18,-19,1
9.353176,28,-13,2,-2,1,1,9,6,1
9.353183,-6,4,3,9,6,-2,-49,-3,1
9.353189,-6,-6,1,2,-6,-18,-15,-8,1
9.367242,23,2,-9,-10,-7,-11,-18,-1,1
9.367248,11,7,0,-4,-2,-3,-48,-9,1
9.375523,-14,-9,0,0,4,14,19,10,1
9.375535,-15,-13,-5,-1,0,1,-9,-12,1
9.388591,23,7,1,-6,-11,-19,2,3,1
9.389901,27,8,4,1,1,0,-52,1,1
9.395232,-55,-12,-7,-8,-10,-7,10,-5,1
9.395255,4,1,-3,6,10,12,16,-3,1
9.413951,4,4,8,8,5,1,-15,3,1
9.413960,38,21,3,-1,-6,-3,25,11,1
9.413964,5,-10,-7,-5,-4,-3,-12,-17,1
9.413967,-23,-22,-14,-14,-16,-12,-5,-2,1
9.425528,-1,-7,5,13,10,4,12,-1,1
9.425548,-40,34,21,16,13,13,-14,7,1
9.435227,29,2,3,-3,-1,-2,2,13,1
9.435238,-6,-13,-5,-5,5,13,-9,-8,1
9.448188,5,-4,-12,-10,-13,-31,18,-3,1
9.448203,-11,-13,-13,-6,-4,-7,17,4,1
9.455269,-9,4,3,6,8,5,19,-1,1
9.455293,23,17,9,7,4,3,14,5,1
9.471458,-27,-4,-4,-3,4,14,9,7,1
9.471492,-25,-27,-15,-6,-8,-8,-14,-20,1
9.474197,4,19,6,1,3,-5,-19,12,1
9.474211,-22,-18,-2,-4,-7,4,49,-10,1
9.485991,17,4,5,4,2,1,-23,-4,1
9.486013,-45,-5,-2,2,2,4,0,-2,1
9.494124,23,3,-4,-4,-6,-9,-26,-15,1
9.494141,-2,9,2,6,8,7,40,24,1
9.508435,-8,12,1,-5,-4,3,8,0,1
9.508448,15,-28,-5,-5,5,5,-30,5,1
9.515179,13,5,0,1,-5,-3,6,-7,1
9.515201,5,10,3,1,-1,-4,-5,26,1
9.531576,-1,18,-2,-2,0,10,6,2,1
9.531699,-8,-16,-1,-3,-10,-24,-50,-8,1
9.532929,-24,-10,-2,-1,2,7,26,-2,1
9.532939,-20,1,-1,-2,-7,-3,-34,-25,1
9.555180,39,11,2,3,10,6,-15,59,1
9.555192,18,13,1,1,-5,-5,22,-22,1
9.555659,-12,1,-4,-2,-3,0,-8,-35,1
9.555670,20,8,5,-5,-9,-15,-40,23,1
9.568313,-25,-32,-9,-7,-6,-6,1,-37,1
9.568329,12,3,-2,0,7,10,15,-5,1
9.575150,7,-1,-1,-1,1,-2,25,16,1
9.575167,10,19,5,2,-2,-4,-25,4,1
9.591696,-21,16,2,3,9,9,20,-13,1
9.591713,-37,-28,-6,-6,-3,-7,-14,-7,1
9.594021,15,10,6,3,-12,-26,-2,74,1
9.594027,-7,-19,-9,-3,1,2,-10,-32,1
9.613949,37,22,4,-1,-3,-2,-5,-14,1
9.613967,-49,-17,-6,2,3,-1,12,8,1
9.615431,32,8,2,-1,2,9,17,-11,1
9.615443,-25,5,-1,0,1,-3,-9,2,1
9.628707,-48,-20,-5,-7,-9,-13,-19,-24,1
9.628730,46,4,-1,-1,1,9,9,-3,1
9.635226,-24,-17,-1,2,3,4,7,38,1
9.635249,35,28,1,3,15,11,10,-3,1
9.651668,13,-18,-8,-5,-15,-16,3,10,1
9.651687,-59,-9,7,1,4,2,12,3,1
9.652881,-27,-21,-12,-9,-13,-8,-2,-21,1
9.652918,15,16,-1,0,0,3,-28,3,1
9.674099,66,11,9,4,1,-5,-3,20,1
9.674124,-28,9,0,-3,-4,-7,29,-4,1
9.675774,55,-5,-4,-3,0,2,-19,46,1
9.675782,-63,-13,-10,-2,4,6,17,-24,1
9.688022,8,-32,4,0,3,7,-25,-12,1
9.688061,32,27,2,2,-10,-17,-10,29,1
9.696732,3,-19,-4,-3,-1,0,-9,31,1
9.696737,-3,-9,-4,-4,-8,-15,-19,-4,1
9.712327,-24,-11,-5,-1,1,2,47,8,1
9.712336,28,19,3,4,6,10,-10,-24,1
9.712846,18,6,3,4,9,5,15,-14,1
9.712855,-29,0,2,-2,-5,-8,-30,-24,1
9.734130,-19,-5,-10,-8,-7,4,-7,12,1
9.734148,18,-12,1,-2,4,6,18,-14,1
9.735856,-4,20,2,2,8,19,-32,-25,1
9.735867,33,-2,8,-2,-9,-15,5,5,1
9.747663,-56,-9,-2,-5,-2,-2,-17,-42,1
9.747688,-3,1,-1,-3,-4,2,-9,2,1
9.758286,6,-9,-3,4,11,17,9,6,1
9.758303,33,0,5,3,-5,-14,14,44,1
9.771801,-2,17,3,-1,-5,2,-49,-8,1
9.773904,14,10,1,-2,0,4,14,3,1
9.773920,-48,-13,-5,-8,-9,-6,-13,-29,1
9.773924,43,4,0,0,-1,4,14,14,1
9.793904,-43,-9,-3,1,2,-7,10,-19,1
9.793921,31,-9,-8,-2,-1,4,-23,4,1
9.795434,-12,13,-3,-2,-4,-9,11,-8,1
9.795450,-39,-8,-6,-1,1,-3,24,-31,1
9.807720,63,-7,2,3,11,10,6,34,1
9.807740,-42,0,-3,-7,-15,-18,7,-7,1
9.816693,-22,-7,-1,-4,-3,-15,-10,-19,1
9.816704,-9,4,-2,-1,-1,5,-2,13,1
9.831492,19,13,3,3,6,5,-18,4,1
9.831515,-23,-28,-6,-2,15,40,18,-11,1
9.832956,7,9,3,-2,-28,-50,-9,-11,1
9.832968,-15,-2,1,0,-2,3,18,40,1
9.855166,34,3,-4,-2,-5,-4,-10,-2,1
9.855177,-36,-18,-14,-9,5,15,8,10,1
9.855556,-1,-16,2,-4,1,-2,14,-10,1
9.855568,4,24,5,10,3,7,0,-34,1
9.869683,-10,7,12,6,4,-1,3,-1,1
9.869692,12,-3,0,3,0,-12,1,-12,1
9.876917,4,-11,-11,-7,-1,4,-2,-19,1
9.876924,35,-14,-5,-6,-6,-8,-8,4,1
9.891497,-23,5,2,1,2,8,18,3,1
9.891517,-7,9,11,2,1,-5,17,-10,1
9.893032,20,4,-2,-5,-6,-18,-34,-11,1
9.893045,-20,-14,-8,-2,6,6,-21,21,1
9.916090,30,-2,-7,-4,-6,-4,5,9,1
9.916096,9,16,2,1,-5,1,-21,11,1
9.916099,-15,-4,4,2,1,1,15,-8,1
9.916103,3,-2,1,-2,-3,0,-11,-4,1
9.936620,-13,-1,-5,-3,-1,-11,28,-32,1
9.939431,73,20,5,-1,2,14,-31,19,1
9.939439,-60,-21,-12,-10,-21,-50,-15,-10,1
9.939443,3,-2,6,4,6,2,15,-3,1
9.951685,5,5,1,5,4,2,-14,43,1
9.951709,3,18,8,5,1,-2,8,1,1
9.954137,-10,-12,-1,7,12,29,23,13,1
9.954155,-9,-19,-2,-5,-3,-1,-5,-6,1
9.974109,-23,-17,-14,-10,-9,-8,5,4,1
9.975169,16,6,-4,-3,-1,-10,4,5,1
9.975533,19,24,8,7,15,30,2,16,1
9.975542,-60,-15,-4,-5,-8,-20,-9,-16,1
9.988099,17,0,-5,-3,3,1,15,-5,1
9.988131,6,-23,5,-1,-6,-7,-14,0,1
9.998141,-25,15,4,2,1,5,3,-12,1
9.998148,23,7,1,4,3,15,18,-3,1
10.011971,-19,-3,-1,-1,-6,-9,-4,-14,1
10.011993,8,13,-4,1,0,-6,-6,2,1
10.013172,37,4,3,5,4,6,-17,20,1
10.013198,-48,-29,-6,-10,-6,3,11,-26,1
10.034122,54,-3,-7,-7,-5,-1,-12,5,1
10.034211,8,-2,-2,0,-6,-12,17,-13,1
10.036863,-60,-3,0,0,7,10,32,7,1
10.036875,14,10,1,-2,0,-3,-38,-2,1
10.047599,-34,-16,-6,-8,-9,-7,-16,-20,1
10.047617,10,13,-2,-2,7,21,-9,5,1
10.056572,34,9,12,13,17,25,32,8,1
10.056579,2,4,-3,-7,-19,-46,20,-1,1
10.073086,-24,-7,-3,-1,-3,-2,-3,-14,1
10.073098,-12,-12,0,-1,-2,-1,-12,0,1
10.073102,33,42,4,-2,6,14,-4,-8,1
10.073105,-22,-37,-6,7,6,12,10,10,1
10.094119,15,13,8,2,2,2,-8,14,1
10.094140,-8,-1,-2,-1,-6,-10,19,-1,1
10.095863,-18,-32,-10,-6,-1,-9,11,-9,1
10.095869,63,29,2,-2,3,5,7,16,1
10.107736,-78,-24,-1,-1,-1,-2,-30,-8,1
10.107755,-9,-5,-6,-4,-2,-1,20,-11,1
10.119163,2,-8,-3,-3,-8,-11,-25,3,1
10.119171,26,2,-9,-7,-2,7,-9,-17,1
10.131962,-11,8,5,5,9,14,-14,3,1
10.131986,-24,5,-4,-5,-4,-16,6,-13,1
10.134684,3,2,0,-2,-21,-44,-34,-7,1
10.134692,-3,3,12,9,13,15,41,7,1
10.154119,-23,-2,2,3,-6,-11,-4,2,1
10.154154,-3,-16,-6,0,4,4,-14,-18,1
10.155642,-10,-6,-11,-11,-4,6,-14,3,1
10.155668,-2,11,-2,-2,-1,-1,-8,1,1
10.167478,45,9,2,-4,-2,1,34,5,1
10.167489,-81,-17,-1,2,5,2,-25,-4,1
10.177072,12,-10,0,-3,-5,-2,19,-13,1
10.177079,2,9,5,4,7,12,-21,6,1
10.191721,-3,0,-3,-1,-2,-2,18,-2,1
10.191743,66,10,-7,-3,-8,-5,11,23,1
10.193657,-8,-5,8,6,10,9,-36,-15,1
10.193754,-61,-25,-9,-7,-10,-8,-13,-11,1
10.213532,22,2,-6,-5,-3,-2,19,-3,1
10.213541,9,16,5,6,2,-4,-17,6,1
10.222376,7,4,-5,-7,-7,-5,17,1,1
10.222382,11,-3,0,-2,0,4,-3,-1,1
10.227563,0,12,6,4,2,-3,1,1,1
10.227579,3,-3,3,4,16,2,-73,-1,1
10.239024,-22,-10,-7,-2,-22,-31,0,-12,1
10.239049,-2,-3,-3,-8,-12,-15,-5,-4,1
10.251161,17,0,-3,-4,2,4,-16,3,1
10.251193,-21,-7,-4,-3,-3,0,27,6,1
10.257880,17,-9,-1,-1,9,15,42,-8,1
10.257901,-7,30,7,8,7,2,-51,0,1
10.273976,-33,-42,-4,-3,0,-6,-4,-18,1
10.274010,-7,-2,-1,-2,0,7,27,7,1
10.275516,0,6,-4,-6,-2,1,-21,6,1
10.275534,-7,-25,-11,-7,-9,-4,28,-7,1
10.289797,23,12,8,3,4,6,5,6,1
10.289826,22,9,0,4,1,-5,7,4,1
10.297679,3,11,3,-1,-2,7,-19,-7,1
10.297689,25,-5,-1,5,9,2,4,3,1
10.310890,-4,-5,-5,-4,-3,1,-20,-12,1
10.310909,-57,-17,2,-5,-9,-19,-12,-7,1
10.319781,51,9,-4,-2,0,8,8,10,1
10.319793,-5,1,-4,-7,-1,-3,1,3,1
10.335684,-16,-4,-1,4,1,-2,5,-5,1
10.335697,0,5,-5,-7,-8,-16,-48,-7,1
10.335705,31,7,7,4,4,7,-6,5,1
10.335712,-35,-6,6,6,4,-2,15,-15,1
10.348097,-26,-2,-5,-4,0,9,2,4,1
10.348133,8,-1,4,6,1,-5,22,-2,1
10.357975,-9,-4,-6,-11,-5,1,6,5,1
10.357985,41,2,-4,-8,-6,-1,2,-2,1
10.371325,-69,12,5,1,-3,-8,3,-2,1
10.371358,-49,-21,-3,2,6,16,24,-20,1
10.377874,22,9,1,2,2,-5,-31,-1,1
10.377897,17,0,0,5,4,7,9,1,1
10.393932,38,19,-1,-11,-3,2,-4,14,1
10.393951,-1,3,-3,-5,-5,0,41,2,1
10.395541,-28,-35,-8,-1,-2,-6,-36,-12,1
10.395554,3,5,0,-2,-1,-1,-10,1,1
10.408030,14,-2,6,10,6,2,41,4,1
10.408057,30,9,-2,-5,-3,4,-67,-5,1
10.416590,-5,9,5,2,10,8,55,7,1
10.416597,-7,-3,-1,-1,-4,1,0,8,1
10.430678,24,0,-3,2,0,-4,3,1,1
10.430686,20,-8,-3,-6,-6,-6,26,1,1
10.440860,-37,14,1,5,7,13,-4,10,1
10.440870,-16,-17,2,-1,-2,-5,10,-11,1
10.454473,50,-9,-7,-4,-2,1,-26,1,1
10.457552,-35,8,2,0,1,10,1,-7,1
10.457569,-10,-9,-2,-1,-3,-5,12,-4,1
10.457572,-3,20,3,2,-1,4,-1,14,1
10.476819,0,-17,-2,-5,-5,-6,-19,-6,1
10.476829,-13,-20,-14,1,1,2,-7,1,1
10.477872,27,4,12,3,6,9,-1,14,1
10.477887,-16,-1,-1,-4,-8,-15,0,-8,1
10.493603,-21,-5,-4,1,-2,1,-12,-14,1
10.493612,8,8,-2,-11,-4,-4,2,4,1
10.497735,-6,-5,-5,1,1,-3,-14,-5,1
10.497758,45,7,-1,-1,6,-1,12,9,1
10.514207,-67,-9,-5,-9,-9,-3,-25,-7,1
10.514223,-1,1,0,-5,-3,-2,13,10,1
10.515817,16,1,4,6,-2,-7,22,-7,1
10.515825,-21,9,7,6,11,9,-6,-5,1
10.536577,13,11,7,-1,-6,-10,-3,4,1
10.536666,22,-7,-1,3,0,1,7,6,1
10.538802,-10,-5,-11,-6,-5,3,32,8,1
10.538808,10,-22,-9,-7,-6,2,-43,-12,1
10.551411,-6,13,4,2,4,14,14,2,1
10.551443,46,15,6,1,2,-4,-21,-20,1
10.557947,-10,-10,0,4,1,-1,21,11,1
10.557986,-63,-31,-13,-7,-8,-6,-7,-9,1
10.574073,61,1,-1,-1,5,1,25,3,1
10.574093,0,3,5,3,-4,-3,-15,12,1
10.575432,10,14,-3,-6,-2,-5,-8,-7,1
10.575450,-6,2,6,3,6,14,-18,-2,1
10.596468,12,-3,-7,-2,-11,-14,28,1,1
10.596511,-14,-9,1,3,3,-2,7,-2,1
10.598928,9,6,2,1,3,1,-7,3,1
10.598935,7,12,4,4,5,20,10,11,1
10.610485,23,6,6,9,-1,-13,-20,-4,1
10.610501,-69,-10,-3,-5,1,-3,-31,0,1
10.620598,-57,9,-11,-8,-6,0,11,-14,1
10.620625,-14,-48,-8,-6,7,-1,-33,-12,1
10.634740,-31,-5,-5,-6,-9,-9,-12,-6,1
10.634756,39,7,2,1,2,6,25,12,1
10.635410,16,12,2,-3,-3,-2,-26,5,1
10.635447,-20,20,-2,-2,-6,-7,-7,-10,1
10.656753,15,-15,-7,-1,3,6,14,6,1
10.656793,-45,-12,-4,-3,-5,-3,10,-4,1
10.659338,-14,-10,2,4,-3,-6,-4,-5,1
10.659351,49,7,3,3,-1,-2,19,14,1
10.670765,-39,-6,1,-1,-1,-3,-20,-2,1
10.672931,16,9,3,1,0,12,46,1,1
10.680098,30,30,-2,3,8,7,-90,-2,1
10.680111,3,-39,-14,-10,-21,-44,-1,-10,1
10.694149,27,38,20,9,13,16,13,14,1
10.694173,9,-21,-7,-6,0,-5,-18,-4,1
10.696192,-62,-11,5,3,11,18,53,-1,1
10.696199,16,14,-5,-6,-18,-46,-30,-8,1
10.716705,-21,-4,-13,-11,-3,-1,-17,-1,1
10.716722,56,16,6,2,-5,-11,-21,-5,1
10.717876,-23,-12,4,4,-5,-16,20,4,1
10.717892,15,15,8,3,4,18,9,9,1
10.730356,-30,-9,0,8,5,1,46,6,1
10.730372,9,0,-4,-4,-5,-1,-50,-10,1
10.740691,22,-13,-12,-10,-8,0,-38,0,1
10.740700,2,17,3,2,7,11,41,4,1
10.754121,-75,-21,-5,-4,-1,-4,6,-19,1
10.756214,23,23,1,3,-4,1,14,-2,1
10.756221,28,-34,0,-3,1,2,-26,-3,1
10.756225,10,25,3,2,1,3,50,19,1
10.776388,31,3,-3,-1,-1,-3,-40,-12,1
10.776400,-51,-7,2,-1,-4,-4,21,-10,1
10.777933,-8,3,-4,3,0,-3,8,-6,1
10.777948,-22,-6,-3,-9,-4,1,-7,0,1
10.790992,3,-11,-3,-2,-2,-3,-59,-11,1
10.791002,45,9,3,6,6,4,3,2,1
10.800420,8,9,2,-1,-7,-10,25,15,1
10.800428,-43,-24,-4,-1,12,19,10,-60,1
10.814094,22,11,0,-5,-16,-25,-14,12,1
10.814112,28,2,-1,-3,5,-2,43,-5,1
10.815435,1,-12,-7,-7,-6,-2,-10,-1,1
10.815445,0,10,6,8,8,7,11,3,1
10.836429,1,2,3,-1,0,-4,-7,0,1
10.836469,-7,10,-1,3,9,8,-14,26,1
10.838198,-33,-22,-14,-12,-7,-9,18,-36,1
10.838215,-27,15,-1,-5,-3,2,-12,9,1
10.852171,49,-5,12,17,10,18,38,-5,1
10.852177,-17,-8,5,3,-2,1,-16,2,1
10.859585,0,15,3,-2,13,19,12,12,1
10.859592,2,-24,-12,-14,-31,-45,-33,-8,1
10.874005,-23,29,-4,-5,3,9,-7,-7,1
10.874023,7,-36,-9,-5,-8,-6,-11,-10,1
10.875945,-5,-2,3,3,7,2,6,-6,1
10.875954,43,16,0,2,3,10,-8,17,1
10.898695,8,8,2,-3,-6,-7,3,3,1
10.898701,-36,10,10,4,1,-5,9,-9,1
10.898705,13,-27,-14,-4,-2,0,17,22,1
10.898708,-30,-27,-3,2,6,1,-55,-16,1
10.910312,10,21,13,10,4,3,-34,15,1
10.910328,-9,-12,-8,-5,-5,-9,-34,-14,1
10.922041,47,8,2,-8,-10,-9,-10,25,1
10.922051,2,12,-14,-5,-4,-4,17,1,1
10.934109,-25,-49,-6,-9,3,5,1,-8,1
10.934125,-2,29,15,8,0,2,-1,0,1
10.935876,6,33,23,21,10,-2,34,2,1
10.935888,59,-16,-9,-8,4,9,-43,6,1
10.956894,-80,-15,-1,-4,-2,-3,6,-12,1
10.956913,34,3,0,-15,-19,-24,19,14,1
10.958835,-42,-3,-8,-3,-7,-11,-13,-30,1
10.958849,19,7,-2,4,3,13,29,16,1
10.970200,43,-34,-18,-12,-9,2,16,15,1
10.971951,0,-24,12,3,12,6,-30,-6,1
10.982424,-25,53,12,9,2,3,-12,-26,1
10.982441,1,16,14,1,4,5,8,2,1
10.993911,-13,-13,-3,-1,-11,-12,31,-2,1
10.993925,-14,13,-17,0,4,9,40,14,1
10.995417,11,-25,-9,-15,-8,-1,-6,9,1
10.995431,24,-2,6,7,-1,-1,-22,-28,1
11.016700,28,7,-7,-6,1,-2,30,5,1
11.016731,-9,1,-23,-8,0,14,-47,0,1
11.019653,36,-19,-4,-9,-14,-25,48,-10,1
11.019659,-97,-20,-15,-7,-7,-5,-16,4,1
11.030201,43,0,31,17,9,6,-1,4,1
11.030266,2,25,8,9,9,12,5,16,1
11.040804,-41,11,-19,-17,-4,-4,-43,-2,1
11.040824,8,-55,-29,-10,-8,-8,42,4,1
11.057353,-28,-3,20,-10,-6,-1,-40,-29,1
11.057365,14,87,30,35,9,-8,18,11,1
11.057373,28,6,33,17,21,22,-32,4,1
11.057386,-7,-29,-18,-11,-7,-21,-42,-8,1
11.077282,7,-23,-42,-23,-12,-2,19,4,1
11.077401,5,-38,-7,-2,-2,1,-11,-3,1
11.078176,12,15,6,4,1,-1,-21,-1,1
11.078195,-57,9,5,4,0,1,0,1,1
11.090451,15,12,-17,-10,-4,0,-12,1,1
11.090501,-55,-50,-10,-17,-11,-8,17,-16,1
11.100617,42,5,4,11,2,2,18,11,1
11.100625,16,38,20,9,13,16,-1,1,1
11.113899,-34,9,-3,-1,-4,8,-14,-7,1
11.113916,50,1,-9,-9,-5,-4,-7,0,1
11.115403,-69,-32,-8,-2,-3,0,10,-6,1
11.115415,-23,13,9,5,7,5,5,8,1
11.136715,10,11,3,5,-7,-15,-6,-15,1
11.136740,-28,-16,-14,-12,-4,0,8,-3,1
11.138863,23,2,9,9,-1,1,-36,-9,1
11.138870,46,25,28,9,3,-5,42,16,1
11.150065,3,19,3,8,4,-1,-14,11,1
11.150080,-34,-28,-11,-7,0,9,-10,1,1
11.159858,39,2,-21,-13,-11,-24,13,7,1
11.159864,-36,-9,-3,-4,-5,3,9,-10,1
11.173443,36,3,3,2,4,-2,6,0,1
11.173468,-3,3,0,-7,-1,-3,-3,-5,1
11.180181,-1,4,-7,-3,3,12,34,0,1
11.180199,-6,0,9,0,-8,-4,-24,2,1
11.196443,3,22,5,3,3,0,8,-3,1
11.196459,-59,-40,1,5,2,5,24,-12,1
11.197914,31,-18,-10,-5,-3,-1,9,4,1
11.197938,37,11,-5,0,3,-1,-2,-9,1
11.212089,-23,6,8,-4,1,4,14,2,1
11.212096,32,13,4,3,4,3,10,-1,1
11.220869,-46,23,23,13,-1,2,-69,-8,1
11.220888,2,-22,-13,-10,-9,-9,13,-3,1
11.233284,-6,6,-14,-5,-3,12,-13,9,1
11.233300,43,-1,0,3,0,-18,4,5,1
11.240268,-57,-30,-19,-13,-6,5,0,-12,1
11.240290,26,22,-17,-13,-5,5,-18,8,1
11.257878,-20,-34,27,25,6,-1,24,-9,1
11.257888,-12,10,13,1,-1,3,9,4,1
11.258123,3,7,-2,3,5,12,-9,1,1
11.258159,-11,-17,-14,-12,-13,-36,22,-8,1
11.270625,16,18,-4,0,5,0,17,7,1
11.270669,-13,1,9,-3,0,-6,-9,-11,1
11.279286,22,-19,-7,-2,1,0,34,3,1
11.279310,4,26,11,1,2,11,-7,-2,1
11.293276,-32,5,8,8,3,-5,-6,-3,1
11.293293,-5,34,-1,-1,-1,-8,-8,-19,1
11.300097,-7,-22,-17,-23,-12,-1,-15,-2,1
11.300113,-18,-46,-10,5,6,13,11,-9,1
11.317275,41,22,5,6,4,-8,-4,24,1
11.317299,9,12,7,4,1,19,9,3,1
11.319961,-4,2,-2,-2,-9,-18,8,6,1
11.319969,42,6,-7,-6,1,22,10,8,1
11.330115,17,-30,-12,-6,-10,-41,-13,-19,1
11.330131,-17,-15,-6,-8,-4,5,-23,3,1
11.340342,-19,5,2,-5,-2,-1,-5,1,1
11.340353,-8,8,6,6,5,-1,1,7,1
11.353903,-16,-30,-2,-7,0,11,0,-4,1
11.353934,5,1,-21,-15,-8,-12,-10,-7,1
11.360102,-13,-12,14,15,10,-1,-18,-11,1
11.360122,-14,30,15,8,6,7,21,-1,1
11.376569,10,10,-5,-6,-2,4,0,14,1
11.376586,-15,-22,-12,-14,-10,-3,-18,-2,1
11.378599,10,14,-4,1,-2,-18,-9,13,1
11.378606,-20,13,15,9,15,25,17,-18,1
11.390414,-23,6,-7,-3,-10,-40,-21,50,1
11.390447,7,-22,-9,-2,-4,-4,10,-18,1
11.400647,38,-14,-4,-8,-2,3,-12,-19,1
11.400655,10,18,9,5,-2,-2,-21,6,1
11.415150,-17,-8,-6,-3,2,15,25,-24,1
11.415158,-11,9,9,5,5,-3,-19,15,1
11.420413,-16,-1,-8,-6,-5,0,11,-9,1
11.422402,58,-17,-8,-6,-6,-11,-7,9,1
11.436936,-2,0,-5,-4,4,28,20,-15,1
11.436976,23,-1,-6,-10,-10,-11,-16,16,1
11.439031,-36,20,14,13,10,5,10,-18,1
11.439038,3,8,8,8,2,-8,-5,11,1
11.459034,-23,22,9,1,-1,8,23,4,1
11.460095,16,-37,-24,-15,-11,-4,4,-15,1
11.460524,21,-5,-5,-5,2,9,-25,-7,1
11.460535,-24,14,-2,7,0,-30,-42,6,1
11.473325,2,-60,-2,-7,-7,0,-3,-11,1
11.473346,31,18,12,10,0,-4,1,7,1
11.480190,-42,-8,-2,-7,-7,1,5,-15,1
11.481307,-41,-23,-11,-7,-3,18,-12,76,1
11.496727,19,9,-9,-3,-2,1,-16,-8,1
11.498602,-14,13,1,4,-3,-31,-1,-40,1
11.498611,-5,-24,-4,0,0,6,-5,-8,1
11.498614,5,-21,24,6,5,2,6,-35,1
11.526504,-2,-7,-9,-4,-5,-5,-44,-3,1
11.526523,-7,2,-2,-2,-4,10,-18,13,1
11.527995,-23,17,-7,-1,-2,-12,48,14,1
11.528009,-2,-1,11,-3,0,11,3,-5,1
11.533299,-14,1,-11,-7,-3,1,-22,-5,1
11.533362,36,3,7,0,6,-3,-6,-3,1
11.540253,7,11,9,8,1,-2,0,13,1
11.540282,27,10,-7,-6,-5,5,25,10,1
11.556778,-52,0,7,6,8,1,-21,-26,1
11.556810,41,4,-9,1,1,2,26,19,1
11.558166,-10,-5,-5,-6,-4,2,-21,-1,1
11.558193,43,-4,-1,1,0,-7,-4,-9,1
11.579066,-53,10,-5,2,2,-1,-4,-2,1
11.580112,-37,-8,5,2,3,5,-12,-10,1
11.580460,7,-11,-8,-1,2,0,9,14,1
11.580474,-18,-32,3,-1,-6,-10,1,-19,1
11.592613,35,15,5,-5,-1,6,5,-9,1
11.592633,1,-1,-5,2,0,-1,-25,30,1
11.607846,-26,-15,0,5,5,4,-4,-19,1
11.608700,-4,8,-11,-7,-5,2,23,-11,1
11.618949,79,13,-7,-3,0,-25,-6,17,1
11.618956,-47,-10,0,-2,-15,-21,-2,-21,1
11.618960,32,28,20,6,5,4,-5,-1,1
11.618963,-43,-8,-2,0,0,-5,-19,0,1
11.639119,-3,-1,-1,-2,5,21,9,-15,1
11.639139,16,11,-13,-5,0,4,16,4,1
11.640605,-20,-50,-4,2,-2,-13,-20,7,1
11.640615,-12,-5,-9,-7,-4,3,2,-22,1
11.653039,13,0,3,1,-2,-1,21,12,1
11.654196,36,-3,-3,-2,0,3,-9,-17,1
11.664034,9,39,2,-2,1,5,-7,23,1
11.664051,-1,-11,6,1,-1,-8,4,5,1
11.678911,-10,-7,-15,-11,-3,0,-6,-6,1
11.678917,-34,-11,9,5,0,-5,-20,-7,1
11.678921,-4,-8,10,6,2,8,16,-10,1
11.678924,14,15,-16,0,1,3,-8,-36,1
11.698982,-9,-18,18,5,9,18,-6,41,1
11.699895,-3,5,1,2,0,-4,13,18,1
11.700440,14,6,-14,-9,-6,-4,15,-3,1
11.700477,-10,26,5,1,1,-4,-23,-24,1
11.712873,22,-3,-5,-1,-5,8,16,-3,1
11.712891,18,-10,-5,0,7,16,-3,1,1
11.723031,-22,-15,14,2,-2,-5,-4,2,1
11.723038,10,8,-7,-7,-1,1,-6,16,1
11.737163,-28,26,2,2,1,-7,-8,-13,1
11.737196,36,-7,-1,2,5,-1,22,7,1
11.739944,13,13,-3,-2,-4,-6,-13,11,1
11.739960,-26,-13,-15,-8,-2,-4,-2,-1,1
11.758978,14,24,-10,-3,-4,-17,0,2,1
11.758997,-35,-9,23,13,4,7,16,1,1
11.760523,12,23,-3,-1,2,1,-23,26,1
11.760540,4,-15,-1,0,-7,-7,13,0,1
11.773817,-7,-5,-12,-6,-3,-5,-10,-18,1
11.773828,-19,12,-7,-6,5,11,33,-9,1
11.781952,-1,-8,0,-6,2,21,25,-11,1
11.781958,33,4,-1,6,-7,-27,-43,31,1
11.795734,1,-11,3,6,6,3,20,-9,1
11.798030,-18,12,-1,-9,-5,2,4,5,1
11.804914,2,-20,3,2,3,-1,2,-4,1
11.804921,5,36,-5,-2,0,9,17,-11,1
11.819709,-24,-51,37,13,5,-3,39,-34,1
11.819715,8,12,0,1,0,-7,4,3,1
11.820713,5,11,-9,-4,-9,-8,-6,-35,1
11.820853,-10,-33,-1,1,0,0,19,24,1
11.834214,29,24,-4,-5,-3,5,15,28,1
11.834220,-39,11,2,4,7,11,-5,-7,1
11.842525,8,-13,-7,-5,-11,-38,6,-62,1
11.842532,13,0,7,1,-3,8,-18,3,1
11.856534,29,19,7,11,9,7,8,109,1
11.856560,-4,-27,-6,-7,-3,-8,-27,-13,1
11.859526,21,46,-14,-5,-7,10,0,49,1
11.859535,-54,-19,7,0,6,-6,4,-8,1
11.878569,5,-20,-8,-7,-13,-14,-14,-51,1
11.878593,-8,45,0,-2,-3,-1,3,6,1
11.888590,22,-39,9,10,18,17,13,15,1
11.888599,-5,-1,-4,-7,-16,-44,16,-32,1
11.892725,20,19,-8,-4,-5,2,-3,2,1
11.892742,-17,-37,3,2,-2,1,-6,7,1
11.901950,9,-7,-2,-2,3,-2,9,-7,1
11.901980,40,23,7,1,1,8,7,-26,1
11.916669,-38,-12,-5,-1,1,9,-8,-25,1
11.916692,4,-20,-14,-7,0,-1,-1,-13,1
11.918070,-1,17,4,-1,-2,-16,-5,-21,1
11.918086,30,7,-1,0,-4,1,-1,87,1
11.939084,-3,-4,-3,-2,-2,-12,-23,-26,1
11.939104,4,-2,-4,-2,-3,16,39,-10,1
11.941186,-15,-8,-2,-6,-4,0,-70,25,1
11.941193,-24,11,-6,-2,2,5,9,-40,1
11.952808,-19,-32,12,1,-3,2,-11,-17,1
11.952832,26,8,2,6,-1,-7,-18,32,1
11.961803,-18,-6,-5,-2,2,6,1,-21,1
11.961816,41,23,1,-2,-4,-2,-13,-39,1
11.976884,-45,4,-11,-6,-3,-6,-44,4,1
11.976892,-7,-17,12,2,3,7,2,-20,1
11.982580,-2,-14,-10,-7,-11,-19,-36,-13,1
11.982596,26,11,5,1,10,17,-8,0,1
11.999312,-13,-15,-5,-3,-4,-5,45,18,1
11.999328,-8,-2,-5,-2,-5,-10,-12,-40,1
14.001624,16,-9,-4,-1,-1,-1,2,10,0
14.001966,-16,-8,-6,-3,-1,-2,-3,1,0
14.003388,-3,1,2,-1,-1,-2,-3,0,0
14.003407,7,-2,-2,-1,-1,1,2,6,0
14.024724,-2,0,-1,0,0,-1,-3,-6,0
14.024737,12,3,3,2,2,0,-1,6,0
14.025407,-10,-6,-4,-1,2,-3,-3,-14,0
14.025471,7,-2,-5,-1,-2,-1,-1,-1,0
14.038051,3,1,-1,-2,-2,-1,-2,4,0
14.038084,-3,0,-3,-4,-5,-2,-3,-4,0
14.048024,4,3,4,1,0,0,2,5,0
14.048032,15,4,5,5,-1,3,5,18,0
14.061465,-17,-8,-3,-3,-4,-4,-4,-19,0
14.061483,13,-6,-5,-3,-1,-1,-1,3,0
14.063020,-16,-5,-4,-4,-2,-2,-1,1,0
14.063037,3,0,-1,1,3,-1,1,-1,0
14.084054,6,12,4,1,0,0,2,8,0
14.084088,-8,-1,3,2,-2,-2,1,-5,0
14.086214,-3,-1,3,3,-2,0,2,1,0
14.086224,1,2,-1,2,-1,-1,-1,-3,0
14.106673,3,-10,-6,-3,0,0,0,3,0
14.106697,-13,-4,-6,-6,-5,-2,-5,-7,0
14.108786,11,2,-3,-7,-3,-1,-1,5,0
14.108793,3,-3,3,1,0,-1,-4,-27,0
14.121887,-42,-2,0,2,-1,-2,-4,-9,0
14.122021,23,0,-2,2,-2,-1,0,-3,0
14.123262,-3,-1,-1,-1,-2,-1,0,6,0
14.123310,10,-3,-5,-3,-2,-3,-1,7,0
14.144130,7,0,-1,-1,1,1,-1,-1,0
14.144146,-16,5,2,3,2,2,0,-7,0
14.145507,-1,-1,0,3,0,-1,0,-3,0
14.145522,-17,-5,-4,-5,-3,-2,-1,-7,0
14.158118,7,-9,-6,-5,-3,-4,-2,4,0
14.158160,-7,-1,0,-2,-3,-1,-1,-3,0
14.167923,7,6,4,0,-1,-2,-4,-3,0
14.167936,-4,9,5,2,0,1,2,4,0
14.181592,4,-1,-3,0,0,-1,3,1,0
14.181599,17,-2,-4,-4,-2,-1,-1,6,0
14.182905,-21,-4,-2,-1,-1,-2,0,-8,0
14.182927,-5,-5,-1,-1,-3,-3,-5,-8,0
14.204236,24,7,1,1,0,0,1,9,0
14.204264,-9,-15,-7,-3,-1,-3,0,3,0
14.206615,18,1,4,1,0,2,-1,1,0
14.206624,-19,17,9,4,1,-2,-2,-13,0
14.217776,6,6,4,2,0,1,2,6,0
14.217801,-13,-4,-4,-2,-2,-2,0,1,0
14.227852,-6,-10,-8,-8,-2,0,0,3,0
14.227861,2,-17,-8,-6,-3,-2,0,4,0
14.243151,-2,0,1,2,0,0,-1,3,0
14.243159,-1,11,2,0,-1,1,0,3,0
14.243163,3,-3,-2,1,0,-1,-3,-2,0
14.243166,2,-6,-3,-2,0,1,-1,3,0
14.264617,2,4,1,-1,1,-1,1,-2,0
14.264650,2,-5,2,-1,1,0,0,2,0
14.266216,-3,6,3,1,-1,-2,-3,-3,0
14.266223,-34,-4,-4,-1,-3,-4,-6,-14,0
14.286653,3,-5,-4,-2,-3,-2,-2,0,0
14.286685,3,1,0,1,1,-1,-2,-12,0
14.289071,-21,0,-1,0,-2,-2,0,-5,0
14.289085,-12,-6,-5,-3,-2,-1,0,4,0
14.301640,19,-4,-2,-3,-4,-3,-5,-1,0
14.301665,-16,-2,1,1,0,-1,-2,1,0
14.302948,3,2,-1,1,1,0,0,2,0
14.302965,7,2,2,1,2,0,0,-7,0
14.324570,-16,1,2,1,1,1,-1,-6,0
14.324608,14,2,-1,2,0,0,1,3,0
14.325745,2,-4,-5,-2,-5,-2,-2,-2,0
14.325772,1,-3,-4,-2,-3,-3,-1,2,0
14.345822,4,0,2,1,1,-1,0,-2,0
14.345840,-2,6,4,4,1,-1,-1,-2,0
14.347354,1,-2,-3,-2,0,-1,-1,-1,0
14.347360,9,4,3,0,-2,-2,-2,-8,0
14.360946,16,6,2,1,1,2,3,10,0
14.360971,-48,-13,-8,-6,-4,-3,-8,-11,0
14.361759,17,-3,-4,-6,-2,-1,-5,-4,0
14.361778,24,-2,-3,-3,1,0,0,8,0
14.383720,-16,-3,-2,-6,-2,0,-1,-1,0
14.383743,15,15,9,4,1,4,2,4,0
14.383885,10,3,1,-3,-2,-4,-3,-9,0
14.383902,-6,0,0,-1,1,-1,1,3,0
14.405770,-8,-5,-4,0,1,-1,0,0,0
14.405790,0,-9,-9,-4,-3,-4,-1,1,0
14.407432,-16,-11,-4,0,0,-4,-2,-10,0
14.407441,10,7,5,3,0,-1,-2,1,0
14.420990,-11,6,4,2,-1,-1,0,0,0
14.421011,24,9,8,3,3,2,3,11,0
14.423860,-14,-3,-2,-1,1,1,1,-10,0
14.423880,5,-7,-7,-4,-2,-1,-1,7,0
14.443281,-9,-9,-7,-4,-4,-3,-4,-9,0
14.443320,4,-10,-7,-6,-3,-2,-5,-3,0
14.444057,1,14,8,2,2,5,5,10,0
14.444068,11,6,4,2,1,2,1,7,0
14.466227,-17,-3,-4,-2,-3,-3,-8,-17,0
14.466244,29,4,1,-2,0,0,4,4,0
14.468814,-73,-16,-8,-4,-3,-5,-6,-11,0
14.468824,17,-9,-6,-5,-1,-1,-1,2,0
14.480670,-1,1,-1,1,-2,-1,0,-5,0
14.480686,-8,2,6,3,3,-1,-1,-3,0
14.481318,17,11,3,6,1,2,1,7,0
14.482112,-7,1,0,1,-2,0,1,2,0
14.503400,-21,-10,-8,-3,-1,1,-2,-7,0
14.503433,-4,-6,-5,-5,-3,-2,-1,1,0
14.505410,16,-5,-5,-5,-5,-3,-3,1,0
14.505419,-15,3,-2,-4,-5,-2,-3,-7,0
14.525831,21,6,7,1,2,1,3,6,0
14.525849,-10,0,2,1,1,1,1,-5,0
14.526530,6,-4,-1,-2,0,-2,-3,4,0
14.526590,4,-2,-3,2,0,-1,-2,-1,0
14.540381,-8,-6,-5,-5,-3,-2,1,3,0
14.540406,5,-3,-6,-5,-7,-3,-3,-4,0
14.547572,-1,4,8,6,0,1,0,3,0
14.547588,-4,1,3,1,1,-1,0,-3,0
14.563423,7,3,1,-2,0,0,0,5,0
14.563447,-8,-10,-9,-3,-1,-2,-2,-1,0
14.564641,5,5,2,-8,-2,2,2,3,0
14.564647,-10,3,-5,-1,-3,-1,-1,-5,0
14.585635,14,-2,0,-2,-3,-3,-4,4,0
14.585646,0,-4,0,0,-1,-2,-1,0,0
14.586322,0,4,6,4,0,-1,-1,-2,0
14.586332,1,-2,-1,5,3,1,3,1,0
14.600383,-8,-7,-7,-4,-2,-3,-1,0,0
14.600390,-3,3,-3,-2,-2,-1,-3,0,0
14.607780,3,-3,-7,-6,-6,-3,-3,-4,0
14.607802,-4,2,7,4,-2,0,-2,-3,0
14.623722,3,1,0,2,1,0,2,0,0
14.625805,5,-3,-3,-3,-1,-1,-1,0,0
14.625818,-18,-12,-9,-4,-1,-1,-2,-5,0
14.625823,2,2,0,-2,0,-1,-2,1,0
14.647391,3,8,4,4,2,0,1,-2,0
14.647401,5,8,6,3,1,2,4,5,0
14.647404,11,-6,-4,-2,-1,-3,-5,-8,0
14.647407,-23,-10,-8,-9,-5,-3,-1,-3,0
14.662356,0,-2,-2,-4,-4,-2,1,2,0
14.662368,11,1,4,0,1,0,-4,-9,0
14.667733,17,6,0,3,1,0,0,8,0
14.667756,-1,-3,3,3,2,-1,-2,2,0
14.683521,-7,0,-2,-2,-2,-2,-1,-3,0
14.683552,-20,-3,0,0,-2,-3,-3,-2,0
14.685460,9,3,1,-3,3,0,1,1,0
14.685467,3,-3,0,-4,-5,-3,-1,0,0
14.705819,-7,2,2,0,0,-1,-4,-11,0
14.705842,-5,-4,-3,3,0,0,0,-2,0
14.707425,3,-4,-2,-2,-3,-2,0,0,0
14.707436,-12,0,-2,-5,0,-1,0,-5,0
14.720726,13,-2,0,5,1,1,0,2,0
14.720748,6,-2,-3,-5,-1,-2,-2,-1,0
14.727587,-21,-6,2,2,0,-1,-1,-8,0
14.727636,7,1,-3,-4,-4,0,-4,-4,0
14.743225,16,-8,-1,-3,-1,0,2,7,0
14.743241,-12,1,-2,-2,-1,-2,-4,2,0
14.744075,16,4,-2,-1,-3,-2,1,4,0
14.744083,-7,-1,-1,1,0,-2,0,0,0
14.765995,4,-1,-1,-2,-3,-1,-3,-5,0
14.766020,-3,-5,-6,-2,-2,-2,2,5,0
14.767342,-6,-1,0,0,1,1,1,1,0
14.767349,4,0,1,2,1,1,0,-7,0
14.780474,0,5,4,2,0,0,1,6,0
14.781480,-24,-9,1,2,2,1,-3,-25,0
14.789938,-5,-4,-4,2,-2,-2,-3,5,0
14.789946,8,-2,-4,-1,0,0,-1,5,0
14.806077,2,0,-1,-3,-4,-2,0,1,0
14.806092,-34,-3,-4,-5,-4,-3,0,-8,0
14.806095,15,1,-1,-2,0,0,2,-1,0
14.806099,-4,-2,0,-1,2,0,1,-1,0
14.825933,9,4,1,0,1,0,0,3,0
14.825951,20,6,-1,0,-4,-2,2,12,0
14.826582,-27,-5,0,-1,-1,-3,-2,-13,0
14.826603,25,-3,-1,-1,-2,-3,-3,-3,0
14.840395,-8,-9,-8,-7,-4,-1,-2,0,0
14.840425,15,-3,-2,-3,-3,-5,-1,4,0
14.847891,-6,7,3,1,0,0,4,7,0
14.847916,16,9,3,4,2,-1,1,1,0
14.863639,22,0,0,4,3,-1,-2,-1,0
14.863657,-4,-5,1,0,-1,0,-2,1,0
14.865285,-1,-7,-3,-3,-2,0,-3,-1,0
14.865291,-17,0,-2,-6,-5,-2,-1,4,0
14.885727,-9,9,-1,1,1,0,1,-2,0
14.885746,-4,0,1,-1,2,1,-4,-10,0
14.886553,-4,-8,-8,-6,-2,-3,-1,4,0
14.886568,5,-2,-2,0,-3,-1,-2,0,0
14.900139,-14,-4,-4,-1,-2,-1,-2,-7,0
14.900155,16,4,1,2,1,1,1,0,0
14.907635,-18,4,9,5,2,1,4,3,0
14.907653,-46,-3,2,-2,0,-1,-3,-14,0
14.923578,0,-6,-4,-3,-2,-4,-2,0,0
14.923622,2,0,-3,-3,0,0,-1,-4,0
14.925432,3,1,-6,-3,-2,-1,-4,-7,0
14.925443,15,-9,-7,-5,-3,-2,-5,-8,0
14.948168,-13,-4,-3,-4,-1,-1,1,6,0
14.948177,-5,-4,1,-1,0,-1,-5,-9,0
14.948180,17,13,1,0,-1,-1,1,8,0
14.948183,-12,1,3,8,-1,0,0,4,0
14.968285,-1,6,8,6,3,1,-2,-1,0
14.968301,8,0,-5,-4,-2,0,4,9,0
14.969736,-2,-6,-3,-5,-3,-3,-2,-5,0
14.969745,-4,-5,-4,-4,-1,-1,-4,-6,0
14.983579,-6,0,4,5,0,-1,0,-3,0
14.983611,-5,0,3,0,1,-2,-1,0,0
14.985525,10,-9,-5,-4,-1,-1,-1,-8,0
14.985537,-19,12,8,5,0,1,3,12,0
15.005857,3,-3,-3,-3,-1,-1,-2,1,0
15.005876,3,1,0,-1,-2,-1,-1,2,0
15.007694,-11,-9,-2,-6,-3,-2,-5,6,0
15.007704,22,-6,-3,-4,-2,0,-3,-13,0
15.020203,-35,-13,-11,-5,0,2,-1,-5,0
15.022362,14,9,6,2,-3,-3,-1,4,0
15.027661,8,-4,0,2,1,-2,-1,-6,0
15.027749,7,1,-5,-1,-2,-1,0,5,0
15.044001,-5,1,7,-3,-2,-4,-2,0,0
15.044034,-3,2,0,0,-2,-1,0,-1,0
15.045184,8,6,1,2,0,-1,-3,0,0
15.045191,-7,-10,-6,-4,1,-3,-3,-1,0
15.065685,13,-4,-7,-2,0,-1,1,0,0
15.065703,-13,-12,-8,0,1,0,-2,-7,0
15.066596,2,1,8,4,0,0,0,-5,0
15.066602,-6,10,1,3,0,-2,0,3,0
15.089516,5,-1,0,-4,-2,1,-3,1,0
15.089525,2,-2,-1,-3,-3,-2,0,-3,0
15.089528,2,2,-5,-1,0,0,3,4,0
15.089531,-34,-19,-10,-9,-2,-4,-7,-14,0
15.104953,8,1,-2,-3,-1,-1,-1,2,0
15.104968,-3,5,5,4,2,1,2,-9,0
15.104971,-2,0,3,1,-1,2,0,4,0
15.104975,9,6,2,-1,-3,-1,2,4,0
15.134392,6,4,0,-1,-4,-3,-1,1,0
15.134416,-8,3,-4,-1,-2,-1,0,6,0
15.137602,-6,-7,-2,-1,-1,-2,1,-1,0
15.137620,20,0,0,0,0,0,2,5,0
15.148557,-16,-7,-2,-2,-3,-2,-4,1,0
15.148574,5,-4,0,-2,1,0,-2,1,0
15.150497,-3,2,-2,-3,1,-1,0,0,0
15.150508,16,0,-3,-2,0,-1,-1,1,0
15.163432,-4,5,4,-1,1,-2,-3,-20,0
15.165210,-2,2,5,5,0,2,2,11,0
15.165219,-3,0,-2,0,-1,-1,-2,0,0
15.165222,-6,-8,-4,-1,-1,-3,-2,-5,0
15.185939,7,-4,-7,-5,-3,-3,-2,-4,0
15.185958,-19,8,1,-2,-2,-3,-2,-5,0
15.186505,6,1,-1,-1,-1,-1,-5,-4,0
15.186538,6,2,-1,2,-1,2,3,10,0
15.216437,-3,-4,-4,-1,0,-2,-2,-5,0
15.216452,8,-11,-4,-3,-1,-1,-1,-1,0
15.217065,0,3,1,-1,0,-1,0,4,0
15.217083,-4,5,3,-1,-2,0,0,2,0
15.223602,10,9,4,3,-2,1,2,9,0
15.223629,-9,-3,-2,-1,-2,-1,0,-5,0
15.224765,-11,-7,-6,-3,-3,-2,-2,-4,0
15.224773,1,-4,0,-1,1,-1,0,2,0
15.245895,-5,1,3,1,0,1,0,0,0
15.245911,4,-1,-3,-4,-3,-3,-6,-4,0
15.246447,-7,-3,-3,-2,-3,-2,-1,-5,0
15.246457,5,5,6,6,3,1,2,-2,0
15.268425,-1,-3,-3,-1,0,0,1,4,0
15.268450,-9,-7,-6,-2,-1,-3,-1,3,0
15.269559,-9,-4,-4,-6,-3,-1,-5,-2,0
15.269565,4,10,6,0,0,1,2,-7,0
15.283695,3,1,0,1,-1,0,0,1,0
15.283727,6,-1,0,-2,-1,0,1,-4,0
15.285408,4,-2,-1,-1,0,-1,1,7,0
15.285415,2,-9,-6,-1,-2,-2,-2,3,0
15.305865,-8,-4,-4,-3,-2,-2,-3,-6,0
15.305883,-3,-1,-3,-2,-4,-3,-4,-9,0
15.307418,1,8,5,3,1,-1,3,1,0
15.307425,-8,1,0,2,2,1,-11,23,0
15.328293,4,-7,-4,1,-1,-1,-3,-6,0
15.328317,13,3,-3,-2,0,0,3,11,0
15.330562,1,4,1,-1,0,0,-3,-11,0
15.330579,-4,-3,-3,-5,-3,-3,1,-4,0
15.343234,-8,1,1,0,-1,-1,0,-1,0
15.343250,3,-4,0,-2,-1,-3,0,1,0
15.343973,6,-2,-1,2,0,-1,-1,-9,0
15.343995,-10,-4,-4,-4,-2,-1,3,3,0
15.365791,13,2,1,-2,-1,-3,-1,3,0
15.365818,-32,2,5,1,-1,-1,3,-7,0
15.366843,26,-6,-6,-1,-2,-2,-2,3,0
15.366849,-2,-1,-3,-3,-3,-1,0,-7,0
15.388358,2,0,2,2,1,0,8,-15,0
15.388378,29,5,3,5,2,2,0,10,0
15.389071,-39,3,-1,-1,2,0,1,8,0
15.389106,21,-10,-5,-3,-1,-2,-5,-7,0
15.403368,-9,-3,-4,-2,-3,-2,-4,-15,0
15.403386,8,1,-2,-3,-1,0,2,4,0
15.405253,-15,-5,-2,-1,-2,1,8,-3,0
15.405260,2,3,1,0,-1,-1,5,1,0
15.425929,-12,2,1,-2,-2,-2,3,-14,0
15.425946,6,-2,-3,-2,-2,-2,0,-18,0
15.428357,-3,-3,-1,0,0,0,-1,3,0
15.428365,-4,-2,-2,-1,0,-1,2,26,0
15.448235,2,0,-1,1,-1,0,-3,6,0
15.448256,-9,4,1,0,-3,-5,-5,-34,0
15.448917,4,-6,0,1,0,-1,-8,3,0
15.448955,-11,5,-1,0,-2,-1,-2,-23,0
15.463304,-49,-7,-2,0,2,0,-4,8,0
15.463320,1,-5,-1,0,1,1,2,21,0
15.464936,7,2,-3,-2,-2,-1,0,-3,0
15.464942,3,-2,1,1,0,1,0,-4,0
15.486144,8,2,-1,-1,-2,2,1,4,0
15.486170,7,3,0,-1,-2,1,2,7,0
15.488930,-28,-4,-3,-3,-2,-3,-3,-18,0
15.488939,24,-1,0,-2,-1,0,-3,-6,0
15.509550,12,5,4,0,2,0,-1,4,0
15.509559,-1,-2,-3,-1,0,1,-3,3,0
15.509562,10,-2,-2,-2,-2,-2,-2,6,0
15.509582,-10,5,-2,-1,-2,-2,-1,-2,0
15.523768,3,-1,-1,-3,-2,-1,-3,3,0
15.523848,7,2,2,2,3,0,-3,4,0
15.525723,-1,-4,-4,-3,-2,-4,-5,-3,0
15.525804,-11,0,0,2,1,-2,-2,-14,0
15.546041,11,-2,0,-1,-2,0,5,9,0
15.546058,-14,-2,-1,-1,0,-1,-7,24,0
15.547782,3,-2,-2,0,-1,-2,-2,-8,0
15.547789,1,-1,1,1,-1,0,-2,0,0
15.568239,23,9,2,2,1,-1,-3,-2,0
15.568263,-42,-7,-4,-4,-2,0,13,7,0
15.570013,9,3,1,-1,0,1,2,17,0
15.570038,-8,-6,-1,-2,-1,0,0,3,0
15.583779,2,-2,0,1,-2,-1,-9,8,0
15.583811,7,-3,-3,-4,-3,-3,-5,-22,0
15.585003,-12,3,2,1,0,-1,-2,-13,0
15.585015,11,-17,-8,-4,-1,-2,-2,2,0
15.605837,6,6,-1,-2,-1,-2,-2,-3,0
15.605861,1,7,1,0,2,-1,-4,2,0
15.606650,34,7,4,2,1,3,3,6,0
15.606677,-18,-2,-1,-1,-2,-5,-6,-15,0
15.628441,-6,-12,-7,-3,-2,-3,0,-10,0
15.628468,17,1,1,-1,-2,0,-1,2,0
15.630868,-5,4,1,1,-1,0,3,-1,0
15.630877,0,2,1,0,-1,0,3,-1,0
15.643732,-12,-6,-4,1,-1,-1,-2,-6,0
15.643767,-9,-2,-2,-10,-3,-3,-3,4,0
15.645900,8,-1,1,3,2,-2,-5,-1,0
15.645908,-11,2,2,10,4,2,1,2,0
15.665714,1,0,-3,-21,-8,-2,-9,11,0
15.665726,10,-4,-2,1,-2,-2,-1,-3,0
15.666357,5,0,1,-1,-1,1,-16,14,0
15.666367,3,1,1,-2,0,-2,-2,7,0
15.688465,-2,-3,-3,1,-3,-3,8,-2,0
15.688488,-4,-3,-1,-1,0,0,2,31,0
15.690973,24,2,0,-1,0,-2,6,-6,0
15.690986,-29,-5,-5,-4,-2,1,13,15,0
15.703563,6,-1,-3,0,0,0,1,-3,0
15.703590,-3,-2,0,2,0,1,-5,-16,0
15.705439,-10,-1,-2,2,-1,0,3,-6,0
15.705459,17,10,5,-4,-2,-3,-4,5,0
15.725760,-9,-3,3,3,3,-1,-1,0,0
15.725777,-15,-1,-1,2,0,0,-3,-7,0
15.726934,-3,-8,-6,-5,-4,-1,-3,-4,0
15.726943,-1,5,-1,-3,0,-2,-2,-9,0
15.748724,4,-1,-2,2,2,1,-3,0,0
15.748746,1,-3,-1,-4,-5,-1,-2,-15,0
15.749006,17,3,2,3,0,1,3,-2,0
15.749025,-22,-2,0,-1,-1,0,-3,0,0
15.763424,-21,-3,-1,-1,-3,-5,-1,-32,0
15.765472,3,0,0,6,3,-1,0,-4,0
15.765480,0,-1,-2,-9,-7,-3,0,-1,0
15.765483,13,0,-1,-2,-1,-2,9,-9,0
15.786055,-2,3,0,6,3,1,1,15,0
15.786081,-4,-5,-4,-4,-5,-4,-1,-9,0
15.788849,-4,-2,-4,-2,-3,-4,-2,1,0
15.788860,-12,-4,-4,-2,-1,0,-3,-14,0
15.808382,-4,0,1,3,0,-1,-2,-1,0
15.808400,9,2,3,2,3,2,-5,-12,0
15.809265,-9,2,4,7,5,0,-11,11,0
15.809281,4,-3,-3,-6,-4,-2,-8,-2,0
15.822691,-4,-6,-4,-7,-2,-1,-3,6,0
15.822711,22,0,-3,-3,0,-2,-3,5,0
15.831178,-15,6,3,2,0,0,4,-6,0
15.831202,7,-3,0,5,-3,-1,-5,3,0
15.845904,-2,-4,-5,-1,6,0,-3,-13,0
15.845920,-5,2,0,2,-14,-4,-1,-18,0
15.848167,4,-6,-3,-14,-6,-3,0,-5,0
15.848174,-25,-2,3,13,10,2,0,-2,0
15.869678,-9,-9,-2,-12,-11,2,3,3,0
15.869686,8,2,-1,-1,3,0,1,3,0
15.869689,-1,19,6,7,6,3,5,3,0
15.869692,11,4,1,-5,-5,-3,-6,0,0
15.883228,6,-1,-2,11,5,-1,-3,9,0
15.883236,-26,-12,-8,-8,-1,-1,-1,-6,0
15.891222,-1,-15,-12,-10,-7,-5,0,-3,0
15.893330,14,-1,-5,-6,-4,-1,2,-19,0
15.905900,5,6,6,5,1,1,0,-1,0
15.905921,0,2,5,1,0,-1,1,2,0
15.907875,-8,-3,0,4,2,-2,0,-2,0
15.907884,-7,-3,-6,-7,-2,-2,-4,-1,0
15.930149,7,1,-1,-2,-2,0,0,-2,0
15.930162,7,8,2,-1,1,4,0,4,0
15.930169,-5,-13,-4,4,1,2,2,9,0
15.930175,-7,-5,0,0,-1,-1,-1,9,0
15.942898,3,12,7,10,6,2,-1,-6,0
15.942930,37,6,-6,-12,-14,-4,-1,6,0
15.951709,-38,0,4,1,4,-1,0,-7,0
15.951726,3,-4,3,2,-3,-1,-1,10,0
15.965790,8,-9,-13,-10,-7,-5,2,11,0
15.965808,-6,-12,1,9,8,0,3,5,0
15.966620,-21,7,-1,1,-3,0,-5,-11,0
15.966642,2,8,3,-5,-4,0,-3,14,0
15.988501,-9,1,3,5,2,-1,-4,-9,0
15.988525,5,-7,-7,-2,1,1,-1,5,0
15.991052,5,-11,-7,-7,-4,-2,0,3,0
15.991074,-4,0,2,1,3,-1,-4,-9,0
16.002730,2,6,2,-1,-1,1,2,8,0
16.004709,-8,-3,-5,-1,-1,-2,-3,-1,0
16.011238,1,-1,0,-6,-5,-1,-4,-3,0
16.011274,1,2,1,3,2,-1,1,-4,0
16.025782,8,3,1,2,-2,-1,1,2,0
16.025799,-14,-1,1,-1,-1,0,0,-2,0
16.026511,5,-3,-3,-3,-3,0,-1,1,0
16.026575,29,-3,-3,-5,-6,-2,0,1,0
16.048187,-25,-10,-5,-8,-3,-2,-2,-8,0
16.048203,-8,2,3,2,0,-2,-2,-5,0
16.048962,11,-2,1,3,1,0,0,3,0
16.048967,11,1,-2,3,4,0,0,1,0
16.062771,13,2,1,-5,-7,1,0,4,0
16.062787,-8,1,0,3,3,-1,-1,-4,0
16.072194,6,3,2,1,-1,0,0,1,0
16.072201,9,-3,0,-1,-2,1,2,3,0
16.087916,-13,-2,-5,-1,2,-4,0,2,0
16.087927,8,-4,-1,-4,-1,0,0,-5,0
16.087930,-21,1,0,0,1,-1,2,-2,0
16.087933,-7,-1,-3,-3,-2,0,-1,-5,0
16.108326,-1,2,0,-1,-1,-1,-3,0,0
16.108344,1,0,2,1,2,2,-1,6,0
16.109341,6,-3,-1,-6,-3,-2,-1,-1,0
16.109347,-2,-1,-1,1,-1,-1,1,4,0
16.122678,-7,-5,-1,-1,-2,-1,-2,-3,0
16.122712,-5,-1,-2,-2,-2,-3,-3,-3,0
16.131227,5,-1,-2,3,-1,0,-3,0,0
16.131250,16,0,-3,-4,-3,-2,-4,0,0
16.145910,-34,-6,-2,-4,-3,-2,-4,-4,0
16.145928,-8,3,2,1,2,-1,3,2,0
16.147264,1,1,2,11,8,0,-3,-4,0
16.147270,23,0,-1,-14,-9,-4,-8,-5,0
16.168556,-25,3,1,3,3,0,2,-4,0
16.168579,-22,-15,-7,-9,-3,-4,-2,-9,0
16.169017,4,-5,-6,-4,-3,-3,-4,-2,0
16.169078,13,9,4,8,6,-1,0,8,0
16.191496,17,6,3,3,3,1,2,3,0
16.191515,-12,-3,-2,0,-4,-1,-2,3,0
16.193386,7,-5,-4,-5,-4,-1,-1,-2,0
16.193394,-20,0,-3,-2,0,-1,0,0,0
16.206000,-14,-2,3,-1,-1,1,0,-2,0
16.206021,3,7,4,5,3,1,3,2,0
16.208177,6,-3,-1,0,-2,-1,-1,-3,0
16.208185,-20,-7,-4,-3,-4,-1,1,-3,0
16.228226,14,0,-2,-3,-3,-2,-1,2,0
16.228240,7,2,0,1,1,1,1,-2,0
16.228950,-6,1,-3,-2,-1,0,2,3,0
16.228989,-9,-9,-4,-3,-1,-1,0,-2,0
16.252203,21,2,-3,-5,-1,-4,-1,2,0
16.252246,0,1,1,2,-1,-1,-1,-4,0
16.255222,-7,-1,-1,-2,-2,0,1,2,0
16.255233,-19,-5,-2,1,1,0,0,-12,0
16.265973,15,-3,-3,-2,-1,0,-3,-1,0
16.265992,1,2,-1,-2,-1,-2,-2,-10,0
16.267522,-14,1,-1,-1,-1,-2,-1,-2,0
16.267528,25,-3,0,0,-1,0,2,-10,0
16.290388,-18,1,0,0,-2,2,8,8,0
16.290408,4,0,0,3,1,-1,-1,1,0
16.290412,-4,-4,-1,-10,-1,-2,-3,-7,0
16.290416,2,-1,-2,-3,-1,-3,0,3,0
16.311959,6,1,0,1,-1,-1,-3,-5,0
16.311994,0,-1,-1,-1,0,-1,-4,2,0
16.314713,6,-1,1,1,-2,0,1,-1,0
16.314721,-15,2,4,1,-1,1,-3,3,0
16.325922,4,0,-2,1,-1,0,-1,-2,0
16.325940,2,1,-5,-5,-3,-2,-2,5,0
16.327891,-7,-2,-3,-2,-2,-2,-5,-8,0
16.327899,-19,-4,0,1,-1,-3,3,-37,0
16.348576,3,1,2,0,1,-1,-4,-9,0
16.348601,4,1,0,-1,-1,0,2,5,0
16.350873,17,0,-1,-1,-2,0,-1,8,0
16.350881,20,-1,-5,-2,-3,-1,-3,3,0
16.371555,-43,-11,-3,-1,-1,-3,-3,-6,0
16.371574,5,-3,-3,-3,-2,0,0,-4,0
16.372320,6,2,-1,-4,0,0,4,-1,0
16.372341,6,0,-1,0,0,-2,-10,-7,0
16.386270,23,1,-2,-2,-1,-1,1,6,0
16.386298,-6,0,3,0,0,0,-2,1,0
16.386627,-4,-1,1,4,0,0,0,1,0
16.386638,-5,2,2,1,1,1,1,12,0
16.408331,5,-1,-1,-4,-1,-2,-1,2,0
16.409359,-12,-7,-3,-6,-2,0,5,1,0
16.409366,2,-2,1,0,0,0,-2,-13,0
16.409370,-31,3,2,1,0,2,2,9,0
16.432258,8,-10,-6,-3,-4,-4,-6,-25,0
16.432274,-7,-4,-2,-3,-3,-1,-8,3,0
16.432353,-9,3,4,1,2,0,-1,15,0
16.432369,10,0,-3,-3,-1,-1,1,9,0
16.445818,-10,-1,0,0,0,0,-2,5,0
16.445841,0,0,-1,-2,-3,-2,-2,-14,0
16.446561,5,-1,-4,-5,-2,-2,0,-4,0
16.446576,11,4,3,2,0,0,1,-3,0
16.468409,-13,-1,-2,-1,-3,-3,0,-4,0
16.468435,9,-3,-2,1,0,-1,0,1,0
16.471291,6,0,0,1,-3,0,1,1,0
16.471303,4,-4,-7,-3,-1,-4,-1,0,0
16.493245,-4,-5,-2,0,2,-2,1,3,0
16.493255,-6,3,3,2,3,1,1,5,0
16.493258,1,19,0,-2,-2,-5,-6,-2,0
16.493261,-9,-17,1,-2,0,2,3,5,0
16.505803,2,-9,-4,-4,-4,-3,1,10,0
16.505857,-6,8,2,4,1,2,3,2,0
16.508006,-3,-4,0,0,0,1,1,8,0
16.508016,13,9,0,1,-1,-1,-2,2,0
16.528274,13,0,-3,0,-1,1,-3,-1,0
16.528291,0,-6,-4,-4,-2,-1,2,11,0
16.528961,11,1,0,-2,-3,-3,14,-22,0
16.529019,-9,0,1,-1,1,2,-9,57,0
16.551953,8,1,3,3,1,1,-2,5,0
16.554072,7,-2,-3,-2,-3,-2,-3,-9,0
16.554091,-11,-2,-2,0,-1,1,1,-12,0
16.554096,-9,-3,2,0,-1,0,5,-17,0
16.565750,12,2,-3,-4,0,-2,-2,4,0
16.565769,-12,-5,-1,0,-1,0,1,17,0
16.566808,-3,-3,2,0,2,0,-4,6,0
16.566821,3,1,-1,-2,-4,-1,-3,-1,0
16.588412,19,4,1,2,1,2,1,15,0
16.588438,-10,-3,-6,-7,-6,-3,-6,-29,0
16.589210,-44,-11,-3,1,-2,-1,-6,1,0
16.589242,14,5,6,1,-1,-1,-6,-3,0
16.612333,12,16,7,1,-1,1,-1,-21,0
16.612357,-8,-16,-7,-3,-2,0,-3,5,0
16.614515,-5,-7,-5,-3,-1,-3,-15,-4,0
16.614522,-12,-6,-6,-5,-3,-4,13,-40,0
16.625830,-14,-4,-3,-4,-2,-2,0,3,0
16.625848,6,7,6,3,3,0,1,4,0
16.627789,-2,-13,-3,-2,0,-3,-4,0,0
16.627801,-5,-5,-5,-7,-1,-2,-1,-13,0
16.649133,-1,4,6,3,2,3,2,-5,0
16.649139,12,7,-1,-4,-4,-3,11,-14,0
16.649142,21,1,0,0,0,2,11,21,0
16.649145,7,4,2,3,0,0,-7,-6,0
16.671600,-8,-4,-3,0,0,-1,-1,-5,0
16.671619,12,-1,0,-1,-2,-4,-3,-5,0
16.672905,-24,-6,-2,0,-1,-2,-6,-5,0
16.672921,-16,-5,-7,-4,-2,0,-3,-1,0
16.685933,13,14,3,0,-1,-1,-1,7,0
16.685958,22,9,2,0,1,0,0,10,0
16.688541,-11,-23,-5,-4,-1,-1,-2,-10,0
16.688549,1,-5,-5,-2,-3,-2,-4,0,0
16.708391,-3,-3,-2,-3,-3,-1,0,-9,0
16.708410,-20,-8,-2,0,0,0,-7,-7,0
16.710658,15,21,5,2,2,1,6,15,0
16.710667,10,11,4,1,1,-2,-1,9,0
16.732028,-5,-7,-4,-4,-2,-1,-3,-6,0
16.732060,-6,2,2,-2,-2,-3,-7,-19,0
16.732478,7,1,-1,-2,0,1,-10,-17,0
16.732498,12,5,-4,-1,-2,-3,0,-2,0
16.745819,-22,-16,0,4,0,1,4,17,0
16.745837,2,0,1,-1,1,0,-2,11,0
16.746524,12,6,-1,-3,-5,-3,-3,8,0
16.746540,-43,-5,-3,-2,-2,0,-3,-8,0
16.768409,30,0,-6,-6,-3,-2,-5,3,0
16.770144,2,-5,-5,-1,-3,-1,-1,0,0
16.770156,0,8,6,4,1,0,1,0,0
16.770159,11,2,1,2,2,0,3,13,0
16.791794,-7,-8,-6,-7,-6,-4,-3,-6,0
16.791830,-12,-9,-6,-2,-1,-3,-3,0,0
16.792273,14,15,6,5,3,2,6,14,0
16.792288,-8,-6,1,1,-1,1,-15,11,0
16.807362,-15,-7,0,1,0,0,-4,-10,0
16.807372,1,3,0,-3,-2,-1,-1,7,0
16.813742,-12,-3,-4,-3,-2,-1,0,0,0
16.813774,60,13,3,3,1,0,10,24,0
16.828268,-92,-7,-4,-3,0,0,0,-21,0
16.828285,38,-10,-4,-2,-2,0,-5,6,0
16.829086,-5,-4,-6,-5,-3,0,-1,-4,0
16.829098,-1,-4,2,-1,1,1,8,12,0
16.851791,16,12,1,-3,-2,-2,-4,-20,0
16.851815,-12,5,4,3,1,0,0,-4,0
16.853748,-6,-7,-1,-1,1,-1,-6,-4,0
16.853763,2,0,-6,-5,-2,-2,-12,19,0
16.865586,18,7,4,7,2,0,0,10,0
16.865619,-20,-1,-1,3,0,-1,-2,-10,0
16.873506,18,0,-3,-1,-2,0,-3,6,0
16.873542,-11,-5,-6,-4,-5,-1,-5,-33,0
16.888310,-2,-3,2,2,1,-1,-1,-3,0
16.888328,0,0,0,-2,1,-1,0,5,0
16.889140,0,2,0,-2,-1,-1,0,-5,0
16.889170,-18,-7,-2,-2,0,0,4,-11,0
16.912014,13,-6,-5,-5,-4,-1,1,9,0
16.912046,-5,6,2,-1,-2,0,-1,-8,0
16.913885,0,0,-1,-3,-2,-3,-2,-13,0
16.913892,1,-2,3,0,0,-2,-1,-2,0
16.925185,-22,-1,-1,3,0,-1,0,9,0
16.925203,6,-3,-5,2,0,-1,0,3,0
16.934230,-29,-11,-6,-7,-3,-1,0,-5,0
16.934242,2,-2,-2,-2,0,0,0,-8,0
16.949231,18,-3,0,-1,-1,-1,1,9,0
16.949247,-16,4,3,1,1,0,0,0,0
16.949254,3,3,-2,2,-2,-2,-3,-6,0
16.949261,-14,-9,-9,-5,-2,-2,1,-5,0
16.971586,7,2,0,0,0,-1,-1,1,0
16.971615,3,1,4,3,2,1,2,5,0
16.974117,1,2,2,0,0,1,0,-5,0
16.974128,-12,-1,0,-2,-2,-1,-2,-14,0
16.985525,15,-1,-5,-1,-3,-1,-4,6,0
16.985557,-18,-13,-7,-5,-2,-1,3,0,0
16.993346,15,0,1,1,-1,-3,-2,-2,0
16.993364,-2,8,3,2,1,-2,2,-3,0
17.008401,1,2,4,0,1,-1,0,1,0
17.008418,5,2,-1,-5,-2,-2,-2,-3,0
17.009763,10,-5,-5,-1,-2,-1,1,10,0
17.009769,-12,-8,-3,-2,-2,-2,-3,-5,0
17.031461,9,2,-1,-3,0,0,-1,-5,0
17.031478,7,4,2,1,1,0,-1,11,0
17.032414,-2,-7,-2,-2,0,0,0,-4,0
17.032481,-26,-3,-2,2,-2,0,-3,-9,0
17.045393,12,-1,-4,-3,-5,0,1,0,0
17.045413,-23,-7,-5,-3,-3,-2,-3,-10,0
17.054139,2,14,11,5,3,1,2,5,0
17.056767,8,0,3,3,0,0,0,3,0
17.068284,-2,-1,-2,2,-1,-2,-3,-4,0
17.068308,11,-2,-5,-1,-1,-2,-2,-2,0
17.070399,-20,-12,-10,-4,-5,-3,-3,-6,0
17.070419,9,0,1,1,-1,1,4,7,0
17.092156,-6,0,2,-1,-3,-2,-2,-2,0
17.092199,13,3,-1,0,-1,-3,-1,3,0
17.092522,-2,0,1,-2,1,0,0,0,0
17.092540,0,1,-1,-1,-2,-1,2,1,0
17.114319,-2,-1,-2,-1,1,1,-6,16,0
17.114335,-20,-5,-4,-2,-4,-4,-3,-45,0
17.116091,4,-2,-1,-2,-2,-1,4,-1,0
17.116098,-6,-3,-3,-2,-2,-2,-2,-2,0
17.128378,26,1,-1,0,-3,-3,0,-1,0
17.128396,-35,0,2,1,-2,-1,0,3,0
17.130798,9,1,-2,2,-1,-1,2,8,0
17.130805,2,-1,-2,-3,-3,-3,-3,-11,0
17.154188,-9,1,1,-2,0,-2,4,-11,0
17.154203,15,1,-1,6,1,1,-1,9,0
17.154207,5,-1,-3,-8,-6,-2,0,-7,0
17.154210,2,2,3,2,3,0,-2,8,0
17.174057,17,8,3,0,2,-1,0,-6,0
17.174163,-18,-6,-1,-2,0,-1,-3,-5,0
17.175797,4,-3,-3,1,1,-1,-4,8,0
17.175804,-6,-5,-4,4,0,-1,-2,-3,0
17.188458,2,-4,-4,-15,-6,-1,-1,-2,0
17.188483,14,0,-3,-2,-3,0,1,8,0
17.189913,-9,1,3,3,1,-2,-1,-8,0
17.189929,6,3,3,1,2,2,1,2,0
17.211969,-17,-4,0,3,1,0,-2,-7,0
17.211993,10,1,0,-2,-3,0,-2,9,0
17.213723,5,-6,-4,-5,-4,-1,-2,-3,0
17.213732,-14,-3,-1,-4,-3,0,0,-4,0
17.234303,3,-5,-2,0,-1,-1,-1,3,0
17.234321,14,2,1,-2,-1,-2,-4,-12,0
17.234630,2,3,0,1,0,-1,0,7,0
17.234652,10,4,2,-1,-1,-2,0,-6,0
17.248241,-38,-9,-1,1,-2,-2,-5,-11,0
17.248265,2,-1,-2,0,1,1,1,-2,0
17.249076,-3,-1,-1,-1,-2,0,1,0,0
17.249140,2,-3,-4,-8,-6,-3,-4,-3,0
17.271597,-4,1,1,3,0,-1,0,0,0
17.271614,3,4,4,9,4,0,0,3,0
17.273382,-4,-1,-3,-6,1,-1,-3,-3,0
17.273400,-6,-1,1,2,6,-1,3,3,0
17.293875,4,-5,-7,-17,-12,-4,-3,-2,0
17.293886,1,-2,-2,1,-1,-1,0,3,0
17.294606,-2,-2,-2,-1,-2,-2,-2,-3,0
17.294616,0,-2,-3,0,-1,-1,-4,1,0
17.309507,0,3,3,5,2,2,-1,0,0
17.309515,-1,-3,-3,-4,-3,-1,-1,4,0
17.309518,-6,-3,-3,-2,-2,-1,-3,-2,0
17.309521,4,4,4,-1,0,0,-1,0,0
17.331671,2,2,0,3,3,1,2,1,0
17.332716,-4,-2,-1,-6,-2,0,2,2,0
17.332724,-2,-3,-3,2,-1,0,-3,-3,0
17.332727,3,-7,-7,-6,-6,-1,0,3,0
17.354496,7,-1,-3,1,-1,-1,0,-2,0
17.354527,-7,4,9,5,5,3,3,5,0
17.356316,1,3,-2,-3,-3,-3,1,3,0
17.356333,4,-2,-2,0,-1,-1,1,4,0
17.367709,1,2,-1,5,0,-2,-3,1,0
17.367734,12,-3,-6,-13,-6,-1,-3,-7,0
17.377217,4,-1,0,1,1,-2,-1,-4,0
17.377224,-11,0,1,0,-1,-1,-4,-3,0
17.391875,3,-6,-5,-1,0,-1,-2,1,0
17.391910,1,1,1,2,-1,-2,2,10,0
17.393081,-2,0,3,0,0,1,-1,2,0
17.393101,3,-2,-6,-3,-2,-2,-2,-1,0
17.414086,-7,-3,-4,1,-1,-3,1,-4,0
17.414110,6,-3,-2,-6,-3,-2,-1,3,0
17.415516,-10,1,1,0,-2,0,-2,-9,0
17.415528,2,4,5,8,5,0,0,1,0
17.427726,3,3,7,0,-1,2,0,2,0
17.427749,-18,-3,-3,1,0,-1,-2,-1,0
17.436433,5,-3,-8,-8,-6,-3,-1,1,0
17.436454,-4,-8,-3,-2,-3,-1,-3,-9,0
17.451724,-6,-3,-3,-1,0,-1,1,0,0
17.451731,21,9,7,4,1,0,1,4,0
17.452900,-21,-1,5,3,3,-3,-3,-11,0
17.452915,19,-1,-7,-2,-3,-3,0,6,0
17.474121,-3,-9,-4,-5,-3,-3,-3,-5,0
17.474140,1,-8,-6,-2,-3,-2,-2,-2,0
17.475646,-3,-5,-1,3,-2,1,0,3,0
17.475831,-5,12,0,-8,-4,-3,-3,-5,0
17.487704,14,14,13,7,2,2,3,0,0
17.487735,-3,-3,0,1,-1,0,-2,1,0
17.497877,-10,-8,0,-1,0,-2,-4,-6,0
17.497883,-8,-4,1,0,2,2,0,4,0
17.512122,7,4,-5,1,1,1,3,9,0
17.512154,-17,-5,-3,-6,-6,-3,-1,-14,0
17.514126,3,-4,-7,0,-2,-2,-1,1,0
17.514132,-2,-8,-6,2,-1,-2,-1,0,0
17.533950,-5,5,4,-10,0,-1,-3,-1,0
17.533967,5,1,-1,-2,0,-2,-2,-1,0
17.535603,17,-3,-7,-5,-3,-1,-2,-3,0
17.535666,-19,-2,-5,0,1,1,-1,-4,0
17.547583,5,3,8,5,3,1,1,3,0
17.547595,-6,2,3,3,2,0,-2,0,0
17.558755,26,-9,-6,0,0,0,1,-2,0
17.558766,-7,-10,1,-7,-3,-2,-5,-14,0
17.571573,0,2,-7,-1,-3,-3,-2,-2,0
17.571601,11,11,2,0,0,2,1,1,0
17.573067,6,8,5,4,1,3,2,13,0
17.573089,-13,-7,-2,-2,-3,-2,-3,-5,0
17.594627,-5,-15,-2,4,-4,-1,-4,-16,0
17.594635,-2,-6,-8,-4,-2,-3,-1,-1,0
17.595471,-4,8,9,-3,2,0,1,2,0
17.595483,2,7,1,3,2,2,2,-2,0
17.607780,-5,3,-4,-3,1,-2,0,4,0
17.607797,-4,-6,-5,-1,-2,-2,-2,-3,0
17.618126,-12,-8,-3,-2,-2,-3,-3,-6,0
17.618133,4,0,5,-1,-2,-3,-2,3,0
17.631885,0,-2,-5,-2,0,-2,0,-1,0
17.631901,-8,-5,-1,-1,-5,0,2,-3,0
17.633450,-7,2,1,-4,-1,0,0,-1,0
17.633470,10,5,4,4,-2,0,1,2,0
17.654275,7,-2,-3,-3,-2,0,-2,2,0
17.654297,-36,-6,-2,0,0,-2,-3,-7,0
17.656537,-5,2,1,2,1,-2,-2,-3,0
17.656548,5,1,-3,-2,0,1,2,5,0
17.669858,-3,-6,-5,0,-3,-2,-5,-4,0
17.669889,9,-1,0,-3,0,-3,-2,3,0
17.676665,4,5,0,1,-3,-1,-1,-2,0
17.676682,-3,2,0,0,0,1,1,-2,0
17.691918,-9,-9,-4,-5,-3,-2,0,0,0
17.691957,8,2,-3,-3,1,0,-1,2,0
17.693063,3,10,11,7,4,2,2,2,0
17.693089,-8,-5,0,-1,-1,-1,-3,-6,0
17.713988,-4,-3,-2,1,0,-2,-2,-3,0
17.714019,1,0,-4,-3,-2,1,-2,-1,0
17.715841,-4,-7,-7,-3,-2,-1,-1,8,0
17.715851,12,0,-1,0,-2,-2,-1,-1,0
17.727643,-21,3,0,-1,1,-1,-3,-6,0
17.727664,-3,-8,-3,-3,-1,-1,-1,3,0
17.737439,3,-1,-1,-3,-2,-1,-1,2,0
17.737451,9,4,2,0,1,0,0,5,0
17.751524,-2,-1,-1,-2,-3,0,1,-2,0
17.751541,8,4,3,-1,-1,-1,-2,-1,0
17.753193,-9,-2,-3,0,1,-1,-1,-6,0
17.753213,-3,-7,-8,-4,-1,-2,-2,-5,0
17.774438,16,5,6,4,2,1,0,4,0
17.774481,-13,0,2,5,2,0,0,0,0
17.775765,1,-1,3,0,-2,0,-1,0,0
17.775837,-6,-4,-2,-4,-1,-1,-3,-3,0
17.787858,-2,-10,-9,-4,-3,-2,-2,-2,0
17.788835,3,3,-2,-7,-3,-3,-4,-6,0
17.797808,-5,-4,-5,-3,-1,-1,-1,-2,0
17.797815,-6,2,0,-3,-2,-2,-1,-3,0
17.811811,6,6,5,3,-1,2,-1,7,0
17.811849,1,-2,1,-1,-1,-1,-2,-6,0
17.813634,9,5,-3,-2,-1,0,-2,6,0
17.813641,0,-1,2,0,-2,0,0,2,0
17.834033,-7,-13,-6,-4,-2,0,-3,-2,0
17.834056,9,5,0,0,1,0,0,0,0
17.835663,0,-4,-4,-2,-2,-2,-1,-7,0
17.835687,-6,-3,-3,-4,-1,-2,-3,-5,0
17.847567,1,7,5,0,1,-1,2,9,0
17.847582,-1,-3,-2,-1,-3,-1,-1,-6,0
17.858207,-5,-2,-1,-2,-2,0,-1,-4,0
17.858218,1,-1,-3,-2,-2,-1,-2,6,0
17.871097,5,-5,-5,-4,-2,-2,0,-3,0
17.871123,22,-2,0,-1,2,2,-2,-4,0
17.877750,2,9,5,1,-1,-1,-1,0,0
17.877766,4,2,6,6,2,1,3,3,0
17.893892,-6,-2,0,1,0,-1,0,2,0
17.893904,-17,-4,-4,-3,-1,-1,-2,6,0
17.895454,6,-5,-9,-5,-2,-2,-2,8,0
17.895477,-1,-6,-2,-3,-2,-2,-3,-5,0
17.909367,4,10,3,1,0,-1,-1,-3,0
17.909375,-8,1,1,2,-2,-1,1,-1,0
17.918462,-20,-13,-3,0,-1,0,-6,-15,0
17.918470,-10,-3,-2,1,-1,-2,-3,0,0
17.931325,-9,1,-3,-1,-1,-2,-6,-11,0
17.931356,27,9,4,3,-1,0,17,-3,0
17.938107,-1,7,7,3,2,0,-14,46,0
17.938153,1,-7,-3,-3,-3,-1,-5,4,0
17.956736,1,-7,-5,-4,-1,-1,-2,-12,0
17.956750,-19,-5,-3,-2,-3,-3,3,-9,0
17.956754,1,-1,-2,-1,-2,0,6,-16,0
17.956757,-2,1,-3,-2,-3,-3,1,-1,0
17.967682,-1,2,1,0,-1,-2,-8,11,0
17.967705,-5,-1,0,2,2,1,-3,2,0
17.977507,-3,-1,-2,0,1,-3,3,-9,0
17.977513,5,1,0,1,1,-1,-3,6,0
17.991180,-1,-2,0,-3,-2,-1,1,-11,0
17.991222,-20,-3,-2,-2,-2,-2,-7,-14,0
17.997598,-6,-6,-4,-5,-4,-2,3,-8,0
17.997623,19,6,0,-2,-2,-1,4,1,0
18.014414,-31,-4,-2,-2,-1,-1,-1,-3,0
18.014446,6,-1,-1,1,-2,-2,4,-16,0
18.015515,11,-1,-4,-1,1,1,-6,60,0
18.015521,-7,2,0,4,0,-1,-1,5,0
18.027878,17,-5,-3,-4,-4,-4,1,1,0
18.027895,-17,6,5,2,1,-1,-4,-4,0
18.038348,8,2,3,3,-1,-2,-7,-42,0
18.038416,9,6,-2,-1,-1,-1,-6,-10,0
18.050922,5,-5,1,-3,-2,-2,-7,-5,0
18.050929,-17,-10,-8,-5,-4,1,-5,12,0
18.057871,-3,-3,-7,-5,-3,-3,-1,-14,0
18.057891,-3,-2,-2,-4,-2,-1,0,0,0
18.074227,23,19,5,2,0,2,5,4,0
18.074244,27,4,3,3,2,-1,-2,10,0
18.075979,-26,-4,0,0,-1,-1,5,-6,0
18.075986,3,2,2,0,-2,0,-2,-8,0
18.097641,-11,-9,-6,-2,-3,-3,0,4,0
18.097650,18,1,-2,-2,-2,1,-2,24,0
18.097997,-11,-4,-2,-3,0,-1,-4,-21,0
18.098011,-7,-5,-1,1,0,0,1,-7,0
18.110984,-13,0,2,3,3,1,-1,2,0
18.111009,-7,0,1,-2,0,-1,-3,10,0
18.117709,14,7,1,-1,0,0,2,-5,0
18.120600,7,-3,-4,-2,-2,0,-6,7,0
18.134264,-44,-8,-7,-1,-3,-2,-4,-7,0
18.134287,21,1,-6,-3,-5,-1,-1,-6,0
18.135542,-8,-13,3,-1,-3,-2,0,0,0
18.135558,-5,6,7,7,5,7,7,49,0
18.156948,-39,-5,1,2,1,1,0,1,0
18.156980,27,-3,-8,-6,-3,-4,-4,-2,0
18.158536,-15,2,-3,-1,-1,-2,1,-5,0
18.158543,-1,-5,-2,-3,-1,-1,0,-10,0
18.171151,5,5,1,-2,-1,1,0,-5,0
18.171180,-14,2,5,3,2,0,1,5,0
18.177636,7,1,2,2,-3,-1,1,-1,0
18.177661,-9,0,-1,-2,-2,-3,-2,-15,0
18.193914,8,-6,-4,-5,-5,-3,-4,-6,0
18.193930,-4,-5,-1,-2,-2,-2,-4,-14,0
18.195430,1,-1,1,-1,-2,-1,2,-7,0
18.195446,6,3,1,1,-3,-1,0,-2,0
18.216616,14,-1,-1,1,-3,-3,0,-4,0
18.216640,-6,-5,-2,2,-4,-5,-1,-1,0
18.218265,6,5,-1,-1,-2,-2,0,-1,0
18.218378,-7,-8,-4,-5,-4,-5,-3,-11,0
18.230923,19,0,3,0,-3,0,1,1,0
18.230940,-2,-3,0,-1,0,0,-1,-2,0
18.237847,-3,12,2,1,0,-1,-2,2,0
18.237873,8,3,5,3,1,0,-2,-10,0
18.254164,3,-4,-1,-3,0,-1,2,-13,0
18.254197,-27,-6,-5,-5,-1,-1,-4,-9,0
18.256745,10,-6,-4,-2,0,0,1,2,0
18.256761,-5,-2,-2,-2,-1,-2,0,-5,0
18.276491,6,4,-1,3,1,-1,-2,3,0
18.276508,2,-1,-1,0,-2,1,3,9,0
18.278153,-5,-4,-3,-3,-1,-1,-2,-8,0
18.278173,-7,2,1,-1,-1,0,0,-4,0
18.290413,1,3,3,-1,-1,0,0,4,0
18.290451,0,2,1,2,1,1,-2,3,0
18.299256,-1,-6,-6,0,-1,-1,-3,4,0
18.299263,-13,-11,-10,-7,-4,-2,-5,-6,0
18.314151,6,7,6,2,5,3,1,9,0
18.314169,1,6,3,2,-1,2,-1,4,0
18.315450,7,-2,-2,-3,-3,0,2,10,0
18.315462,1,3,-1,-2,1,1,-2,1,0
18.336419,-24,-8,-5,-6,-3,-1,-5,-6,0
18.336438,7,-7,-3,-2,0,0,-5,-5,0
18.338078,0,2,-1,-2,2,0,-2,1,0
18.338097,4,-6,-5,-3,-1,-3,1,3,0
18.354025,7,4,2,3,0,-2,0,6,0
18.354041,-12,4,5,1,1,1,-1,-2,0
18.359140,4,-2,1,0,2,-1,0,-1,0
18.359161,0,1,-1,0,0,-1,-2,-1,0
18.374261,-7,-9,-10,-8,-4,-1,-2,-3,0
18.374285,-6,1,0,1,0,-1,-2,-2,0
18.376206,2,4,7,4,1,0,2,-1,0
18.376216,-3,1,4,4,-1,-1,0,0,0
18.398771,0,-12,-7,-2,-2,0,-3,-1,0
18.398780,1,1,-5,-4,-3,-3,0,3,0
18.398784,-17,2,3,1,2,0,1,-7,0
18.398787,-10,-2,-1,0,-1,-1,1,0,0
18.410404,11,-1,2,-1,-1,0,-1,6,0
18.410427,5,-1,-2,0,-1,-1,-1,-5,0
18.421715,-1,-1,-2,-2,-2,-1,-3,0,0
18.421725,8,-6,-5,-4,0,-2,1,-2,0
18.433917,-26,-5,-1,-2,0,-1,-1,-2,0
18.433933,5,8,4,-2,0,-1,-1,-1,0
18.435531,9,1,2,0,1,-2,-2,5,0
18.435547,-2,-2,-3,-1,-3,0,-3,-1,0
18.456860,11,-3,-4,-4,-3,-2,-3,2,0
18.456891,-8,-7,-4,0,-3,-1,-1,-4,0
18.459425,2,-2,-1,2,-2,1,-1,-1,0
18.459435,-2,3,4,0,-2,2,1,-2,0
18.470997,0,4,5,3,0,1,0,-2,0
18.471041,3,-10,-10,-6,-5,-1,-5,-1,0
18.481646,14,-11,-12,-8,-6,-4,-2,-2,0
18.481654,-3,6,12,4,1,0,0,0,0
18.494060,3,1,0,2,3,1,3,2,0
18.494069,1,12,6,0,0,-3,0,2,0
18.495438,8,8,1,0,1,-1,1,1,0
18.495453,-17,-12,-6,-5,-2,-3,-4,-13,0
18.517006,-18,-2,1,7,-1,-1,0,-8,0
18.517037,23,7,5,-3,2,1,1,6,0
18.519491,-57,-7,-4,-6,-2,0,-2,-1,0
18.519498,18,0,-2,-2,2,0,1,11,0
18.530807,-11,-3,-3,-3,0,0,-3,-6,0
18.530832,-4,-8,-4,2,-1,-2,-3,-3,0
18.540073,8,3,2,3,-4,-1,-3,-4,0
18.540133,-3,-2,-4,-2,-4,-2,-1,2,0
18.555358,12,-4,-7,-4,-4,-3,-1,2,0
18.555368,-8,0,4,4,2,-2,0,-3,0
18.555638,5,1,0,-3,0,0,1,-1,0
18.555654,-2,-3,-1,-2,-2,-2,-3,-6,0
18.576797,10,4,-1,-2,-1,-2,1,5,0
18.576823,3,-4,-1,0,0,1,-2,-3,0
18.579247,-1,-5,1,2,1,0,-1,4,0
18.579253,4,2,0,0,0,0,-2,-2,0
18.590699,-7,0,0,-1,0,-2,-1,-2,0
18.590723,-9,-8,-4,-3,-3,-1,0,5,0
18.600202,24,6,5,1,0,-1,2,10,0
18.600218,-64,1,-1,1,-2,2,0,-8,0
18.614140,1,2,-2,-4,-2,-2,-3,0,0
18.614156,-3,-6,-6,-3,-1,1,-1,-4,0
18.615431,9,-7,-4,0,-1,-3,-2,-3,0
18.615448,16,3,2,-2,-1,-2,1,3,0
18.636515,4,-1,0,-1,-2,0,-1,-5,0
18.636527,-7,-3,-3,-1,-1,-1,-1,-5,0
18.638285,-3,-1,-2,0,-2,0,-4,-4,0
18.638303,4,3,4,2,3,0,0,1,0
18.650181,7,0,0,0,-1,0,0,-2,0
18.650200,2,-1,-2,-3,-3,-3,3,7,0
18.659995,-13,-5,-4,-2,-1,-2,-3,-9,0
18.660003,-4,-1,-8,-4,-2,-4,-4,-10,0
18.674177,4,5,5,4,4,3,2,9,0
18.674196,19,1,4,3,0,0,-1,0,0
18.675842,-6,-3,-2,0,0,1,-1,-5,0
18.675849,8,-6,-6,-3,-1,-1,-5,-6,0
18.696525,13,0,-3,-4,-4,-3,-4,-1,0
18.696563,6,-1,1,-2,-1,-1,-1,1,0
18.697891,-70,-6,-4,-6,-4,-4,8,-50,0
18.697912,11,-1,1,3,0,3,1,37,0
18.711410,-2,3,2,-3,-6,-2,-1,2,0
18.711416,3,1,-1,1,8,1,-3,-4,0
18.721056,23,1,1,-2,0,-2,2,3,0
18.721068,-1,3,1,-2,0,-2,1,-9,0
18.734065,-7,-3,-1,-2,-1,0,0,-17,0
18.735736,2,0,0,0,-5,-1,-1,15,0
18.735753,7,1,-1,2,0,1,-1,14,0
18.735760,6,-3,0,0,-1,0,-2,-11,0
18.756771,0,-2,-1,0,2,0,-5,5,0
18.756789,-9,-5,-3,-5,-5,-2,-5,-28,0
18.758990,6,-3,-2,-1,1,0,-3,6,0
18.759001,15,2,0,1,-2,-1,0,1,0
18.770473,-60,-6,-3,0,0,-1,-2,-25,0
18.770515,10,0,-3,0,0,-1,-1,-5,0
18.779066,-12,-1,0,0,-4,-1,-6,2,0
18.779082,15,2,-1,-1,-1,1,1,6,0
18.793918,2,-4,-2,-1,-1,0,1,4,0
18.793934,-9,1,1,1,-1,-1,1,5,0
18.795593,22,0,1,-2,-1,0,-4,4,0
18.795614,-18,-1,0,-1,-2,-1,-1,-2,0
18.824173,18,0,-1,-3,1,-2,2,9,0
18.824203,-28,-5,-5,-3,-2,-2,-1,6,0
18.825605,12,-1,0,0,0,-1,1,11,0
18.825630,-5,-1,1,0,2,-4,-2,-11,0
18.830313,14,-1,-2,-3,-3,-2,1,2,0
18.830330,-12,-1,0,0,0,0,1,-4,0
18.839914,25,4,1,1,1,1,5,19,0
18.839921,-51,-12,-7,-5,-3,0,2,-33,0
18.854973,6,-3,-1,-2,-1,-1,9,21,0
18.854985,-2,-3,-2,-3,-2,-2,-2,-32,0
18.855676,-9,1,0,-2,-1,-2,2,-4,0
18.855697,19,4,1,0,-2,-2,-1,-3,0
18.877181,5,-2,2,-1,-1,-4,-20,-5,0
18.877212,-5,-2,-6,-1,-1,-5,-23,-51,0
18.879514,-18,-4,0,0,0,0,-1,-6,0
18.879522,3,-2,-2,2,1,0,2,20,0
18.890404,11,3,0,0,0,0,-4,-6,0
18.890436,-7,0,-1,-4,-4,1,10,-42,0
18.900424,-6,0,3,1,1,3,22,50,0
18.900433,1,-2,-3,-5,-5,-6,-4,-10,0
18.915315,21,10,8,10,10,8,-31,84,0
18.915322,-19,-6,-2,-3,1,-4,-5,-35,0
18.920292,19,0,0,-3,-1,-2,-9,-54,0
18.920315,0,-1,0,-1,-4,1,2,-16,0
18.936755,-4,-2,-2,-4,-2,-3,10,-20,0
18.936781,18,4,2,3,1,0,-1,32,0
18.939043,33,4,1,3,0,-1,-11,6,0
18.939050,-36,-1,0,-1,-2,-3,-8,-21,0
18.950581,10,-7,-6,-2,-6,-5,2,-50,0
18.950615,20,1,1,-1,-1,0,8,12,0
18.960671,-12,-4,-4,-4,-2,-2,2,-47,0
18.960681,3,3,0,-1,-1,-2,1,-7,0
18.973362,-12,0,-2,-2,-1,-2,3,-3,0
18.973386,0,-3,2,-1,1,0,0,38,0
18.980308,-17,0,-2,-1,-1,-2,-3,35,0
18.980332,4,-3,-3,-2,1,0,-5,15,0
18.996436,-10,1,0,0,-2,-1,1,-9,0
18.996454,13,2,0,-1,-1,-1,-5,6,0
19.002907,-16,-4,-1,-2,-1,-1,3,7,0
19.002944,3,0,1,0,-1,0,-1,2,0
19.010101,0,-2,-3,-1,-2,1,10,9,0
19.010118,-10,-1,-1,-1,-1,2,5,15,0
19.019447,-7,-4,-4,-5,-5,-2,5,-1,0
19.019453,0,-5,-7,-7,-5,-2,0,10,0
19.033411,11,5,7,3,2,0,6,-3,0
19.033438,12,4,8,6,4,2,2,20,0
19.040575,-25,-4,-1,0,0,-2,-16,8,0
19.040627,13,-14,-8,-2,-1,-1,1,10,0
19.056669,10,11,-4,-5,-7,-2,-3,-2,0
19.056703,-28,10,6,3,1,1,3,8,0
19.058055,25,4,2,0,0,-1,-4,-8,0
19.058075,-39,-5,-2,-1,0,1,0,-7,0
19.079154,-1,-15,-6,-4,-1,-1,8,55,0
19.079998,-5,-4,-6,-5,-1,-4,-6,-5,0
19.080455,12,3,1,2,-3,-2,0,5,0
19.080468,11,0,1,-2,0,0,6,7,0
19.093323,-15,-1,-2,-2,-1,0,3,-25,0
19.093345,2,0,-2,0,-2,-1,-3,-6,0
19.100341,-1,-2,-2,-5,0,-1,-6,-10,0
19.100365,13,3,1,2,1,-1,3,22,0
19.116678,-9,-2,-1,0,-1,-3,-1,-23,0
19.116702,-2,-6,-5,-3,-5,-2,-1,4,0
19.119408,-9,-4,-6,-4,-3,-4,-7,-32,0
19.119416,4,3,1,0,-1,-2,-4,-3,0
19.139032,2,0,2,0,2,1,3,-4,0
19.139056,-9,-2,0,-1,0,1,0,9,0
19.140799,5,0,1,3,1,0,-1,-2,0
19.140817,11,2,0,-1,-3,-3,-2,-30,0
19.153299,-8,-4,-2,-1,-1,3,1,9,0
19.153325,26,-2,-7,-6,-5,-5,-7,-6,0
19.160248,-27,-6,-5,-6,-3,-3,-1,-2,0
19.160273,17,2,5,2,2,-1,-2,-3,0
19.176616,3,8,3,2,2,-2,-4,-15,0
19.176632,-3,-2,-1,3,1,3,-2,31,0
19.178911,-2,0,-2,1,-1,-2,-1,-12,0
19.178919,-2,-4,-2,-3,-3,-1,1,10,0
19.199022,-9,-1,-4,-2,-2,-1,-1,-9,0
19.199045,2,3,0,-1,-2,-2,0,-7,0
19.200600,-6,-2,-1,-1,-1,0,-2,2,0
19.200615,-9,0,1,1,0,1,2,15,0
19.213344,5,-4,1,-2,-2,0,-8,1,0
19.213351,-7,-5,-1,-3,-3,-3,6,-6,0
19.223226,-17,2,2,1,2,1,-17,34,0
19.223237,1,2,1,0,1,-2,-3,-10,0
19.236675,4,-2,-1,0,-1,-1,1,5,0
19.236710,-30,-4,-3,2,-1,-2,2,6,0
19.238684,18,-4,-3,-3,-3,0,7,-19,0
19.238692,2,2,1,1,-2,-2,11,25,0
19.259887,-14,-2,-3,-5,-4,-3,-8,-5,0
19.259900,-9,-1,-1,-3,-1,-3,-4,-14,0
19.260524,21,0,-1,0,0,-1,3,-3,0
19.260540,-16,-1,1,2,0,1,-5,-8,0
19.274027,13,-1,-1,-1,0,-1,3,-9,0
19.274038,-13,-4,-1,-3,-3,-1,1,-2,0
19.282161,-2,-4,-4,-6,-5,-1,-1,-3,0
19.282168,9,-1,-2,2,0,1,-3,-17,0
19.296596,-6,3,5,3,0,-3,-2,-21,0
19.296625,11,5,5,5,1,4,-2,-20,0
19.298676,-3,-1,0,0,1,1,0,-4,0
19.298685,-11,-5,-6,-7,-4,-2,-1,-4,0
19.320274,-27,-7,-4,-4,-5,-3,4,-6,0
19.320284,17,-9,-6,-4,1,0,-6,42,0
19.320628,2,4,-1,-1,-4,-3,13,-42,0
19.320672,-4,-1,0,-2,-1,1,13,37,0
19.332753,2,0,0,-1,-1,-1,3,9,0
19.332768,3,-3,0,-1,-3,-3,0,0,0
19.342293,-12,-3,-1,-1,0,-1,-4,-6,0
19.342300,2,1,-2,-2,0,-3,-7,11,0
19.356793,1,-1,-1,-3,-1,1,-3,3,0
19.356835,10,0,-1,0,0,-1,1,-5,0
19.359107,4,-2,-1,0,1,1,-2,12,0
19.359116,7,1,0,1,0,0,-7,-14,0
19.379323,2,-1,-1,-1,0,-2,-5,-18,0
19.379342,-5,-1,-2,-2,-1,0,3,17,0
19.380946,-9,0,0,-1,-1,-1,-5,3,0
19.380953,6,0,-2,-2,-3,-3,-4,-6,0
19.392685,-18,0,1,4,2,1,1,-18,0
19.392703,-7,1,0,-1,-2,-1,-4,-14,0
19.402688,1,0,0,0,0,-2,-2,13,0
19.402694,-6,-4,-4,-4,-4,-2,-1,-9,0
19.417471,27,-4,-5,-3,-4,-5,-7,12,0
19.417501,-24,0,1,4,1,0,3,-17,0
19.418364,4,6,6,5,4,0,3,20,0
19.420039,6,3,2,1,1,-1,-8,-2,0
19.439055,0,-4,-2,-4,-2,-2,-5,-10,0
19.439074,-13,-4,-5,-3,-2,-3,-5,-6,0
19.440624,10,-2,-5,-4,-2,-4,-9,-17,0
19.440642,-17,-8,-4,-1,2,1,3,-8,0
19.452978,21,4,-4,-3,0,-1,0,14,0
19.453013,4,4,0,-3,-2,-3,-7,-3,0
19.461845,-9,-1,-2,1,-4,-1,-3,-8,0
19.461862,11,2,1,-3,-2,-2,-2,1,0
19.476506,-10,3,2,3,3,-1,3,7,0
19.476517,1,-2,-4,-6,-1,-1,-1,-10,0
19.478034,-6,-7,-5,-3,0,-2,0,0,0
19.478049,11,5,3,4,3,-2,-3,-2,0
19.499160,-1,2,7,7,6,4,-6,15,0
19.499185,0,0,-2,-2,-1,-1,2,1,0
19.501559,-10,-8,-6,-6,-7,-4,0,-10,0
19.501568,2,1,1,-1,-3,-1,0,-1,0
19.513186,-1,1,2,2,1,2,6,2,0
19.513219,-5,-2,0,0,0,1,1,-2,0
19.522616,-39,-2,2,0,3,2,-15,47,0
19.522624,-1,-3,-3,-2,-1,0,4,-2,0
19.536849,7,-3,-4,-4,-3,-3,1,7,0
19.536877,-1,2,0,-2,1,-1,1,0,0
19.539507,14,-2,-3,-1,-2,-1,5,-11,0
19.539572,0,2,2,1,0,-2,-4,-5,0
19.559041,-16,-7,-4,-3,-2,-1,-3,0,0
19.559057,22,2,1,-1,-3,0,2,0,0
19.560759,-4,7,6,5,3,2,-5,8,0
19.560765,-11,-3,0,2,0,1,-2,-8,0
19.573256,3,-4,-6,-4,-2,-4,-1,-18,0
19.573277,-20,-5,-3,-1,-1,-2,-3,34,0
19.581804,22,1,-1,-2,-1,-1,8,0,0
19.581810,11,-2,-1,-5,-1,1,10,20,0
19.596847,-8,-3,-2,-1,-4,-2,-2,-1,0
19.596873,-7,-3,-4,-5,-4,-6,-2,-45,0
19.598613,-6,-3,-2,-3,-1,-2,4,-6,0
19.598621,22,3,-1,2,0,0,-1,3,0
19.619053,-41,2,6,5,3,1,-7,-16,0
19.619073,10,3,2,2,2,1,2,6,0
19.620856,12,1,1,0,-1,-1,0,-3,0
19.620883,-8,-4,-6,-5,-3,-4,-6,-6,0
19.632523,7,-5,-7,-5,-3,-3,-9,10,0
19.632533,-3,-2,1,-2,0,0,-3,-5,0
19.642190,-6,-1,-1,-1,-1,0,-2,2,0
19.642196,5,4,1,2,0,-2,-4,3,0
19.656766,3,-1,-2,-1,-3,-3,6,-4,0
19.656804,1,-5,-1,2,-2,2,4,14,0
19.658500,1,-5,-2,-2,-2,-2,0,3,0
19.658508,-7,0,5,1,1,2,-18,32,0
19.680105,9,9,1,1,1,0,-1,-4,0
19.680112,14,1,-1,-3,-2,-4,-6,5,0
19.680410,-27,-2,0,0,-3,0,11,16,0
19.680419,-7,-2,0,0,-3,-3,-1,-14,0
19.692779,0,1,2,1,1,-1,2,0,0
19.695248,5,4,0,3,0,3,-2,17,0
19.702289,9,-3,-3,-4,-2,-4,-5,-11,0
19.702305,12,-4,-5,-5,0,1,-1,11,0
19.716739,-33,-5,-6,-4,-4,-1,-6,-23,0
19.716769,-16,-5,-1,-1,-1,-2,2,-24,0
19.718940,3,4,4,3,3,2,-1,-9,0
19.718946,9,2,-2,-1,-3,-3,-1,-6,0
19.739153,21,4,0,-1,0,0,3,2,0
19.739172,-3,-6,-3,1,1,-1,-4,-8,0
19.741178,8,-1,-4,-5,-3,-1,1,-7,0
19.741187,-12,-5,-5,-5,-5,-1,13,-9,0
19.752801,4,-4,-2,-4,-4,-2,-4,10,0
19.752826,2,4,3,1,2,-2,-4,-13,0
19.761761,16,1,5,4,3,2,1,7,0
19.761769,-19,0,-1,-1,-1,-2,-6,-20,0
19.776997,0,-2,-2,-1,-2,1,7,4,0
19.777080,5,-1,-3,-1,-1,-1,-1,-5,0
19.778120,7,-1,-2,-3,0,-1,2,-15,0
19.778134,-4,-1,0,0,2,-1,-3,-13,0
19.799173,10,-4,-1,-2,-1,1,1,4,0
19.799189,11,0,1,-1,0,0,3,-6,0
19.800473,-7,6,-1,0,-1,0,14,3,0
19.800484,-14,-8,-3,-2,-1,-1,0,-4,0
19.813051,8,-1,-3,-4,-2,-3,-4,-10,0
19.813068,-5,2,-2,-7,-5,-3,0,-5,0
19.822691,0,0,1,3,1,-1,-5,-4,0
19.822702,-1,1,2,4,0,0,-1,2,0
19.839298,1,-9,-7,-6,-3,0,4,6,0
19.839306,-9,-11,-7,-5,-4,-4,-5,1,0
19.839310,0,5,9,0,-6,-2,-7,2,0
19.839313,4,8,5,7,6,1,2,4,0
19.858965,4,0,-1,0,4,-1,-5,7,0
19.858982,0,-4,-5,-1,-2,-3,-2,-9,0
19.860474,-31,-5,-5,-2,1,0,-1,2,0
19.860491,0,-4,1,-4,-6,-2,-4,-8,0
19.872763,5,10,5,5,-2,1,2,4,0
19.872786,3,-1,0,-5,-3,-1,-6,-3,0
19.882553,7,-9,-5,-1,-3,0,-1,10,0
19.882561,-9,1,-3,-5,-2,-3,-2,-6,0
19.896392,-8,-3,1,-3,0,-1,4,7,0
19.896424,-3,1,-8,3,1,2,-1,6,0
19.903065,2,0,2,-3,-1,-3,-9,-5,0
19.903090,3,3,-3,1,6,4,5,5,0
19.919099,-1,-2,-3,-3,0,-3,-3,0,0
19.919114,-2,0,4,1,-1,0,0,-1,0
19.920811,-5,-10,-10,-8,-7,-3,-4,-4,0
19.920832,5,-7,-3,0,-4,-2,-1,4,0
19.933872,2,11,13,4,0,-1,-2,5,0
19.933880,9,12,3,2,1,1,4,21,0
19.942097,-6,-1,-2,1,0,0,-3,5,0
19.942104,-10,-5,-4,-3,-1,-2,-9,34,0
19.955937,-1,-17,-9,-4,-5,-2,-3,7,0
19.955975,13,6,4,-5,-3,-3,-2,7,0
19.962758,-16,10,6,2,3,2,0,1,0
19.962794,5,4,-1,-1,-1,-1,-3,-9,0
19.980522,-2,-5,-6,-1,-1,0,-1,-3,0
19.980533,5,-7,0,-2,-4,0,-3,-17,0
19.980537,7,1,1,2,1,-1,0,-5,0
19.980540,-7,-5,-2,0,-2,0,-1,-11,0
20.001485,3,-1,-5,-5,-5,-3,-4,-8,0
20.001503,-15,-4,-7,0,-1,-2,0,-12,0
20.002969,-3,-8,-4,-3,-3,-1,-2,-5,0
20.002993,-5,8,21,10,-2,-2,2,2,0
20.016392,8,11,-1,4,7,2,2,8,0
20.017632,-7,8,1,-1,5,2,1,14,0
20.022713,4,-9,-1,0,-3,-1,-4,2,0
20.022738,11,-10,-6,-10,-3,-2,0,-1,0
20.039073,-2,6,12,-4,-2,-3,-1,-2,0
20.039094,-3,3,7,8,2,-1,2,16,0
20.040611,-7,0,-20,-6,-1,-1,-2,5,0
20.040684,-23,-1,1,-2,-2,0,3,1,0
20.061915,-4,-11,-3,-1,-2,-1,-1,16,0
20.061931,-9,-13,-7,-5,-3,-1,-3,0,0
20.062958,14,-1,1,1,-1,-3,-1,-5,0
20.063001,0,7,-2,-1,-2,-3,0,-17,0
20.075914,-6,3,0,3,0,-1,-2,-20,0
20.075931,10,0,6,-1,0,0,0,-8,0
20.082941,6,-2,-1,0,1,-1,-1,-7,0
20.082964,4,1,-14,-7,-1,0,0,-16,0
20.099083,-5,1,5,1,-2,0,1,-15,0
20.099894,-7,-6,-4,1,-4,-1,-1,-10,0
20.100420,-3,-6,1,-3,-1,-4,-4,-16,0
20.100437,0,11,-2,-5,-2,-1,0,5,0
20.122368,-7,-4,0,1,0,0,-5,-20,0
20.122385,-3,-7,-4,-1,-2,0,0,-11,0
20.123329,4,5,7,-3,1,0,1,-7,0
20.123348,9,3,-8,-5,-1,0,-3,-2,0
20.135292,4,-5,-10,-7,-3,-2,0,6,0
20.135315,-5,-7,1,4,3,3,-2,-5,0
20.144127,10,6,4,5,-2,-1,1,5,0
20.144145,9,4,9,8,1,0,0,2,0
20.159012,6,2,-2,-4,-2,0,-4,-7,0
20.159029,-3,-3,-5,-3,-1,-3,-3,5,0
20.160456,-10,-5,-5,-3,-2,0,0,6,0
20.160475,13,-3,1,-5,-3,-2,-1,-4,0
20.181615,-4,-3,-1,-1,-3,-2,0,3,0
20.181640,-4,-4,-4,-5,-2,-1,0,4,0
20.183431,-4,2,-3,-1,0,-2,-4,-3,0
20.183443,1,7,5,7,2,0,-1,5,0
20.196277,11,-6,-3,2,0,-2,-2,1,0
20.196301,-2,5,-1,-4,-2,-2,-2,-2,0
20.203014,8,8,4,1,1,1,3,8,0
20.203037,-23,-10,-4,-3,2,1,0,-4,0
20.219530,3,-5,-8,-6,-2,1,0,10,0
20.219554,2,1,6,2,0,0,-1,1,0
20.222826,5,2,1,-2,-3,0,0,-4,0
20.222835,-2,-8,1,1,-1,-3,-1,-4,0
20.241463,-1,4,-1,6,4,1,3,4,0
20.241481,-6,-8,-3,-4,-5,-4,-3,-3,0
20.242969,-3,-2,-1,-4,-4,-2,-1,-4,0
20.242979,6,2,-3,5,6,3,3,0,0
20.255139,-8,2,5,0,0,-4,-4,-3,0
20.255164,4,-13,-3,2,1,-1,0,2,0
20.264243,-1,-3,0,-8,-6,-6,-6,-7,0
20.264250,2,26,19,-2,0,-1,2,1,0
20.278882,8,16,-5,5,7,5,4,7,0
20.278892,-41,-1,15,6,4,1,-1,-1,0
20.280400,6,-26,-18,-1,-3,-3,-2,2,0
20.280420,-9,-33,-20,-15,-13,-8,-9,-7,0
20.301700,9,9,0,-6,-4,-2,1,1,0
20.301723,23,25,4,8,7,5,3,5,0
20.304266,-7,3,11,6,3,2,1,5,0
20.304285,-16,-8,-6,0,-2,-1,-2,5,0
20.315359,-3,-19,-5,-7,-7,-3,-4,0,0
20.315376,4,0,-9,-6,-3,-2,0,1,0
20.324987,-6,15,5,7,8,3,2,-6,0
20.324997,8,-4,-1,-2,0,-1,-1,4,0
20.340305,-24,-12,-6,-5,-5,-5,-4,-5,0
20.340316,2,-1,1,-3,-4,-2,-1,-1,0
20.340816,3,10,5,4,3,0,0,7,0
20.340830,20,11,13,8,4,3,3,5,0
20.361809,4,-6,-1,0,-2,0,-3,2,0
20.361826,-14,-10,-18,-13,-7,-4,-5,-8,0
20.362943,4,-18,-8,-10,-7,-1,-2,-5,0
20.362959,0,7,1,5,0,-1,1,1,0
20.375135,32,15,11,-1,2,-2,0,-1,0
20.375155,-40,12,3,6,8,5,3,-3,0
20.386928,-2,-8,-3,-3,1,0,0,4,0
20.386949,-4,-9,-10,-4,-5,-2,-4,-4,0
20.406515,-12,-10,-5,-4,-5,-4,0,-4,0
20.406538,10,-5,-7,-2,-5,-3,-1,0,0
20.408123,-1,14,15,9,2,1,0,-12,0
20.408144,-2,-3,3,0,0,0,1,2,0
20.422836,-13,-5,-5,-1,-1,0,-2,-6,0
20.422854,6,-8,-8,-10,-6,-3,-4,-1,0
20.423285,-2,-5,-8,-5,-6,-3,-2,-3,0
20.423313,15,8,5,5,4,0,-1,0,0
20.437003,-13,-1,-1,-2,0,0,-2,-9,0
20.437013,20,-3,-3,-5,-4,-4,-1,-5,0
20.445471,-16,-3,-2,-4,-3,-3,-5,-6,0
20.445480,2,4,8,4,2,1,4,1,0
20.458970,-4,3,3,5,1,2,2,5,0
20.458991,7,-7,-9,-11,-6,-4,-2,2,0
20.460458,-9,-18,-21,-11,-7,-5,-3,-7,0
20.460473,-10,17,17,11,6,1,-3,-3,0
20.481511,1,7,12,4,4,2,2,5,0
20.481534,16,-11,-5,-6,-2,-2,-3,4,0
20.483308,-4,5,4,11,6,5,1,1,0
20.483315,-14,-14,-7,-10,-6,-3,-4,-8,0
20.495333,3,0,-1,2,-1,-3,-1,5,0
20.495357,5,7,-4,-5,-4,-2,1,-1,0
20.505899,23,10,4,0,-2,-1,2,5,0
20.505910,-24,-16,-8,-5,-3,-1,3,-7,0
20.519268,0,2,-1,-1,-2,-2,-3,-11,0
20.519289,-14,-9,-4,-2,0,-2,-1,-2,0
20.521506,5,8,1,-4,-3,-2,0,3,0
20.521514,26,23,13,10,6,3,4,10,0
20.542053,-25,-15,-4,-2,-1,-3,-2,-3,0
20.542077,3,1,-3,-1,-3,-2,-3,0,0
20.544918,-7,-7,-5,-3,-1,-1,0,-3,0
20.544967,10,3,1,0,0,0,-2,2,0
20.555400,0,-7,-5,-4,-2,-1,-4,-10,0
20.555473,-5,1,10,6,2,-1,-1,-6,0
20.565720,8,-4,-9,-12,-2,0,0,5,0
20.565728,7,-6,-12,-2,-4,-5,-4,-11,0
20.579238,-11,19,18,14,8,3,3,4,0
20.579265,-12,4,14,11,4,2,2,5,0
20.580527,34,6,-3,-2,0,-3,-4,-4,0
20.580544,-28,-33,-21,-15,-9,-5,-3,1,0
20.601740,5,-11,-20,-13,-9,-3,-1,5,0
20.601763,1,8,2,-2,-1,-2,0,-2,0
20.604080,-18,8,18,10,3,1,1,-10,0
20.604096,-10,-8,-8,-3,-2,-3,-4,-7,0
20.615293,5,-3,-3,0,0,-1,2,3,0
20.615319,1,-3,-8,-7,-3,-1,-1,0,0
20.625013,3,0,-6,-7,-4,-3,-1,-5,0
20.625023,2,16,11,10,4,3,5,-8,0
20.640596,-3,-6,2,-1,0,1,-9,17,0
20.640607,11,-4,-3,-3,-2,-3,-4,-6,0
20.640705,-12,-3,-1,2,-2,-1,1,0,0
20.640713,10,-8,-8,-7,-4,-2,-3,1,0
20.661620,-8,-1,-7,-5,-3,-3,1,-5,0
20.661646,-3,11,11,8,5,2,3,-2,0
20.664056,10,3,1,0,1,-2,-5,7,0
20.664065,-14,-3,4,1,0,-1,-4,0,0
20.675318,15,5,-2,0,-2,0,3,-2,0
20.675334,-21,-8,-16,-10,-7,-3,1,6,0
20.686961,15,5,8,11,8,1,2,-9,0
20.686971,-29,-12,-6,-1,0,0,-4,-8,0
20.698946,24,-1,0,0,-3,-1,2,1,0
20.698980,-6,-20,-7,-4,-4,2,-1,-5,0
20.705232,-14,10,-6,-7,-5,-3,-2,-3,0
20.705253,10,13,6,3,1,0,0,11,0
20.721594,5,15,12,6,3,1,-2,-2,0
20.721621,18,-7,-7,-4,-3,-3,-4,-4,0
20.723544,-7,-18,-6,0,0,0,0,7,0
20.723592,-7,-21,1,-2,0,-1,-1,-3,0
20.735103,-34,-8,-8,-5,-2,-3,-2,-8,0
20.735122,24,10,-5,-7,-3,-1,-2,-5,0
20.744926,-3,6,7,5,1,-2,-2,7,0
20.744933,30,10,1,1,0,-1,-2,-10,0
20.758985,-49,-4,1,-1,1,0,0,-3,0
20.759003,-8,-1,-2,-1,0,-1,-3,-6,0
20.760521,-17,-18,2,0,1,1,-3,-12,0
20.760534,7,0,-9,-6,-6,-1,-2,-2,0
20.781568,19,-2,1,0,1,0,-1,-3,0
20.781591,-3,6,2,1,-1,0,0,-1,0
20.782846,-13,-8,-6,-6,-4,-1,2,-1,0
20.782857,24,2,-1,-3,-3,-2,-2,3,0
20.795066,-9,-8,-5,-4,-1,0,-2,-15,0
20.795078,6,6,5,2,-1,1,6,10,0
20.806890,-11,-5,-13,-8,-3,-3,1,1,0
20.806905,-18,7,20,14,10,2,4,11,0
20.819174,23,3,-1,-1,-2,-1,-4,-3,0
20.819198,-4,10,6,9,5,-1,-1,-5,0
20.821444,23,12,4,-1,-3,1,0,2,0
20.821458,-77,-50,-27,-20,-9,-3,-5,-13,0
20.841985,24,3,-3,-2,0,-3,-3,-5,0
20.841992,-17,0,22,14,7,2,2,12,0
20.843077,26,17,-4,-2,-3,-2,-2,0,0
20.843102,11,10,-3,-2,-3,0,0,1,0
20.855453,8,-9,-6,-6,-5,-4,3,2,0
20.855477,-12,8,0,1,3,-1,-1,-3,0
20.864404,-6,-2,9,7,4,0,-2,5,0
20.864420,2,-3,-9,-6,-6,-3,-1,3,0
20.878607,-18,0,1,-1,-3,-1,0,4,0
20.878631,38,2,-3,-2,-4,-3,-1,4,0
20.885636,-20,3,10,5,4,1,0,0,0
20.885667,-1,2,-4,-1,-2,-2,-4,-10,0
20.901456,5,-7,-3,-4,-3,0,0,2,0
20.901472,-9,-10,-7,-4,-3,0,-4,-6,0
20.903106,0,-7,-2,-2,-3,0,0,5,0
20.903121,-16,4,-4,-5,-3,-2,-1,-6,0
20.915038,18,-5,0,0,0,1,-1,-2,0
20.915054,-21,-2,5,3,3,0,-2,-3,0
20.924981,-1,-1,0,-1,-1,0,0,4,0
20.924991,11,6,-6,-5,-1,-1,0,0,0
20.938485,-44,-10,3,1,-1,-3,-3,-10,0
20.938502,27,-5,1,-1,1,0,-3,-10,0
20.946001,-16,-8,-6,-4,-1,-1,-2,-5,0
20.946033,10,2,2,1,-1,-2,0,6,0
20.961888,-1,7,-7,-5,-4,-2,-3,-5,0
20.961905,16,18,5,2,1,-1,5,11,0
20.964500,-18,-9,2,4,2,0,-1,-18,0
20.964507,13,-2,2,-1,-2,-1,-3,12,0
20.983922,-17,-4,2,1,2,0,-4,-7,0
20.983933,-6,-6,-8,-7,-7,-2,-1,10,0
20.985443,5,0,-8,-3,-2,-1,-1,1,0
20.985462,11,6,6,4,3,0,0,5,0
20.999324,4,4,-2,-1,-1,-1,0,12,0
20.999332,-11,-6,-4,-6,-3,-2,-3,-7,0
21.005390,-10,-4,0,0,-3,0,1,2,0
21.005409,9,0,-4,-3,-2,1,5,-6,0
21.021592,-6,6,7,5,3,2,-4,41,0
21.021617,-15,-10,-5,-1,-2,0,-3,-12,0
21.023345,5,0,-6,-6,-2,-3,-1,-2,0
21.023372,4,6,0,4,0,0,1,-10,0
21.046011,5,-8,3,5,2,0,-1,-17,0
21.046024,-20,-8,4,3,0,1,2,-20,0
21.046032,26,3,-1,-4,0,-1,1,32,0
21.046099,-10,-14,-8,-7,-5,-3,-6,-13,0
21.057941,8,11,-6,-6,-5,-4,1,-8,0
21.057969,0,-6,10,8,5,0,3,5,0
21.068973,-1,8,1,0,-2,-6,3,-56,0
21.068986,17,4,1,0,-1,-1,6,19,0
21.081576,0,-5,-5,-3,-3,-3,-1,-20,0
21.081601,3,9,-6,-8,-5,-4,-2,8,0
21.084063,-5,-9,2,0,0,0,3,-1,0
21.084070,-15,-5,4,0,-2,0,-1,4,0
21.104247,-2,4,-2,0,2,0,-8,-11,0
21.105367,-12,0,-2,0,0,-2,-2,-8,0
21.105593,12,1,-1,-2,-1,-1,-6,-2,0
21.105602,-6,-2,-4,-2,-1,-3,1,3,0
21.118499,-13,-3,1,0,-1,-1,0,0,0
21.118515,12,3,1,-3,0,0,-1,6,0
21.125287,12,-5,-2,-1,0,-1,-3,1,0
21.125305,5,5,2,-1,-1,0,6,42,0
21.142450,-3,-7,-3,-1,-2,-2,4,11,0
21.142458,1,-2,-1,0,0,-1,-6,5,0
21.142991,-10,1,-2,-4,-2,-2,-2,0,0
21.143002,0,-5,-2,-2,-3,-2,0,-25,0
21.164087,4,0,1,-1,0,1,-1,-5,0
21.164103,-1,0,1,1,2,1,1,-2,0
21.167115,-2,-2,-3,0,-3,1,0,15,0
21.167122,2,-2,-3,-2,-1,-1,-7,-4,0
21.177739,-8,-8,-3,-4,-4,-2,-3,-9,0
21.177758,17,8,4,0,-1,-1,-2,7,0
21.188172,-32,-6,-3,-1,-2,-1,4,-4,0
21.188181,-2,-1,-1,0,2,0,-5,1,0
21.201579,3,0,-4,-2,0,-3,3,-2,0
21.201605,1,-3,0,-1,-1,-1,3,-4,0
21.203508,14,5,2,-3,-1,-2,0,12,0
21.203537,-30,0,1,1,1,1,-3,8,0
21.224307,5,1,-2,-1,0,-1,-1,0,0
21.224347,-6,-2,-1,0,-1,1,-1,-2,0
21.226145,4,0,-2,1,-1,-1,1,3,0
21.226151,-1,-3,-3,-3,-2,-2,-1,-14,0
21.238216,11,0,-2,-3,-2,-2,8,-59,0
21.238247,0,-1,-1,1,0,1,-5,32,0
21.247077,-12,-2,-2,-1,0,-1,0,-4,0
21.247084,16,2,-4,-1,-2,-3,-2,-19,0
21.262120,-1,3,1,2,-1,0,-10,3,0
21.262947,1,-3,-4,-1,-3,-3,5,-13,0
21.263057,-12,-2,-1,0,1,0,-3,-2,0
21.263092,0,-2,-3,-1,2,-1,-5,5,0
21.283940,-2,-2,0,0,-1,0,-6,25,0
21.283959,3,3,-2,-3,-2,-3,-5,-13,0
21.285415,3,-4,-2,0,-2,-1,2,21,0
21.285433,-8,4,2,0,-1,-1,0,-23,0
21.301087,13,2,2,-1,1,-1,0,14,0
21.301102,-10,-2,-2,-3,-2,-3,1,-26,0
21.307776,5,0,-1,-1,2,2,-4,34,0
21.307786,12,1,3,1,-1,1,0,1,0
21.321593,-3,-1,-2,-3,-5,-1,9,-44,0
21.321611,-47,-11,-3,0,-1,0,1,-3,0
21.323911,1,0,0,0,-2,-2,-3,-14,0
21.323940,2,-2,-1,-1,-2,-3,-3,5,0
21.345556,6,-1,1,0,0,0,-2,25,0
21.345565,9,-3,-3,-1,-2,-2,-5,6,0
21.345688,-5,3,2,-1,-3,0,1,-8,0
21.345773,7,-1,-2,-1,-1,-1,-1,-9,0
21.357905,-7,-3,-2,-3,0,-3,-1,-6,0
21.357925,7,-1,-2,1,1,-1,0,-1,0
21.366841,-4,-2,-3,-3,-1,-3,-3,-5,0
21.366858,8,3,0,0,2,0,0,-2,0
21.381619,-11,2,2,3,0,0,3,5,0
21.381636,5,3,4,1,1,2,-6,31,0
21.382926,-5,-5,-3,-2,-2,-4,-6,-15,0
21.382945,2,-6,-2,0,-2,-1,-9,-10,0
21.404203,7,-2,0,-4,0,-2,3,10,0
21.405823,12,6,0,1,0,0,5,17,0
21.405836,0,-7,-2,-1,-2,-3,1,-70,0
21.405839,-14,5,-1,-4,-3,-1,2,5,0
21.418026,6,0,0,0,-3,-2,8,-15,0
21.418058,-26,-13,-4,-4,-3,-4,-1,-12,0
21.426495,18,1,-3,-3,0,1,0,4,0
21.426512,-3,-3,2,1,0,-1,-1,6,0
21.441557,-6,3,0,-1,-1,0,5,-37,0
21.441565,4,3,0,0,-2,-3,1,11,0
21.442995,-15,-1,0,0,-1,0,-3,32,0
21.443010,1,-3,-2,-2,-1,-1,-1,-9,0
21.464046,-19,2,1,-2,1,0,-7,24,0
21.464073,2,-5,-1,-2,1,2,-7,7,0
21.466495,-7,-2,-2,-2,-3,-3,-9,-27,0
21.466503,1,0,1,0,-2,-1,5,14,0
21.478210,13,2,-2,-1,-1,0,-10,19,0
21.478244,-23,-4,-1,-2,-4,-3,0,-15,0
21.488508,7,2,0,1,1,1,0,28,0
21.488518,-5,-2,0,-2,-1,-1,-7,-12,0
21.501770,12,-3,-4,-1,-2,0,6,22,0
21.501794,-13,3,-1,0,-1,-2,4,-18,0
21.504752,-8,0,-2,0,-3,-2,1,-29,0
21.504762,14,-1,-3,-1,-2,0,6,20,0
21.524733,0,-3,0,-1,-1,-2,-6,1,0
21.524767,14,6,3,-1,-2,1,-3,16,0
21.530379,-9,-4,0,0,-2,0,7,13,0
21.530398,-9,1,3,1,0,-2,9,-24,0
21.537757,3,-2,-3,-2,-2,1,-2,10,0
21.537784,21,0,-2,0,0,-3,-9,-15,0
21.547292,-9,6,1,2,0,0,-3,-2,0
21.547342,14,6,0,0,0,-1,-16,19,0
21.562125,-46,-19,-3,-1,1,-1,-1,58,0
21.562149,14,0,-2,-3,0,0,-1,-14,0
21.564161,-7,-5,-6,-6,-6,-7,-14,-44,0
21.564168,-16,-3,-4,-2,-5,-4,2,-26,0
21.584452,10,6,-1,-3,-5,-4,0,-95,0
21.584476,-6,-16,-4,0,-1,4,9,39,0
21.585490,12,0,1,-1,-2,-3,-11,-54,0
21.585510,-18,-4,-2,-1,0,1,-2,-20,0
21.598690,10,2,-3,0,0,-3,-3,-29,0
