timestamp,emg1,emg2,emg3,emg4,emg5,emg6,emg7,emg8,label
2.005496,-74,-18,-7,3,-42,-29,21,13,2
2.005826,47,26,-20,-9,30,14,-15,-18,2
2.009362,-28,-12,17,6,10,13,22,36,2
2.009381,19,20,-3,-3,-34,-11,10,-58,2
2.025877,-12,13,5,1,21,18,-8,4,2
2.025892,59,51,-21,-6,-10,14,1,37,2
2.027211,-53,14,3,1,-1,26,13,-14,2
2.027215,-70,-69,-33,-14,-8,-51,-7,42,2
2.048689,-34,20,19,3,-1,-21,-15,-37,2
2.048712,108,36,46,14,11,114,15,33,2
2.051427,-74,-97,-70,-16,-13,-112,-64,-66,2
2.051430,32,62,43,1,-2,49,-4,-8,2
2.062511,-61,26,-14,-14,-4,51,4,-10,2
2.062530,-76,-74,-8,2,3,-12,35,-1,2
2.069693,111,93,-10,3,-7,7,-62,6,2
2.069720,16,-128,-30,-5,-1,3,7,6,2
2.085827,-82,-42,18,3,3,-30,-6,13,2
2.085845,-1,101,-32,-9,-16,-11,-15,-17,2
2.087198,25,-34,12,5,18,20,37,38,2
2.087212,-5,11,-2,-5,4,-16,-11,0,2
2.108291,47,53,-22,-4,6,8,-17,-30,2
2.108310,-9,-94,21,2,-7,-40,2,28,2
2.110058,-33,38,18,-2,1,11,21,-11,2
2.110064,-80,-35,-1,-1,8,-8,-13,7,2
2.123047,50,-80,-1,-2,-29,11,-2,8,2
2.123071,4,9,-28,-4,29,0,-8,2,2
2.129764,95,31,22,4,4,-7,13,15,2
2.129786,-6,100,-3,0,5,13,-2,7,2
2.146296,-6,-74,-3,1,-9,5,13,-9,2
2.146324,41,83,19,-4,7,1,10,8,2
2.147197,-36,32,8,9,2,19,2,-14,2
2.147238,-57,-6,-10,-1,-5,5,17,25,2
2.168909,-90,29,-8,-16,-5,-17,-21,-63,2
2.168948,10,42,-28,-1,-7,15,4,0,2
2.171057,66,-37,20,4,-1,10,43,10,2
2.171060,18,43,-28,0,-3,38,-5,-2,2
2.182060,95,-78,70,11,11,46,25,19,2
2.182088,-49,48,-17,-5,4,-56,-59,-14,2
2.191756,49,37,-1,-4,-3,-18,61,45,2
2.191764,-40,-16,2,3,-11,-18,-4,-22,2
2.206226,-62,22,-20,-6,20,6,20,48,2
2.206232,14,-23,-21,-14,-21,4,-21,14,2
2.207257,-43,-128,-18,1,-7,20,-33,-57,2
2.207276,14,17,10,1,2,-33,9,13,2
2.229960,33,71,-10,2,5,2,-3,2,2
2.231569,88,51,94,21,3,-3,30,-3,2
2.231572,-59,-76,-29,-14,-9,-29,-49,-15,2
2.231574,-37,-36,-9,-4,0,13,7,-8,2
2.241863,45,56,-2,-2,-12,-23,-14,-4,2
2.241881,76,21,-18,2,2,4,9,16,2
2.259260,-22,52,14,-2,-8,8,-1,-68,2
2.259267,-64,-17,0,-7,-1,-4,-6,-17,2
2.267308,-63,1,-21,0,5,21,3,14,2
2.267313,-31,-101,-24,-7,-25,0,23,-7,2
2.267316,22,26,9,2,7,11,4,31,2
2.267317,46,12,4,2,-4,-3,-7,17,2
2.288330,24,9,15,2,16,-7,-4,-6,2
2.288350,73,-43,-33,7,2,-1,7,27,2
2.289804,2,127,64,1,-1,5,-13,-13,2
2.289865,38,-60,0,-4,-10,-14,-11,-34,2
2.302229,21,-59,-17,2,-2,1,36,32,2
2.302250,-60,-29,-18,-9,-7,6,-79,-24,2
2.312564,20,-67,22,7,-5,-29,-6,38,2
2.312568,1,52,14,4,12,8,9,-3,2
2.325640,44,48,-9,-5,1,-3,7,2,2
2.327563,-81,16,-7,-3,-8,-35,1,0,2
2.327570,14,15,-25,-3,-9,95,20,4,2
2.327573,118,-21,20,5,25,-40,-16,7,2
2.348311,-114,-67,-17,-12,2,-66,-10,-32,2
2.348329,-28,20,-22,-8,-8,5,-5,-20,2
2.349921,14,4,-11,-2,2,-15,-10,23,2
2.349925,53,50,23,5,-5,14,9,11,2
2.361734,-45,-63,8,4,-12,11,-37,-16,2
2.361756,0,25,-4,-5,2,-3,25,19,2
2.372484,-21,26,1,1,3,0,10,12,2
2.372498,-55,6,-27,-7,-9,8,-11,9,2
2.385959,31,13,-4,-1,8,0,-1,6,2
2.385987,-9,-18,-2,-1,-1,14,5,-6,2
2.387278,-6,99,7,-1,-6,-10,0,-3,2
2.387283,69,-25,28,8,-1,16,38,-23,2
2.408373,14,-16,23,4,7,-23,-68,-21,2
2.408391,7,17,-16,-6,-10,11,6,-7,2
2.409652,-12,-25,-31,-5,4,-16,7,-7,2
2.409672,-49,27,-22,-10,5,-27,-2,-3,2
2.422493,-14,-79,0,-3,-11,67,21,20,2
2.422499,1,19,16,5,-2,-51,-19,6,2
2.431263,3,15,-11,-3,-6,-1,-12,4,2
2.431270,19,-58,18,5,3,75,18,9,2
2.445730,31,127,-25,-2,-12,-84,-2,-16,2
2.445749,-9,-19,18,6,7,-5,19,22,2
2.447817,-71,-97,-19,-10,-10,-24,-5,-39,2
2.447823,-1,18,29,-3,-5,-17,-19,8,2
2.469243,-8,52,7,-2,-2,40,29,3,2
2.469248,23,-90,-1,2,10,19,-9,3,2
2.469524,32,2,-16,-2,8,-7,21,22,2
2.469530,-43,-31,-17,3,-3,-18,-16,-16,2
2.484199,21,15,6,-1,0,13,-2,-4,2
2.484206,10,22,4,-2,7,7,2,2,2
2.496856,37,3,11,6,3,3,7,0,2
2.496876,6,-25,-21,-6,0,-15,-2,-9,2
2.505939,42,57,14,-3,-7,19,10,15,2
2.506278,-50,-48,-16,-1,1,0,-7,-17,2
2.508446,-14,-61,-19,-1,-9,12,-2,30,2
2.508451,75,21,17,4,7,-4,8,-5,2
2.528393,-12,47,-19,-4,7,4,-3,-3,2
2.528417,0,-64,47,-3,-18,-36,-14,-18,2
2.530822,47,91,5,4,15,6,-4,-3,2
2.530833,11,40,-38,-12,-23,-8,-9,16,2
2.541973,-60,-87,-19,3,-4,-13,-5,-14,2
2.541993,86,81,61,7,6,-2,10,8,2
2.552593,60,-4,9,2,12,25,7,-14,2
2.552598,43,36,2,-1,-3,-1,-42,47,2
2.565641,-7,8,-22,-1,17,77,-11,-15,2
2.565664,-51,31,-4,-3,-42,-77,38,-18,2
2.567155,-33,-1,1,3,6,14,3,28,2
2.567193,-13,-26,1,-3,19,35,7,-8,2
2.588249,-17,27,7,6,-7,-29,7,27,2
2.588271,-38,-2,-32,-1,19,37,-22,-24,2
2.589927,-26,-37,14,-1,-11,-14,7,-17,2
2.589932,-35,73,-25,-2,-3,-12,14,-3,2
2.602263,94,14,4,-2,-11,-12,-10,-8,2
2.602297,-6,-49,52,17,17,2,9,5,2
2.611927,15,-77,-17,-9,-15,-8,-11,-19,2
2.611931,-29,-32,-16,-1,0,25,-5,-9,2
2.625738,29,26,-13,-7,-6,-13,8,20,2
2.625756,-13,64,-18,2,9,16,-7,6,2
2.627071,22,-10,0,3,-4,-15,-9,-11,2
2.627089,-98,-13,19,2,2,4,18,-5,2
2.648577,-11,43,-9,-6,-24,-24,-11,-21,2
2.648598,-11,59,-22,-5,15,32,-4,-11,2
2.651293,12,-46,15,4,-3,19,-22,25,2
2.651304,-74,-59,-20,-8,-12,-51,-1,-69,2
2.670685,45,65,19,2,15,73,45,21,2
2.670691,-64,25,12,-1,-3,58,-6,-19,2
2.672079,55,3,-10,-1,-6,-23,-11,-9,2
2.672092,39,97,-26,2,2,15,8,11,2
2.686272,-61,-28,41,6,0,-33,-18,4,2
2.686277,51,4,1,-5,4,17,-7,-8,2
2.687204,-39,40,-9,-4,19,8,5,-8,2
2.687305,0,59,9,0,-28,-33,-3,40,2
2.708195,-5,-8,-27,-5,4,5,-6,-31,2
2.708214,11,-59,-32,0,-18,-26,-2,39,2
2.710226,-13,40,15,2,11,33,50,-16,2
2.710232,-69,-70,-15,-6,17,-14,-78,-17,2
2.732564,19,-23,41,2,-2,-16,44,7,2
2.732576,16,75,-3,3,3,4,12,20,2
2.732582,-45,-32,-42,-10,-12,-21,-13,-33,2
2.732586,72,33,93,15,6,24,21,24,2
2.747937,-97,-62,-17,-3,-4,-7,-15,-18,2
2.747943,35,-8,-21,-2,8,-1,-20,10,2
2.747945,35,12,8,2,-6,1,26,39,2
2.747946,-13,16,-21,-11,-8,9,0,-20,2
2.768200,-63,-98,-7,-1,4,-21,-25,18,2
2.768222,47,85,4,3,-3,14,38,-6,2
2.770062,-48,-54,-4,-5,2,26,-26,-6,2
2.770070,47,10,-11,-3,9,-45,12,19,2
2.790702,8,-20,9,-1,-22,74,23,6,2
2.790730,6,-8,-18,-4,25,8,-15,-14,2
2.792875,25,-41,17,5,-11,12,2,22,2
2.792881,-17,-57,-34,-12,-1,-2,3,-12,2
2.805170,-67,21,13,2,4,-11,-15,-24,2
2.805198,20,-40,8,8,-3,0,13,14,2
2.812073,11,88,32,-3,-6,-26,-10,-20,2
2.812096,20,-119,-41,-1,1,22,0,-21,2
2.828123,108,73,12,1,7,-22,1,12,2
2.828144,-49,-20,-14,-3,-12,3,-8,-12,2
2.829750,111,89,28,6,14,-30,-13,16,2
2.829770,-19,-52,-15,-2,-6,27,5,-3,2
2.850865,105,-4,-6,-2,4,-2,3,36,2
2.850893,-36,-77,-5,-6,4,-25,-6,-20,2
2.852648,-44,94,-14,-4,-12,1,-17,-20,2
2.852656,24,-27,6,5,24,28,14,9,2
2.865348,23,19,-15,-3,-10,-18,-2,-6,2
2.865370,54,-38,17,2,15,18,9,0,2
2.872175,-74,37,-15,-5,-10,5,-50,-42,2
2.872199,6,25,14,3,-5,22,15,5,2
2.888622,-6,-23,-15,0,8,-21,10,-7,2
2.888641,-9,33,39,-1,-17,24,-3,21,2
2.889794,2,-50,-1,1,4,12,15,-9,2
2.889816,83,28,19,2,-2,-5,2,-29,2
2.910765,-19,17,3,-2,-2,27,-25,-2,2
2.910784,-61,-62,-53,-11,-22,-30,2,-9,2
2.912664,-58,-105,-18,-8,7,0,16,-2,2
2.912669,-7,122,18,-2,-6,-4,-10,-2,2
2.925165,28,1,5,5,4,-5,10,-3,2
2.925183,1,-15,-13,-8,-4,-7,-15,12,2
2.931736,9,-3,-4,0,-1,23,-1,37,2
2.931758,-21,-35,-20,5,-4,-39,25,-2,2
2.948270,30,-6,42,5,-5,7,-24,-8,2
2.948283,10,91,13,1,6,4,5,-10,2
2.949554,-40,-59,1,1,4,-28,-1,-23,2
2.949566,-4,18,-7,-5,10,29,10,-10,2
2.970708,-42,-9,-19,-6,-1,2,7,6,2
2.970730,49,37,-17,1,-10,-18,-5,1,2
2.972891,-5,23,41,4,7,20,22,24,2
2.972897,-30,-74,-4,-1,-1,-4,-14,-3,2
2.985318,-6,4,-5,0,4,-16,-8,-35,2
2.986777,27,-22,-29,-5,-7,-4,3,-12,2
2.991744,42,29,-70,-14,-9,-6,0,36,2
2.991761,113,57,114,32,5,-3,-3,-15,2
3.008713,-102,12,-61,-24,-10,5,0,14,2
3.008817,63,9,-2,0,-1,-8,-3,-26,2
3.009629,36,1,4,2,-5,-13,-1,-11,2
3.009647,-5,-34,-37,-12,-11,-4,-8,5,2
3.030843,6,73,4,5,7,0,1,-1,2
3.030864,-7,-44,19,4,7,8,3,23,2
3.032721,19,27,2,0,-8,-6,-5,-27,2
3.032727,-51,19,-11,-4,7,-6,4,-7,2
3.045413,3,-52,10,2,-3,-10,-10,13,2
3.047697,-44,19,-12,-7,-3,8,4,-7,2
3.052192,54,-9,2,5,2,-7,1,19,2
3.052212,-65,30,-2,-6,-6,2,0,46,2
3.071379,-41,-61,8,2,3,-2,8,-15,2
3.071384,-104,44,10,1,-5,-8,-27,-1,2
3.071386,62,-54,-37,-5,-10,-34,-1,-5,2
3.071388,-67,-15,47,2,-22,-19,9,8,2
3.090696,-21,-14,-6,-5,32,3,-9,-11,2
3.090714,19,-5,-11,-7,-15,10,17,-1,2
3.092274,-6,-38,4,5,4,0,6,4,2
3.092342,-59,61,-34,-9,-9,5,-26,-2,2
3.105130,56,-87,1,5,-5,-14,19,4,2
3.105153,21,61,8,0,-2,-3,-15,-14,2
3.112041,-65,-58,2,-3,-3,21,3,-2,2
3.114514,79,-30,-12,-4,-1,-53,-16,-4,2
3.128463,-66,23,12,0,-8,10,-9,-22,2
3.128486,-42,-41,-22,-4,9,-13,18,7,2
3.131122,6,63,18,0,-9,-5,17,-16,2
3.131131,-20,-77,29,2,0,4,-20,2,2
3.150675,-29,1,-21,-6,7,-9,2,8,2
3.150692,-2,-101,-2,1,-2,8,-10,-1,2
3.152499,-13,69,-6,-3,-2,-14,-10,-4,2
3.152518,-39,93,-13,0,0,28,3,-12,2
3.164333,48,-13,6,-3,3,-4,14,-8,2
3.164470,-77,-1,-13,-3,5,13,-2,14,2
3.174741,-12,-19,17,2,-2,2,1,0,2
3.174747,-19,-8,-28,-8,7,4,3,-27,2
3.188397,127,40,3,1,-24,-8,-21,8,2
3.188418,-78,-30,17,3,3,6,4,-1,2
3.191114,76,89,-14,1,9,11,5,25,2
3.191118,-23,-91,-13,0,-10,-19,-5,-4,2
3.210780,35,48,34,3,11,78,-1,57,2
3.210805,49,22,8,-4,-8,-50,-16,-28,2
3.212227,45,2,9,6,-8,11,-9,19,2
3.212244,-36,-10,-23,-9,14,-6,-3,-26,2
3.224315,-9,-14,-25,-4,-14,-8,58,-9,2
3.224331,10,3,-6,-3,-3,9,-74,-3,2
3.233589,-42,-30,14,-2,1,-3,-8,-15,2
3.233593,43,33,-11,0,-19,-11,17,22,2
3.248396,-33,-34,-8,-2,30,-1,-18,-20,2
3.248424,-3,105,0,-3,-1,7,36,22,2
3.250815,-3,-7,-17,-4,-2,-2,-5,-19,2
3.250818,59,64,16,5,2,5,2,28,2
3.271110,-38,-97,6,8,-2,-17,-12,-3,2
3.271114,43,24,14,0,-1,5,5,9,2
3.272227,-6,59,-5,-2,1,-6,-3,6,2
3.272347,-9,-62,-32,-5,1,17,11,3,2
3.287041,48,47,16,4,-8,-14,-15,-22,2
3.287046,-68,-27,-11,-5,-9,-5,5,-26,2
3.294731,61,19,10,-1,11,3,6,-6,2
3.294736,16,-44,-8,-3,-2,19,-20,1,2
3.307790,43,-53,-28,-5,-4,-11,15,11,2
3.307815,73,-1,9,6,1,-9,8,8,2
3.309892,-74,9,9,2,-6,-7,12,-8,2
3.309898,94,59,3,-3,10,54,-25,19,2
3.330611,61,67,2,-1,-4,-16,-8,-25,2
3.330645,-87,52,-8,-4,-7,2,8,-11,2
3.333425,1,-76,16,5,3,0,-8,9,2
3.333429,-41,16,-11,0,3,14,6,-27,2
3.353153,10,-30,12,1,-22,-68,-6,23,2
3.353171,83,59,-3,-3,15,5,-5,16,2
3.355128,-46,-38,-21,-3,-10,-6,-5,-7,2
3.355132,-32,60,13,4,9,2,5,-2,2
3.367549,68,27,3,1,6,25,-5,25,2
3.367577,-80,-128,-24,1,-4,-4,38,-2,2
3.369243,-30,-69,-5,-6,-10,-17,-12,27,2
3.369251,1,27,23,3,-3,1,3,-36,2
3.390139,-56,53,-18,-4,6,-3,-14,2,2
3.391967,87,50,15,6,-6,54,8,3,2
3.391975,-118,-69,-10,-7,2,-11,38,6,2
3.391979,29,-60,-4,-5,-16,-27,-51,-6,2
3.412442,-21,28,-10,-4,6,0,3,-9,2
3.412456,-10,-17,-29,-1,-1,2,-6,1,2
3.413068,55,127,75,13,2,18,9,4,2
3.413075,-39,-68,2,-2,2,-7,20,19,2
3.427620,27,-39,13,3,-3,-3,0,5,2
3.427640,-100,56,-46,-12,-5,-13,-18,-6,2
3.429778,68,3,27,-1,4,10,-13,-41,2
3.429782,-62,22,-2,-2,-2,-19,0,8,2
3.450299,-16,-6,9,2,-6,43,-9,-38,2
3.450320,82,-20,11,5,-7,-50,17,21,2
3.451480,1,75,-32,-10,0,-2,-24,-9,2
3.451483,-56,-59,6,3,9,-17,-6,2,2
3.473925,38,5,-12,-2,9,31,30,3,2
3.473931,41,29,24,-1,-13,7,-13,-5,2
3.473934,-58,-57,-9,4,-1,31,-1,-7,2
3.473936,74,-8,5,0,7,-9,51,12,2
3.487908,-40,31,-22,-7,-3,-1,-77,-7,2
3.487912,-65,-70,-12,-6,0,-19,-10,-3,2
3.488222,21,71,30,1,1,16,2,6,2
3.488296,32,-3,26,5,-2,14,6,20,2
3.509983,-102,-121,-4,-5,-3,-5,9,0,2
3.510105,74,-43,-6,-8,1,12,1,-33,2
3.511125,-40,-8,-23,-1,4,4,-10,23,2
3.511129,-62,35,-20,-9,-28,-28,3,36,2
3.534897,3,36,16,2,17,24,20,12,2
3.534905,61,53,21,5,0,7,-20,6,2
3.534909,-31,-83,-43,-4,15,-6,2,-9,2
3.534912,27,-54,20,2,-5,6,-2,-5,2
3.548994,14,72,-9,-7,-13,-19,18,6,2
3.548999,-106,13,-7,-3,2,3,-8,-52,2
3.549000,29,-18,-4,-1,-7,-9,12,21,2
3.549002,53,7,-11,2,3,6,-4,-16,2
3.570085,-34,-22,-12,-3,-12,-8,-7,-12,2
3.570107,31,4,31,10,14,-7,6,10,2
3.571240,-26,39,-22,-5,-9,-8,-29,-23,2
3.571244,105,27,8,6,3,30,79,31,2
3.592550,41,43,-4,4,1,-4,-63,-16,2
3.592567,-20,-98,15,-4,15,7,22,23,2
3.595141,-20,26,-1,-2,-9,-1,-4,7,2
3.595151,36,8,-10,-5,10,17,-11,-13,2
3.610263,31,45,9,0,-19,-16,18,1,2
3.610273,16,-20,-24,-5,3,-3,-2,11,2
3.610275,62,-12,5,3,1,13,-8,-39,2
3.610278,-108,-8,-13,-6,-2,-18,-2,6,2
3.630021,-43,-25,19,5,3,1,-18,4,2
3.630043,30,-77,11,-1,0,23,2,-12,2
3.631050,67,-4,0,0,0,-17,25,27,2
3.631068,5,24,-28,-6,-7,-3,-15,-7,2
3.652751,-42,-8,-8,-2,-3,-19,-1,-42,2
3.652783,19,48,26,4,-6,1,-18,10,2
3.654210,47,7,3,3,-1,-3,-2,3,2
3.654214,-1,10,5,1,2,0,-9,-23,2
3.667825,7,12,0,-4,-5,12,13,23,2
3.669619,106,32,-16,12,15,-5,42,26,2
3.669627,-128,-82,27,-16,-21,40,-79,-56,2
3.669631,-27,33,-8,-6,-4,-58,-27,-27,2
3.691592,-43,-95,-4,1,0,7,15,4,2
3.691598,-18,74,-34,-7,-4,5,0,-14,2
3.691600,36,69,5,4,-10,-26,16,10,2
3.691602,36,26,6,1,8,21,-10,13,2
3.712712,8,-39,-6,-4,-14,-18,8,-10,2
3.712737,-27,11,6,1,10,5,-10,1,2
3.714717,26,6,-14,-1,6,6,20,8,2
3.714722,42,-9,-4,3,-3,-1,-18,33,2
3.727970,-71,32,24,-4,2,-17,23,-60,2
3.729131,37,-86,-2,-7,-22,23,-16,-10,2
3.729135,-39,1,-3,-4,2,-12,8,-9,2
3.729137,13,-43,-17,0,4,70,47,38,2
3.752000,103,24,-9,4,-6,-39,-48,-31,2
3.752005,-76,9,15,1,4,4,-10,1,2
3.752007,-46,-73,-15,-2,2,-8,3,15,2
3.752009,-16,-11,15,4,-19,3,9,-37,2
3.772859,15,37,19,2,38,39,12,26,2
3.772886,58,37,19,3,-15,-19,0,10,2
3.775249,-60,16,-23,-8,23,4,-12,-21,2
3.775258,69,37,-5,-4,-13,-56,3,-5,2
3.787454,35,45,-2,1,13,93,8,45,2
3.787475,-73,-61,-23,-6,-14,-68,-13,-10,2
3.789372,3,46,12,1,-1,-10,-5,-28,2
3.789383,-47,12,5,-4,-20,-13,-35,-11,2
3.810057,24,10,-13,-7,-23,-21,19,10,2
3.810079,5,52,2,1,20,69,13,6,2
3.812796,17,10,4,0,-10,-42,20,27,2
3.812804,-44,-31,11,-2,11,-6,-55,-31,2
3.832528,55,28,-42,-3,-4,-15,7,26,2
3.832559,-69,-18,74,13,-1,17,1,-25,2
3.833023,16,43,-12,-2,1,-4,1,2,2
3.833048,-19,22,-12,-6,7,18,16,-3,2
3.847384,-44,-48,6,-2,-7,-9,2,-3,2
3.847401,15,1,-28,-4,1,-20,-8,5,2
3.848533,-11,7,-5,3,-7,14,8,-3,2
3.848539,35,64,16,6,3,-12,5,9,2
3.870375,-71,-97,-30,-7,7,17,-12,-3,2
3.870404,41,117,6,-4,6,29,1,-9,2
3.872019,-63,-43,0,-3,-2,-57,13,-5,2
3.872022,34,-86,-24,-8,-8,14,-3,-20,2
3.892555,4,89,27,8,0,-23,3,18,2
3.892581,-39,-84,5,-2,-1,-2,-12,-17,2
3.893083,31,-9,12,3,1,27,2,20,2
3.893097,38,67,9,4,9,-22,-11,6,2
3.907665,-102,-76,-23,-10,-11,17,55,15,2
3.907685,3,59,-19,-4,4,15,-67,20,2
3.910415,73,0,-12,-1,-5,12,1,-38,2
3.910421,-44,-67,7,1,3,10,4,-17,2
3.930534,55,52,23,4,-2,-4,4,10,2
3.932117,10,27,-19,1,3,6,27,34,2
3.932120,26,-87,-2,-4,2,8,-9,-55,2
3.932122,17,22,-49,-5,-3,-7,-3,16,2
3.954312,-74,-2,81,8,1,47,-3,-14,2
3.954318,67,-17,-8,-2,-3,-24,25,2,2
3.954319,-20,58,11,4,2,2,-10,31,2
3.954321,-9,40,2,0,-2,-1,12,-3,2
3.970070,127,58,-14,3,-17,-28,-29,8,2
3.970076,-93,-36,-19,-8,6,-4,51,15,2
3.970079,-71,-110,2,-2,2,8,-5,9,2
3.970080,-59,63,-8,1,2,17,39,-10,2
4.000034,-10,-115,-30,-10,-8,-24,-80,5,2
4.000040,46,73,11,1,2,-5,-5,2,2
4.000042,35,94,-7,1,6,-22,-2,-18,2
4.000044,-68,-60,20,2,-10,55,-1,26,2
4.014543,42,-53,-8,1,13,-26,23,4,2
4.014590,-58,-43,-16,-6,-18,34,-8,-22,2
4.014592,54,21,26,4,6,15,4,31,2
4.014594,88,36,-1,0,9,20,2,-6,2
4.029506,-109,-6,5,-5,-4,-11,-5,-27,2
4.029510,-3,24,12,0,-1,3,-6,-3,2
4.029698,45,-54,-13,-2,-4,3,14,12,2
4.029712,-84,-47,-2,-6,-1,-26,-17,-9,2
4.049843,46,12,-12,0,-5,2,10,5,2
4.049859,107,30,-4,5,-2,-23,-3,-10,2
4.050882,-33,84,-10,-2,-8,3,-12,21,2
4.050888,-53,-16,4,-6,-1,-17,6,9,2
4.072428,9,8,-8,0,6,1,3,2,2
4.072447,-4,31,-12,-2,-19,-27,-9,-27,2
4.073730,80,35,23,9,3,1,23,47,2
4.073735,-13,-46,4,-9,-2,14,-61,-4,2
4.089220,-11,48,6,4,-8,-2,36,-13,2
4.089224,-5,58,5,-2,11,-4,-5,7,2
4.089765,-37,-14,-13,4,1,11,14,7,2
4.089847,35,52,-7,1,2,-15,10,-19,2
4.109926,4,-34,-2,-4,8,6,-4,3,2
4.109944,-31,-31,-12,-5,-19,15,-6,-16,2
4.110778,-12,-5,1,0,0,-1,1,-12,2
4.110810,86,51,13,-1,10,-23,-10,5,2
4.132445,-96,-26,-26,1,-5,5,-35,-25,2
4.133487,40,2,-2,-2,-4,6,31,11,2
4.133495,47,29,10,0,9,4,-11,-14,2
4.133498,-51,-4,-5,-2,0,-10,9,24,2
4.147470,30,63,-18,-8,-29,-6,-3,9,2
4.147492,6,-80,13,3,16,-13,-8,8,2
4.148873,-29,-2,-55,-11,-11,-3,2,-9,2
4.148884,0,56,81,14,2,2,4,-1,2
4.170387,-3,-67,-6,-4,6,-1,-5,-19,2
4.172576,-33,4,-7,-4,12,-7,16,-15,2
4.172582,22,-4,-13,-3,-7,2,-50,14,2
4.172584,75,35,20,10,13,38,21,12,2
4.192587,-52,-5,3,-5,-10,9,-7,4,2
4.192604,-66,-20,1,-1,6,-5,20,19,2
4.194108,-53,-37,-11,-6,-20,-19,-7,0,2
4.194112,29,-55,-20,-4,-4,-2,-1,-3,2
4.206849,35,50,7,5,19,-3,13,21,2
4.206870,33,60,22,4,-17,6,-31,-44,2
4.217859,-71,-52,2,-2,4,16,9,0,2
4.217865,-47,35,-14,-3,-9,-5,-2,-21,2
4.230469,43,-50,-37,-8,-6,-9,11,25,2
4.230492,4,45,13,9,12,-17,-8,26,2
4.232542,-60,15,41,1,-7,32,-15,-61,2
4.232548,42,-1,20,4,0,-5,11,22,2
4.252753,8,108,-10,-6,1,-12,-5,-35,2
4.252770,-63,-80,-36,-13,-15,-10,-6,14,2
4.254982,5,81,1,0,7,5,0,-4,2
4.254987,40,-51,-20,-4,-15,6,26,-2,2
4.267111,47,44,15,7,37,-26,-2,15,2
4.267134,12,3,19,2,-39,2,-11,-27,2
4.275273,12,-58,-1,-4,25,-4,1,6,2
4.275289,-45,-53,-14,-4,8,16,21,-20,2
4.290299,17,91,6,1,-9,1,6,22,2
4.290333,24,-74,-5,1,8,-5,-5,-5,2
4.292534,31,5,-1,-4,-6,-7,15,7,2
4.292540,-65,-11,-25,-2,-18,18,-2,-3,2
4.312487,48,-7,41,12,17,15,5,17,2
4.312509,-36,24,-13,-5,0,-6,1,6,2
4.313685,-41,-46,26,4,-16,-6,-7,-6,2
4.313691,26,38,8,-2,9,-7,-14,3,2
4.326770,-50,2,-13,-1,-18,-6,-2,15,2
4.326793,42,32,6,1,11,11,6,23,2
4.335021,34,-7,-12,-1,0,0,-4,2,2
4.335042,-46,97,-25,-8,14,-4,-5,-20,2
4.350036,0,-8,13,-2,-18,-22,8,-33,2
4.350064,7,38,-5,1,7,18,-3,3,2
4.351380,-39,32,-18,-4,-16,-13,19,8,2
4.351387,-2,8,12,0,15,-3,-25,-1,2
4.372526,44,-61,2,3,-1,-1,6,-13,2
4.372549,27,-3,-7,0,-7,-5,4,-1,2
4.373274,11,32,11,1,8,24,-12,11,2
4.373296,-2,31,15,0,-17,-16,5,-2,2
4.386629,-14,-40,-11,-2,8,-8,-3,-15,2
4.386670,33,46,-13,-1,-3,-5,-8,-14,2
4.394906,10,-61,15,0,-3,-1,32,19,2
4.394925,14,-30,-1,3,3,-2,-10,-1,2
4.409949,-24,12,6,-1,-7,7,-9,-8,2
4.409969,-23,-30,-6,0,7,0,-8,-19,2
4.410935,91,28,-28,0,6,-33,-19,5,2
4.410939,-85,-87,3,-5,-20,11,19,3,2
4.440721,17,11,13,1,5,14,-4,-7,2
4.440759,22,-41,-11,-8,-12,-9,4,4,2
4.441952,-49,22,7,2,7,-3,-9,-21,2
4.441956,-56,1,-28,-5,15,-6,-14,-21,2
4.455729,49,39,-25,-4,1,9,6,-9,2
4.455751,4,19,22,2,-1,-10,-4,4,2
4.457314,31,-78,23,2,6,-5,-1,-18,2
4.457320,63,20,-20,0,-20,23,18,33,2
4.470172,-98,28,-3,-4,-9,1,-18,26,2
4.470193,-102,-49,-2,0,4,-8,-7,-50,2
4.471347,12,21,-7,-1,9,8,4,23,2
4.471351,55,-4,-9,-1,-20,-26,2,-38,2
4.493714,21,-31,11,0,3,6,7,23,2
4.493721,-6,6,-7,-6,-12,-10,-15,-1,2
4.493723,-9,-6,11,1,11,6,13,13,2
4.493724,10,53,-10,-3,1,-5,-9,9,2
4.507067,-32,-64,-16,-5,-3,3,-4,-20,2
4.507196,11,36,7,2,7,5,-3,21,2
4.515395,98,59,13,5,-9,-12,-5,-15,2
4.515423,-21,22,-24,-7,18,52,10,20,2
4.530913,-34,-46,35,10,-18,-26,-3,-1,2
4.530964,-53,58,-2,-7,2,7,9,8,2
4.530984,-17,-17,-20,-5,-7,3,-6,2,2
4.531002,29,21,21,3,-3,-5,-18,5,2
4.552941,13,-57,-30,-6,-4,2,9,-2,2
4.552966,-12,-79,-15,3,14,4,15,6,2
4.554328,15,115,7,-4,-15,-6,-7,11,2
4.554339,-51,-88,3,3,-2,-26,16,-21,2
4.575622,-4,88,-7,-7,5,17,-21,10,2
4.575638,94,-52,6,0,19,-26,24,-26,2
4.576447,-52,35,-36,-8,-26,-6,-17,10,2
4.577589,-44,-5,17,1,17,23,19,-8,2
4.590142,31,41,18,7,13,3,7,2,2
4.590161,-16,-9,5,-3,-19,-2,-17,4,2
4.590782,29,-27,-19,1,15,-6,7,6,2
4.590790,47,-13,10,-2,-9,-21,-4,2,2
4.613011,-56,6,-4,-1,5,1,-18,-11,2
4.614566,-18,22,-9,-1,-1,39,14,4,2
4.614569,-42,-67,-15,-6,-11,-20,9,4,2
4.614571,-38,-58,46,8,3,-1,-17,10,2
4.635920,105,96,3,0,8,11,-4,-3,2
4.635933,-59,-97,-13,-5,3,15,7,33,2
4.636372,-35,60,-2,-1,-8,8,-10,-50,2
4.636495,-17,-86,-19,-6,-1,-14,-14,-4,2
4.650175,-21,0,0,-1,-5,-5,11,4,2
4.650183,4,26,1,3,-1,-4,7,6,2
4.650506,70,15,25,8,11,-20,-24,14,2
4.650519,-64,-7,-11,-6,2,67,35,-19,2
4.672540,-10,16,0,-2,-7,-27,0,-11,2
4.672563,41,18,1,2,-10,-3,-14,14,2
4.674440,17,-13,-3,-1,5,11,9,3,2
4.674445,32,107,14,3,-3,-18,-7,-2,2
4.695717,-55,-126,-32,-5,-7,2,-18,-18,2
4.695724,30,115,-22,-1,2,9,28,-8,2
4.696309,11,-25,63,6,-12,-6,6,3,2
4.696396,24,-21,-10,3,12,-19,-21,6,2
4.710355,2,-11,8,-2,1,9,4,4,2
4.710361,-77,-62,-30,-9,-2,-20,-19,-29,2
4.710641,-30,36,-17,-7,-2,19,5,-18,2
4.710647,97,46,-17,-1,-11,-16,-10,13,2
4.732388,-27,6,31,3,-8,4,7,1,2
4.732407,41,-20,22,4,2,3,-8,10,2
4.733428,30,-28,-15,-4,-11,16,-5,6,2
4.733432,29,-67,6,3,20,23,47,7,2
4.756878,-48,20,-22,-4,-2,-21,-66,14,2
4.756884,20,-8,14,5,-1,-5,16,-3,2
4.756885,-70,24,3,-8,0,8,7,35,2
4.756887,-11,32,-16,0,3,-16,-25,-5,2
4.772317,41,-1,3,-1,-22,28,21,-17,2
4.772333,31,-16,1,1,1,-58,-32,-12,2
4.772337,-57,-41,-15,-4,5,21,20,-23,2
4.772340,-53,22,-2,-4,-15,-19,-12,-13,2
4.792489,25,83,16,3,12,-2,22,8,2
4.792506,3,-61,-17,-5,-3,11,-12,16,2
4.794197,17,-76,-1,3,10,-6,8,16,2
4.794202,39,2,8,1,-12,-15,-19,-9,2
4.815702,-77,-48,-24,-7,-2,15,-1,-58,2
4.815707,32,81,2,-3,-1,0,0,29,2
4.816267,28,35,-4,0,7,-6,-11,-23,2
4.816305,-16,-43,-6,-1,-4,-18,-7,9,2
4.832112,51,66,1,1,2,24,12,16,2
4.832116,-55,-47,-11,-8,-4,10,-5,-22,2
4.832117,1,90,40,10,-5,-9,23,6,2
4.832119,-31,2,-6,-6,-1,12,-37,-17,2
4.852386,20,39,2,2,-8,-58,15,8,2
4.852412,-31,3,4,0,-1,4,-6,13,2
4.853466,47,38,-21,-2,6,21,3,20,2
4.855050,-13,-29,-12,-3,-10,-10,9,-1,2
4.876640,-10,-78,20,2,6,11,-1,-17,2
4.876648,14,35,7,2,-10,-25,7,0,2
4.876649,-31,7,-21,-10,8,17,-16,-8,2
4.876651,14,5,19,1,-11,0,-2,-16,2
4.890330,4,39,-20,-7,21,17,-5,8,2
4.890364,34,48,13,1,-5,-6,-5,7,2
4.892295,-3,-55,13,7,-2,-4,6,-4,2
4.892301,-41,-29,-18,-6,3,-6,-6,-19,2
4.912681,24,27,-2,0,-6,-9,1,15,2
4.912707,10,0,2,-2,-6,17,4,-18,2
4.913550,-28,-24,20,3,14,7,-4,-2,2
4.913568,87,84,11,2,3,2,-21,7,2
4.935996,-55,-24,-5,-3,2,-8,10,17,2
4.936026,4,-33,-8,-6,-19,-3,-13,-17,2
4.937839,-32,-6,-20,-4,3,-2,-9,-6,2
4.937843,38,26,14,4,-6,-11,9,30,2
4.950139,14,15,-5,-2,10,16,2,-37,2
4.950167,62,-7,2,11,13,-4,-4,6,2
4.952291,-99,19,9,-9,-12,54,-2,-7,2
4.952295,49,27,-3,-2,-5,-34,7,23,2
4.973091,-12,-122,-12,-8,-4,-19,-8,-17,2
4.973115,-69,-20,3,1,6,-1,2,-27,2
4.974814,64,38,-11,4,1,-16,-9,17,2
4.974820,-14,-56,2,-2,6,26,4,-2,2
4.995708,-6,25,-8,0,-7,8,4,16,2
4.995732,0,-32,14,2,5,-3,8,31,2
4.997376,29,14,-23,-5,-11,-20,-7,-2,2
4.997383,-76,-5,10,-3,-4,-8,-9,-33,2
7.020983,-1,1,0,0,-1,-1,-2,1,0
7.021509,0,1,-1,-2,-3,-2,0,-1,0
7.023097,-2,-1,-1,-1,0,-1,-2,-1,0
7.023102,-4,-1,-1,0,-1,-1,-2,-4,0
7.034713,-1,-5,-1,-3,-1,0,-1,0,0
7.034743,-2,1,-1,0,1,0,-1,0,0
7.044873,0,-2,0,-3,-2,-2,0,0,0
7.044879,1,1,1,2,0,-1,1,1,0
7.058249,-1,1,-1,-1,-3,-1,0,-2,0
7.058268,-2,-1,0,0,-2,-2,-2,-1,0
7.061006,-1,-1,-1,-2,-1,-3,-1,-2,0
7.061012,0,2,-1,-1,0,-1,0,0,0
7.080590,0,1,0,0,-1,1,-1,1,0
7.080607,-2,-2,-1,0,-2,0,-1,-1,0
7.082340,-1,0,-2,-1,-1,-2,-2,0,0
7.082454,-1,0,-2,-1,-2,0,-1,0,0
7.094251,0,-1,-1,0,1,-1,-1,-1,0
7.094272,0,1,0,-1,-1,-1,-1,-1,0
7.104296,0,0,-1,-1,-1,-1,1,-1,0
7.104303,-2,-3,0,-2,-1,-1,-2,-5,0
7.118264,-1,0,-2,1,-2,0,-1,-1,0
7.118291,-2,-3,1,-2,-1,-1,-3,0,0
7.120230,-2,-2,-1,1,1,0,-2,-2,0
7.120236,2,-1,0,-1,-1,-2,1,2,0
7.140973,1,2,-2,-3,0,-2,1,-1,0
7.140991,1,-2,-3,-1,-1,0,1,0,0
7.142381,2,0,-1,-1,-2,-1,0,1,0
7.142407,-1,-4,-4,-1,-1,0,-2,-3,0
7.154228,-1,-1,1,-2,-2,0,-1,0,0
7.154240,-2,0,-1,-2,-2,0,-2,-3,0
7.164039,-4,-4,-1,-1,-1,-1,-1,-2,0
7.164043,0,-3,-2,-2,0,-2,-1,0,0
7.178409,0,0,0,1,0,-2,-2,-2,0
7.178424,1,-1,-1,0,1,-1,1,3,0
7.180955,-2,0,-2,0,0,1,0,0,0
7.180962,-1,-1,-3,-3,-1,-1,-1,2,0
7.200538,-3,-2,-3,-1,-2,-2,-3,-2,0
7.200545,-3,0,2,-1,-1,-1,-1,-2,0
7.202035,2,-2,-1,-2,0,-1,-1,-3,0
7.202047,-1,1,0,1,0,-2,1,0,0
7.216243,-2,-2,-1,-1,-2,-1,1,-1,0
7.216247,-2,-2,-4,-1,-2,-1,0,-3,0
7.225043,-1,2,0,-1,0,0,0,2,0
7.225049,-3,0,-1,-1,-2,0,-2,-1,0
7.238287,0,-3,-1,-2,0,-1,-2,-1,0
7.238307,0,-2,-1,-1,-1,-1,0,-1,0
7.240226,-5,-4,-3,0,-2,0,-3,-5,0
7.240232,2,0,0,0,-1,-2,0,1,0
7.262861,-2,-1,-1,-1,-1,0,0,-1,0
7.262871,0,-1,-1,-1,-1,-1,0,0,0
7.262873,0,-1,-2,-1,-2,-3,-3,-1,0
7.262875,2,0,0,0,-3,-1,-2,0,0
7.274551,-2,-1,-2,-1,-1,0,-1,-1,0
7.274572,0,0,0,-2,-3,-2,-1,-3,0
7.285449,0,1,-1,0,-1,-1,1,0,0
7.285454,-3,-1,0,-2,-2,-3,-3,-3,0
7.297828,-1,-1,0,-1,0,-1,1,1,0
7.297853,-2,-1,-3,0,0,0,-1,-2,0
7.304227,-2,0,1,-2,-1,-1,-1,1,0
7.304240,-2,-1,-1,-1,-2,0,-1,-2,0
7.320555,-3,-3,-2,-1,-3,-1,0,-1,0
7.320577,0,0,0,-1,1,1,1,2,0
7.326677,-1,-3,-3,0,-1,-3,-2,-3,0
7.326698,-1,-4,-2,-1,0,0,-1,-2,0
7.334486,0,0,1,1,0,-2,-2,-1,0
7.334514,-1,-2,0,0,-1,-3,-2,-1,0
7.344172,2,2,-3,-2,0,0,0,-1,0
7.344177,-2,-1,-1,-2,-2,-1,-2,-2,0
7.358186,-1,0,1,-1,-1,-1,0,-1,0
7.358210,1,-1,-3,-3,-2,-2,-4,-3,0
7.359781,0,0,0,-3,-1,0,-2,0,0
7.359802,0,3,-1,-2,-3,0,0,-2,0
7.381215,-2,-3,-1,-1,-1,-2,0,1,0
7.381240,0,2,0,-1,0,-2,-1,1,0
7.383837,-1,-2,-1,-1,-1,-1,-1,-1,0
7.383842,1,0,0,0,0,-2,0,1,0
7.403302,-1,-2,-1,-2,-2,-1,-3,-4,0
7.403315,1,-1,0,0,-1,1,0,1,0
7.404875,0,-3,2,2,0,0,-1,0,0
7.404994,0,-3,-3,0,1,0,-1,-1,0
7.418056,0,-1,-2,-1,-1,-1,-3,-5,0
7.418074,-2,-2,-1,-2,1,0,-2,-2,0
7.420056,-2,-1,-2,-1,-1,-2,-2,-3,0
7.420074,0,-2,1,-1,-2,-2,0,0,0
7.440831,0,-1,-2,0,-3,-1,-1,1,0
7.440865,-1,-2,-1,-2,-1,0,-1,1,0
7.442537,0,-1,1,0,0,0,0,1,0
7.442541,-3,0,0,-1,0,-1,-1,-2,0
7.470745,-3,-2,-2,0,-1,-2,-2,-1,0
7.470759,-2,-3,-2,1,-1,-2,-1,-4,0
7.472408,1,0,0,-1,-1,-2,1,0,0
7.472416,-1,0,0,0,1,-1,0,0,0
7.480097,0,0,-2,0,0,0,-2,1,0
7.480104,-1,0,0,-1,0,-1,0,-1,0
7.480117,-2,-2,-2,-2,-2,-1,-1,0,0
7.480125,-4,-2,-4,-2,-2,-2,-1,-4,0
7.500799,-2,-1,0,-3,1,0,-1,-1,0
7.500821,-1,0,-1,-1,-1,-1,0,0,0
7.502776,0,-1,-1,0,0,0,-1,0,0
7.502779,1,1,-1,-3,-1,-2,0,3,0
7.523167,1,-1,-1,-2,0,-1,-2,0,0
7.523258,-2,-1,0,0,-1,-2,-1,0,0
7.525689,-1,-1,-1,-1,-2,-2,-1,-1,0
7.525698,0,1,-2,-1,-1,0,0,1,0
7.537734,1,0,0,1,0,0,-1,0,0
7.537762,2,-2,0,-2,0,-1,0,2,0
7.544714,-2,-1,-1,0,-1,-1,0,-1,0
7.544735,-1,-2,-2,1,-2,1,-2,-2,0
7.560721,0,0,-1,-1,-2,-1,0,0,0
7.560741,-3,-5,-1,0,-1,-1,-2,-2,0
7.562256,-1,0,-2,-2,1,0,-2,-1,0
7.562277,1,-1,1,-2,1,-2,-1,-1,0
7.583106,0,-1,1,0,-1,-1,-1,-1,0
7.583122,2,2,-1,-1,0,-2,0,2,0
7.584697,-4,-2,-1,-2,-1,-2,-1,-3,0
7.584744,-1,-2,-1,-1,0,0,-1,0,0
7.597825,-2,-1,-1,0,-1,0,-1,0,0
7.597847,1,0,-1,-2,-1,-1,-1,0,0
7.604276,1,0,-1,0,-3,0,0,2,0
7.604324,-2,0,0,0,-1,0,0,-3,0
7.621247,0,-2,-1,-1,0,1,0,0,0
7.621252,-3,0,0,-1,-1,0,-2,-3,0
7.622222,0,0,0,-3,0,0,0,0,0
7.622236,-3,-3,3,1,0,0,-1,0,0
7.643470,-1,-1,0,-1,-1,-2,0,0,0
7.643488,-1,-2,-3,1,1,-1,-1,-2,0
7.644855,-1,-3,-2,-1,-1,-1,-1,0,0
7.644858,0,-1,-1,-1,0,-1,-1,0,0
7.657571,-2,0,-1,-2,-1,0,-1,-3,0
7.658694,0,-1,-2,0,-1,0,-2,0,0
7.664407,1,1,1,1,-1,-1,0,-2,0
7.664427,0,-1,-1,-2,-1,-2,-1,-1,0
7.682209,-1,-3,-1,-1,0,-2,0,0,0
7.682214,-4,-1,-1,-2,-1,0,0,-2,0
7.682216,-2,0,-1,-2,-1,-1,-1,-2,0
7.682218,0,0,0,1,-1,-2,0,1,0
7.710780,3,2,-3,-2,0,-2,0,-3,0
7.710796,-3,-2,0,1,-1,0,-1,-1,0
7.712479,-1,0,1,1,-1,1,-2,2,0
7.712485,-1,-2,-2,-2,-3,-1,-1,0,0
7.717512,-2,-1,-1,0,1,-1,-1,-2,0
7.717534,0,1,-3,0,-2,0,-1,0,0
7.724424,-1,-1,-2,2,-1,-1,-1,-5,0
7.724447,1,0,-2,-1,-1,0,-2,-1,0
7.741171,-3,-1,1,-1,-1,1,-1,-1,0
7.741197,-2,0,-1,-2,-1,-3,-2,0,0
7.743100,-2,-3,0,-1,0,-1,0,2,0
7.743112,-2,-1,-1,-2,0,0,-2,-1,0
7.763455,-2,1,-1,-1,-2,-1,-1,0,0
7.763473,-2,-2,-1,0,-1,-1,-2,-1,0
7.764665,1,-2,-1,-1,-2,1,-1,3,0
7.764699,-1,-1,0,0,-1,0,-1,-2,0
7.777538,-2,-1,0,-1,0,-2,-2,-5,0
7.777551,-2,0,-1,-1,0,-2,0,0,0
7.784394,-2,-1,-2,-1,0,-1,-2,-1,0
7.784416,1,1,-1,-2,0,0,-1,2,0
7.801015,-4,-3,-2,-2,0,-1,-1,0,0
7.801044,1,-1,-1,-2,1,1,-2,-2,0
7.802851,-2,-1,-1,-2,-3,-2,-1,-3,0
7.802857,-1,-1,0,-1,-2,-2,0,1,0
7.823889,0,1,-2,-1,-2,-1,-1,-1,0
7.823896,0,-3,0,0,-1,-1,1,-1,0
7.824902,-2,0,-1,-2,-1,0,-2,1,0
7.824926,-1,-1,-1,0,-3,-1,-1,-1,0
7.838707,0,0,-1,1,0,-2,-1,0,0
7.838712,-1,-1,-2,0,-1,-1,-1,-1,0
7.844310,-4,-2,-3,-2,0,-1,-1,-3,0
7.844333,-3,-3,-2,-1,1,-1,-1,-2,0
7.860944,-1,-1,-2,-1,0,1,-1,2,0
7.862005,0,-2,0,-1,-1,-2,-1,0,0
7.862261,-1,0,-1,-2,-1,-1,0,-2,0
7.862275,-1,-1,0,1,0,-1,-2,-1,0
7.884451,0,-2,-2,-1,0,-2,-1,-4,0
7.884456,-1,-4,-5,-1,-1,-3,-2,-1,0
7.884552,-1,-1,-1,0,-2,-2,0,-1,0
7.884585,-1,0,-2,-1,-3,-1,0,-1,0
7.897209,0,-2,1,-2,-3,0,0,0,0
7.897230,1,0,-1,-3,-1,1,-2,-1,0
7.907657,1,-2,0,0,1,1,0,1,0
7.907664,-3,-1,-1,0,-1,0,-2,-4,0
7.920796,1,2,-1,-1,-2,-2,0,0,0
7.920812,-3,-2,-2,0,-2,-1,-1,-1,0
7.922698,1,0,1,1,0,-1,0,-1,0
7.922703,-3,-1,-3,-2,-1,0,-2,1,0
7.943117,-2,-2,0,-1,0,-1,2,-2,0
7.945132,-1,1,2,-1,0,0,0,0,0
7.945140,0,-3,-1,-2,-1,0,0,0,0
7.945142,0,-1,-3,0,-2,0,-3,-2,0
7.957175,-2,-4,-1,-1,-2,-2,-3,-1,0
7.957204,0,0,-2,-1,-2,-2,0,-2,0
7.967818,0,-2,-3,0,0,-2,-2,-2,0
7.967823,0,0,-1,-1,0,-2,-2,-1,0
7.980873,0,-2,-4,-2,-1,0,-2,1,0
7.980892,-2,-2,0,0,-1,-1,-2,-1,0
7.982173,-1,1,-2,-1,0,-1,-1,-3,0
7.982191,-1,-1,1,0,1,-1,0,-1,0
8.003545,-2,-2,0,1,0,-1,-1,-1,0
8.003568,0,0,-1,1,2,-1,-1,-1,0
8.004625,1,-1,0,2,-1,1,-1,4,0
8.004629,-1,-2,-3,-3,-2,-1,-1,0,0
8.016956,0,-1,-4,-1,0,-1,-1,-1,0
8.017030,-2,0,-1,-1,-3,-1,-1,-1,0
8.026754,-1,-1,-2,-3,0,-1,-1,0,0
8.026758,-2,-2,1,-1,0,-2,0,0,0
8.041571,-2,0,-1,-2,1,1,-1,-2,0
8.041586,-2,-2,-3,-2,-1,-2,-1,-4,0
8.049683,-2,1,-1,-1,0,-1,-1,-1,0
8.049688,-1,0,-1,-2,-1,0,-2,0,0
8.063259,-1,-1,0,-1,-2,-2,0,-1,0
8.063280,1,-1,-1,1,-2,-1,-1,1,0
8.064613,-1,-2,0,0,-1,-1,0,-4,0
8.064617,2,0,-1,-1,0,-1,0,1,0
8.087035,-2,-4,-2,-1,0,-1,-2,1,0
8.087039,-2,1,-1,0,0,-1,-1,0,0
8.087144,-1,-1,0,1,-1,-1,-2,-1,0
8.087187,0,-3,0,1,-1,-1,0,-2,0
8.101785,-1,0,1,1,-1,-1,0,-2,0
8.101789,-1,-3,-1,-1,-1,0,0,-1,0
8.102208,-2,-2,-2,0,1,-1,-2,0,0
8.102265,-2,0,-1,-1,0,0,0,-1,0
8.123239,-2,0,0,0,-2,-1,-2,-5,0
8.123262,0,3,-1,-3,-2,-3,-2,-2,0
8.126076,-2,-5,0,-2,-2,-1,0,-2,0
8.126087,0,-2,0,-1,0,-1,-1,-1,0
8.136715,0,1,-1,-1,1,-1,-3,1,0
8.136736,-2,-2,1,-3,-1,-1,-1,0,0
8.146777,1,0,-1,0,-2,0,-2,-2,0
8.146788,-1,0,-1,-2,-1,0,-1,0,0
8.160628,-1,0,-1,-1,0,0,0,-1,0
8.162325,-1,0,-2,-3,1,-2,-1,-2,0
8.162399,-2,0,-3,-3,1,-3,0,-1,0
8.162427,-2,0,-1,-1,0,-1,-1,0,0
8.183221,0,0,0,1,0,-1,1,2,0
8.183242,-1,0,0,-1,0,1,-2,0,0
8.184774,-1,-4,-2,-1,-2,-1,-1,-1,0
8.184791,0,0,0,0,0,-1,-2,-2,0
8.196966,0,0,-2,-2,-3,0,-2,1,0
8.196980,-2,-4,-2,-1,0,0,-2,-3,0
8.208005,0,-1,0,1,-1,0,-3,-1,0
8.208014,0,1,0,-2,0,-1,0,0,0
8.220728,0,-2,-1,-1,-1,-1,1,0,0
8.220750,-3,-2,-1,1,-2,-2,-1,-6,0
8.223019,-1,1,-1,-1,1,0,0,2,0
8.223023,-2,-1,-2,-1,-1,-2,-1,-1,0
8.243161,-1,-2,-2,-2,-1,1,1,-2,0
8.243175,0,1,0,0,2,0,0,3,0
8.244571,-3,1,-3,-2,-1,0,0,-1,0
8.244588,-2,-1,-2,0,0,0,-2,0,0
8.259139,0,-2,1,-2,0,-1,-2,1,0
8.259146,1,0,0,-2,0,0,-1,1,0
8.267593,1,1,0,0,-1,-1,-2,0,0
8.267598,0,0,1,1,0,0,-1,1,0
8.280956,0,1,-1,0,-1,-1,-2,-2,0
8.280974,-1,-1,-1,-1,-2,-1,0,0,0
8.282241,0,-2,-2,-1,0,-1,-1,-1,0
8.282247,-2,-1,0,-1,-1,-2,-1,-2,0
8.305463,-1,-2,0,2,-2,-1,-1,0,0
8.305467,-2,0,-2,-1,-2,-1,-3,0,0
8.305469,1,1,1,-2,-1,-1,0,-1,0
8.305471,1,0,-1,-2,1,-1,-1,3,0
8.325690,-2,2,-3,-3,-2,-3,-1,-4,0
8.325808,-3,-1,2,1,0,-1,1,-2,0
8.327136,-4,-5,-3,-2,-2,-2,-2,-5,0
8.327155,0,1,0,0,-3,-1,-1,-1,0
8.340247,-2,-4,-3,-3,-2,-1,-2,-3,0
8.340271,0,-2,-1,-1,-3,-2,-1,-1,0
8.347136,0,0,-1,-1,-1,-2,-2,2,0
8.347159,-2,-4,-2,-2,0,0,-2,-2,0
8.363482,-1,1,-2,0,0,-1,-1,1,0
8.363506,-2,-1,-2,-2,0,0,-2,0,0
8.365913,-2,-3,0,-4,-3,-1,0,-4,0
8.365934,-2,0,0,-1,-4,-2,-1,-3,0
8.385972,-4,-2,-1,-2,0,-2,0,-3,0
8.385985,0,-4,-3,-2,-2,-2,-1,-1,0
8.387121,-3,-2,1,0,0,-1,-2,-4,0
8.387127,-2,-2,-1,-2,-1,-1,-1,0,0
8.399928,-1,0,2,2,-1,-2,-1,1,0
8.399940,-1,-1,0,0,1,0,0,-4,0
8.406875,2,1,0,0,0,0,0,1,0
8.406900,2,0,-2,-1,-2,-2,1,-1,0
8.423264,-1,-6,0,-1,-2,-1,-3,-4,0
8.425216,0,-1,0,-2,-1,-1,-2,-1,0
8.425224,-3,0,-1,0,-2,-1,-1,0,0
8.425226,-1,-3,0,-2,0,-1,1,0,0
8.445665,0,1,-1,-1,-1,0,0,0,0
8.445672,-1,3,-2,0,-2,1,1,-1,0
8.447104,-2,-1,0,-1,-1,-1,-2,-3,0
8.447117,-1,0,-2,-1,-2,0,-1,0,0
8.460283,1,0,0,-1,-2,0,0,1,0
8.460289,-2,0,0,0,0,-1,1,1,0
8.466680,-2,-4,-3,-1,-1,-1,0,0,0
8.466701,2,2,-1,-1,0,1,1,-1,0
8.483173,-3,-2,1,-1,-1,1,-1,-2,0
8.483202,1,-1,-1,0,0,-1,-1,0,0
8.484589,0,2,-2,-3,-1,-1,-1,0,0
8.484609,0,-1,0,-1,-1,0,0,-1,0
8.508186,2,-5,-1,-1,-1,-2,-1,0,0
8.508195,1,17,-2,-3,-1,-1,-2,-1,0
8.508198,-2,-37,-3,-2,-1,-2,-1,0,0
8.508199,-7,-4,-1,1,-2,0,-3,-2,0
8.523281,-1,1,-1,-1,-1,-1,-1,-3,0
8.523335,-3,0,-1,0,-2,-1,-1,-1,0
8.526920,2,13,0,-1,-2,0,0,1,0
8.526948,-1,0,-1,-1,1,-2,-3,-1,0
8.543091,-1,-3,-2,-1,-1,-1,-2,0,0
8.543107,-1,-5,-1,-1,-1,-3,-2,-2,0
8.544997,-2,5,0,-1,-1,-1,-1,-3,0
8.545142,1,-6,0,-2,-3,-2,-1,-2,0
8.565827,0,4,-1,0,0,-2,1,1,0
8.565855,-1,-6,0,-1,0,0,0,-1,0
8.567878,-2,4,0,-1,-1,-1,-1,-1,0
8.567884,0,0,-2,0,0,1,1,2,0
8.580266,0,1,-3,-3,0,0,-1,-1,0
8.580287,-1,-5,1,0,-2,-1,0,0,0
8.586913,1,0,-2,-2,0,1,0,0,0
8.588327,-1,4,-1,-2,0,-3,-1,0,0
8.603300,-4,-1,-1,0,-1,-2,-3,0,0
8.603325,-1,-5,-1,-1,0,-3,-2,0,0
8.605410,2,8,0,-1,-1,-2,-1,1,0
8.605413,1,-4,1,1,-2,0,-2,-3,0
8.625581,-5,-4,2,1,-2,1,-1,-3,0
8.625599,0,-1,-1,-1,0,-2,-1,0,0
8.627285,0,-1,-4,1,2,-3,-2,-3,0
8.627400,0,13,1,-1,-2,0,-1,2,0
8.639590,-4,-19,-2,-2,0,-1,-3,-2,0
8.639619,-3,-5,-1,-1,-3,1,0,-3,0
8.649410,-2,1,1,-1,-1,0,0,1,0
8.649417,-1,-9,-5,-3,-1,-1,-1,-1,0
8.663212,2,11,-1,-1,0,-1,-1,1,0
8.663227,1,2,-2,-2,0,-2,-2,0,0
8.664986,-1,-5,-1,-1,-2,2,0,0,0
8.665112,-2,3,-1,0,0,-2,-1,-2,0
8.685726,-1,1,0,-3,1,-1,-1,0,0
8.685755,0,-6,-2,-1,0,-1,-2,0,0
8.688182,-3,0,-1,0,1,0,0,-2,0
8.688185,-5,-5,-1,-1,-2,1,-2,-2,0
8.699219,1,1,0,-2,-3,0,-1,0,0
8.699241,-2,-2,0,0,-2,1,-1,-4,0
8.716778,-2,1,-3,-3,-1,-1,-3,-5,0
8.716783,1,-3,-2,-1,-2,-1,-4,1,0
8.723164,-1,1,-2,-1,-2,-1,0,1,0
8.723185,-2,0,0,-1,0,0,-2,0,0
8.725168,1,3,-1,0,-1,1,-1,0,0
8.725178,-3,-6,-1,3,0,-2,-1,-2,0
8.746090,-1,1,-2,-1,-3,-1,-1,-2,0
8.746114,-1,-2,-2,-1,-2,-1,-3,2,0
8.747766,-2,-3,2,1,-1,0,0,-1,0
8.747769,4,0,2,-2,0,-2,-1,0,0
8.759403,-1,-2,1,0,-2,-2,-1,2,0
8.759428,-1,-2,-2,-2,-1,1,0,0,0
8.769091,0,-2,0,-2,0,0,0,1,0
8.769096,-4,1,-1,1,-1,-2,0,-4,0
8.784998,-1,-1,-2,0,-1,-2,-2,-3,0
8.785002,-3,-2,0,-2,1,-1,-2,-5,0
8.785004,1,2,-1,-3,-1,-2,-1,1,0
8.785006,-1,-1,-2,-3,0,-1,0,-2,0
8.806074,0,2,-1,-1,1,0,-1,-1,0
8.806098,1,-1,-1,-1,0,-2,-2,1,0
8.808322,-1,-2,-2,2,-1,-2,0,-1,0
8.808331,0,-2,-1,-2,-1,-1,-2,-1,0
8.819511,0,-5,-3,-2,0,-1,0,-2,0
8.819543,-1,0,-1,0,-1,-2,-2,-1,0
8.830112,-1,-3,-1,1,0,-3,-3,-1,0
8.830119,-1,-1,-1,-1,-1,-1,-1,2,0
8.843156,-1,1,-2,-2,-1,0,-1,-3,0
8.843175,-3,1,-1,0,-1,1,0,-2,0
8.845651,1,0,0,-3,-1,-1,0,4,0
8.845658,-1,-1,0,-1,-1,0,-1,-1,0
8.865624,-2,1,-2,-2,-2,-2,-1,-1,0
8.865646,1,0,-1,-1,0,-1,1,0,0
8.867079,0,-1,-4,-3,-3,-1,-2,-1,0
8.867150,0,1,-2,-1,1,-2,-1,-3,0
8.879243,0,-2,0,1,-1,0,-2,-1,0
8.879258,-2,-2,0,0,1,-1,0,-1,0
8.889608,-2,-1,-1,0,-1,-1,-2,-4,0
8.889616,2,2,0,-2,0,0,-1,1,0
8.903357,1,0,0,-1,0,-3,0,2,0
8.903379,-1,1,-2,-1,-3,-1,-1,0,0
8.905099,0,2,-1,-1,0,-2,-1,-1,0
8.905102,-3,-1,0,-2,0,0,-2,-2,0
8.925938,-1,-5,-2,-1,-2,-2,-2,-4,0
8.925957,-1,-1,-2,-3,-2,-1,-1,-2,0
8.927115,0,-1,0,-1,-1,-1,2,1,0
8.927139,-2,-3,-1,-1,-1,-1,1,2,0
8.940818,2,-1,-3,0,-1,1,-1,1,0
8.940828,-2,-1,1,0,0,-2,-1,-2,0
8.948970,-1,-3,0,0,0,0,-3,-1,0
8.948974,1,-1,0,-2,-2,1,0,1,0
8.963330,-5,0,0,1,0,-2,0,-4,0
8.963348,1,0,1,1,0,-1,0,1,0
8.964698,-2,-1,-1,-1,-1,0,-1,-1,0
8.964709,0,0,-1,-2,-1,-2,-1,-1,0
8.986930,2,0,1,0,-2,0,-2,-1,0
8.986934,-1,-1,-2,0,-1,0,-3,-1,0
8.987023,-5,-5,-1,1,-1,0,0,-3,0
8.987029,-3,-4,0,0,-1,0,-1,-1,0
8.999790,-1,1,-1,-2,0,-2,-1,0,0
9.001441,0,-1,-1,-2,-2,-1,0,-2,0
9.009060,0,1,-1,-2,-1,-1,0,2,0
9.009064,-2,-2,-2,-1,-1,-1,-3,1,0
9.023209,-2,-1,-1,0,1,1,1,1,0
9.023364,-4,-1,-2,-4,-1,-2,-1,-4,0
9.025394,1,0,-1,0,0,2,-1,0,0
9.025401,-4,0,-2,0,-3,-1,-1,-2,0
9.047865,0,0,-3,-2,-1,0,0,0,0
9.047872,0,0,1,-1,0,0,-1,2,0
9.047874,-3,-1,-1,-2,-1,-2,-2,-2,0
9.047876,0,-1,-1,0,1,1,-3,0,0
9.068189,-1,-2,-1,-2,-3,-1,0,-3,0
9.068210,-3,-5,-2,-4,-2,-1,0,-2,0
9.069600,-3,-1,2,0,-1,-1,1,-3,0
9.069634,-3,-5,-1,-1,-1,-2,-1,-1,0
9.083554,-1,-1,-1,-2,0,-1,0,1,0
9.083578,0,0,0,-1,-1,-1,-2,0,0
9.084865,-2,-3,-1,-1,-2,-2,-3,0,0
9.084997,-1,-2,-2,0,-3,-1,1,-5,0
9.105758,1,1,-2,-2,-1,-1,1,2,0
9.105780,1,-5,-2,0,-2,-1,-1,-1,0
9.108009,-6,0,-3,-4,0,0,-3,-2,0
9.108015,-2,1,1,1,1,0,-1,1,0
9.119561,-2,-1,-1,0,-1,-2,-3,-1,0
9.119589,2,1,0,-1,0,-1,2,0,0
9.129755,2,-2,-3,-2,-3,0,-2,-3,0
9.129758,-3,0,-4,-1,-1,0,-2,-4,0
9.143141,0,-2,-1,-1,-2,-1,1,-1,0
9.143165,0,0,-2,1,-1,0,-1,2,0
9.144699,0,-2,-1,1,0,-2,-1,0,0
9.144711,1,-3,-2,-2,-2,-1,0,1,0
9.165688,-1,-1,-1,-2,-1,-1,-1,-1,0
9.165710,0,-1,-1,-1,-1,0,-1,0,0
9.167750,2,2,-1,0,1,1,0,0,0
9.167753,-1,-1,-1,0,-1,-1,0,-1,0
9.179717,-2,-2,-2,-2,0,-3,-1,-1,0
9.179745,-1,1,-1,1,2,-3,-1,0,0
9.189305,-2,0,-2,-2,-1,-1,-2,-6,0
9.189311,1,1,-1,-1,0,-1,-1,2,0
9.203853,0,-1,1,0,-2,2,-1,-1,0
9.203859,-4,0,0,-2,-2,1,-2,-1,0
9.204632,0,-1,0,-2,0,0,1,3,0
9.204638,-1,0,-1,0,-2,0,-1,-1,0
9.225755,0,-1,0,0,-1,0,0,0,0
9.225774,0,1,0,-1,-1,-1,-1,-2,0
9.227209,0,-1,-3,-1,0,0,-2,0,0
9.227216,0,-2,-2,-2,0,0,1,0,0
9.239825,-2,2,-2,-1,-1,-1,1,0,0
9.239842,-5,0,-2,-1,-1,-2,-3,-4,0
9.249939,-4,-6,1,0,0,-2,0,-1,0
9.249944,0,0,-1,-1,0,-2,-2,0,0
9.271003,0,-2,0,-2,-1,1,-2,-5,0
9.271024,-3,-3,-4,-1,-1,0,-1,-2,0
9.273111,2,3,0,0,-1,-1,0,0,0
9.273117,-4,-1,-2,-2,-1,-2,-1,-5,0
9.286276,0,-1,-1,-1,-2,-1,0,-2,0
9.286294,1,0,-1,-3,0,-1,-1,-1,0
9.288441,-2,-1,1,0,-2,0,-1,1,0
9.288446,1,0,0,-1,-2,0,1,1,0
9.308435,-1,-2,-1,-1,-1,-3,-3,1,0
9.308459,-2,0,0,0,-1,1,-1,-2,0
9.310907,-3,-2,-3,-1,-2,-1,0,-3,0
9.310913,1,-1,1,-2,0,-1,-1,0,0
9.323186,-1,1,0,0,1,-3,0,0,0
9.323214,-2,-3,1,1,-2,-1,0,-1,0
9.330027,-2,-1,0,-1,1,0,-1,-1,0
9.330053,-1,-1,-2,-1,0,0,-1,-2,0
9.345646,0,-1,-1,-3,-2,0,-2,0,0
9.345665,1,-1,1,-1,-1,-1,1,-1,0
9.347313,3,1,0,0,0,-1,1,1,0
9.347339,-2,-2,-1,-1,-1,-1,-1,-4,0
9.368272,-2,-2,-1,-1,-1,0,-2,0,0
9.368303,-1,-2,-2,-1,0,-1,0,1,0
9.369889,-1,-1,0,-2,-1,-1,0,-1,0
9.369896,-3,1,-1,0,-1,-1,0,2,0
9.383094,1,-1,-1,-3,-1,-3,-1,-2,0
9.383115,-3,0,-1,-3,-3,0,-1,0,0
9.384746,-2,-1,-3,0,0,0,1,0,0
9.384759,0,0,-1,-1,0,0,-1,-1,0
9.405694,-1,0,-2,0,1,2,-1,0,0
9.405758,-3,-2,-1,0,0,-2,-2,-2,0
9.407188,0,-1,-2,-2,-1,-1,-2,0,0
9.407204,1,0,2,0,-1,-1,-2,2,0
9.428814,-1,-2,-1,-1,-1,0,1,-2,0
9.428833,-1,-2,-1,-1,0,-1,0,-1,0
9.430469,1,-1,-1,0,-1,-1,0,0,0
9.430479,-2,-1,-1,0,1,0,0,0,0
9.442899,0,1,-1,-1,-1,-1,-1,0,0
9.442916,0,0,1,-2,0,-1,-2,1,0
9.449401,-1,1,-1,-2,-2,-1,-1,-2,0
9.449426,-1,-2,-4,-2,-1,-2,-2,-3,0
9.467130,-5,-2,-1,-2,-1,0,-2,-6,0
9.467135,1,0,-2,-1,-3,-2,-1,-2,0
9.467137,0,-1,-2,-1,-1,0,0,1,0
9.467139,-1,-1,2,-1,-2,-2,-2,1,0
9.488446,-2,-1,-1,0,-2,1,-1,-3,0
9.488461,0,-2,-2,0,-1,0,0,-1,0
9.490704,-1,-3,-1,-4,-2,0,0,0,0
9.490709,1,-1,0,-1,-2,-1,0,0,0
9.502747,-2,-3,-4,-1,-2,-2,-3,1,0
9.502767,-1,-1,-1,-2,-2,-1,0,0,0
9.509524,1,0,0,2,1,-1,-1,0,0
9.509541,-3,0,-1,-1,-2,0,1,-1,0
9.527867,1,0,-1,0,1,-1,0,1,0
9.527916,0,3,1,-1,-1,-2,0,-2,0
9.527919,-3,-5,-1,1,-1,-2,-2,-3,0
9.527920,-1,-2,-3,-1,-1,-1,-3,-2,0
9.548516,-1,0,-1,-1,-2,-1,-1,3,0
9.548536,1,4,0,-2,-1,-1,-1,2,0
9.550460,0,0,2,4,0,-2,0,1,0
9.550465,1,-1,-1,0,-1,-1,1,-1,0
9.562505,-1,-1,-1,-2,-2,-2,0,1,0
9.562528,2,-1,-2,1,0,2,-1,1,0
9.569652,-4,0,-2,-2,-1,-1,-3,-1,0
9.569678,-3,-1,-1,-2,0,-1,-2,-2,0
9.586070,0,-2,-1,0,-2,-1,-2,-2,0
9.586099,-2,-3,-2,-1,-2,-1,0,-1,0
9.588739,0,2,-2,-2,-2,-1,-1,-2,0
9.588746,-2,-1,1,-1,-1,-1,-2,-2,0
9.608408,0,0,0,1,0,-3,-2,-1,0
9.608430,0,-2,0,-1,0,-1,-1,1,0
9.609719,-2,-2,-1,-3,-1,-1,-3,-4,0
9.609777,0,-1,-2,-3,-1,-2,-2,0,0
9.622814,-4,-2,-1,0,1,0,1,-3,0
9.622897,-2,-3,-2,0,-2,-3,-3,-2,0
9.629303,1,0,-1,-1,-1,1,0,1,0
9.629324,-1,-2,-2,-1,-1,-2,-1,-2,0
9.645957,-1,-2,-2,-1,0,-1,-2,-1,0
9.645978,-1,0,-1,-1,-2,0,1,0,0
9.648197,-3,-4,-1,-1,-1,0,-1,-2,0
9.648200,3,1,1,0,0,0,0,2,0
9.668442,-3,-3,-2,-1,0,-2,-2,-3,0
9.668454,-2,-2,-2,-2,-2,0,-2,-3,0
9.669535,-1,-3,-2,0,-1,-1,-1,-2,0
9.669541,-1,-3,-1,-1,-3,-1,-1,1,0
9.683212,-3,-2,0,-1,-1,-1,-1,-3,0
9.683218,-1,-1,-2,-1,1,-1,0,1,0
9.692126,-5,-1,0,-1,-1,-1,-2,-1,0
9.692134,-1,0,-1,-1,-1,0,-1,2,0
9.714467,0,1,0,-2,-1,-2,0,-1,0
9.714472,1,1,-1,-2,-1,-1,0,1,0
9.714580,0,3,0,-1,0,-1,-1,0,0
9.714602,-2,-1,0,0,-1,-1,0,0,0
9.730230,0,0,0,-1,-1,1,-1,0,0
9.730235,3,-1,-2,0,0,-1,-1,2,0
9.730238,-1,-2,0,-2,-1,-3,-2,-1,0
9.730240,-1,2,0,0,-1,0,-1,-3,0
9.741919,-2,-4,1,-2,-1,-1,0,3,0
9.743739,-2,-2,-1,-2,-3,-1,-2,-3,0
9.751131,0,1,-1,-1,1,-2,0,0,0
9.751136,-2,-4,-1,-1,0,0,-1,-3,0
9.765724,0,0,-2,-1,1,1,0,0,0
9.765747,-2,-1,-1,-2,-2,0,1,0,0
9.767199,-3,-2,-2,0,-1,0,-2,-2,0
9.767241,1,1,-2,0,1,-1,-2,-1,0
9.788533,1,1,-2,-1,1,-2,-2,0,0
9.788560,-1,-2,1,-1,0,0,0,-1,0
9.791315,1,2,-2,0,0,-1,-1,-1,0
9.791320,1,0,-2,-2,-3,-1,-1,1,0
9.802144,0,2,1,-2,-1,-1,-1,-1,0
9.802172,-1,1,-2,-1,1,-1,-2,-1,0
9.811266,-3,-3,-1,-2,-1,-1,0,-1,0
9.811270,-1,0,-1,0,0,-2,1,-3,0
9.825800,0,-2,0,-2,-2,-1,0,-1,0
9.825817,-2,1,-1,-1,0,-3,0,-3,0
9.827256,-3,-5,-1,-1,-2,0,0,0,0
9.827275,0,0,0,0,-1,-1,-1,-1,0
9.848159,-1,-1,-2,0,-1,-1,-2,-4,0
9.848186,-2,-1,-2,1,-2,0,-3,-1,0
9.849669,0,0,-1,-3,0,0,1,-2,0
9.849708,1,-1,-1,-1,1,-2,0,1,0
9.861947,0,1,0,-2,-1,-1,-1,0,0
9.861963,-2,-1,2,0,-1,-2,-2,0,0
9.871662,-1,-1,-2,-2,-2,-1,-2,-3,0
9.871668,-1,-3,-2,0,-1,-1,0,1,0
9.885831,1,2,-2,-1,-2,-1,-1,0,0
9.885886,-2,-1,2,0,-1,-1,0,-1,0
9.887489,0,1,0,0,-2,0,-2,3,0
9.887544,-3,-1,-1,-2,0,0,0,-3,0
9.908290,-1,-1,-1,-1,-3,0,0,0,0
9.908309,1,-1,-3,-1,1,-1,-1,-2,0
9.910310,1,0,-2,-1,0,-1,-1,-1,0
9.910316,-2,1,-1,-3,-3,-2,-2,-2,0
9.921669,-1,-3,0,0,0,-1,0,4,0
9.921691,-2,-1,0,-1,-2,0,-3,-7,0
9.931548,-3,-2,-1,-2,-1,-1,0,-1,0
9.931554,1,0,0,-1,0,-1,0,1,0
9.948132,0,-1,0,0,-1,1,-1,0,0
9.948137,-2,-2,-1,-2,-2,-1,-1,-1,0
9.948140,1,-1,-4,0,0,-2,-1,1,0
9.948141,-3,-2,-1,-1,-2,-1,-2,-2,0
9.968382,-3,-1,-1,-2,-1,-1,0,-2,0
9.968403,-1,-3,-1,0,-1,-2,-1,-1,0
9.970002,2,-1,-4,-1,2,-1,0,1,0
9.970007,-2,1,-1,-2,0,-1,0,-2,0
9.990769,-1,-3,-1,0,-1,-1,-2,-1,0
9.990788,-2,-1,-3,-3,-1,-1,-2,-3,0
9.992974,0,1,1,-1,-1,-1,-2,-2,0
9.992982,-1,-1,-2,-1,0,-1,-2,-2,0
10.006283,1,2,0,-1,-2,-1,-1,1,0
10.006308,-2,-4,-2,-1,-2,1,0,2,0
10.008656,-2,0,2,0,-2,-2,-1,-1,0
10.008663,-1,-2,-1,-1,0,-1,-2,-1,0
12.030482,-97,-21,-12,-12,-19,2,2,-27,2
12.031043,73,40,-1,-2,6,11,-2,3,2
12.031051,65,105,7,-1,-7,-6,-10,-41,2
12.031056,-59,-128,-9,0,-2,-4,-6,17,2
12.052881,57,43,-12,-2,2,10,27,-3,2
12.052906,-20,7,-1,-1,2,-14,0,-8,2
12.055350,29,54,-8,-4,-10,13,-24,33,2
12.055356,39,-52,3,4,27,8,-3,-3,2
12.074993,19,39,-1,-4,-6,13,-7,-8,2
12.075010,19,-1,0,3,-4,24,23,67,2
12.075876,-78,-40,-7,-2,-22,29,-6,-57,2
12.075897,-34,-94,-10,0,8,-36,-8,-37,2
12.089929,-24,31,9,6,1,-19,10,34,2
12.089954,-44,-102,-12,-3,3,56,-10,-49,2
12.090737,-35,-76,10,2,-2,-72,7,0,2
12.090813,85,47,-3,-6,-18,24,-4,-2,2
12.112457,-54,-10,-15,-4,-6,-9,-2,16,2
12.112484,14,-60,0,-2,7,5,-2,-44,2
12.113811,54,40,-8,2,8,20,4,11,2
12.113820,-14,-107,19,0,-10,27,2,-10,2
12.136646,10,-17,-20,-4,-3,-26,-25,4,2
12.136651,-94,123,13,0,2,4,14,-20,2
12.136653,20,-80,-8,-6,9,-4,-7,39,2
12.136655,115,127,-2,-2,-4,-15,21,-49,2
12.152176,-67,-35,-12,-10,-8,13,-10,6,2
12.152181,81,74,-5,1,-6,-21,-14,5,2
12.152183,-45,50,7,-2,4,2,28,13,2
12.152184,-31,124,-1,2,-4,4,-20,27,2
12.172615,-47,-112,14,5,4,9,16,-14,2
12.172645,71,34,-5,-6,-10,-26,-7,-17,2
12.175341,-62,-61,3,1,-4,-1,-4,-7,2
12.175354,68,29,-3,2,-3,-1,8,49,2
12.195241,-74,-61,-11,-3,-10,39,-14,-77,2
12.195264,45,77,20,13,17,3,1,52,2
12.197686,37,-5,-17,-9,4,5,-3,-15,2
12.197692,-79,-35,-7,-5,17,-17,-14,-10,2
12.210015,127,68,8,3,20,14,33,51,2
12.210033,-87,-65,-4,-3,-22,12,0,0,2
12.212547,-14,123,4,2,11,-7,-12,15,2
12.212557,-55,-99,-25,-7,-9,62,22,-5,2
12.232510,83,81,-7,-3,-1,-20,1,26,2
12.232532,-77,65,13,3,3,-5,-9,-30,2
12.232981,-8,-50,-16,-1,1,-4,-3,-20,2
12.232995,-47,-39,-4,2,-5,-7,7,0,2
12.255373,91,35,15,-1,0,-9,-11,-20,2
12.255402,-36,-97,-1,1,-2,-4,6,3,2
12.258138,78,87,-14,-9,-6,0,-8,19,2
12.258145,-120,8,-17,-2,-6,1,15,-30,2
12.270332,0,-30,12,5,-14,-9,-2,17,2
12.270362,3,55,-11,-7,23,1,-10,-2,2
12.271693,-6,-90,6,-2,-3,23,26,-3,2
12.271702,-17,29,8,4,12,-22,-27,-4,2
12.292552,28,-28,-7,-5,-14,0,5,-17,2
12.292570,48,20,4,2,19,11,17,6,2
12.293179,-111,-16,-1,-3,-4,8,-12,-13,2
12.293271,109,-46,7,0,-6,-30,8,41,2
12.314942,-84,89,25,10,10,-11,-11,-35,2
12.314962,-64,-125,-14,-6,-16,3,-13,-6,2
12.315869,108,24,-20,-6,-15,30,6,21,2
12.315873,-35,-26,10,1,-9,-25,0,-39,2
12.330163,-6,-11,5,2,-2,-20,-10,-25,2
12.330186,78,29,1,7,20,35,10,3,2
12.331975,-96,-28,3,-3,-14,-10,-21,34,2
12.331980,-35,82,-1,-1,4,0,18,-15,2
12.352519,-35,12,-18,-7,6,-4,-6,15,2
12.352563,11,35,2,0,-24,-13,0,1,2
12.353008,98,49,23,11,-7,-21,7,-21,2
12.353021,7,-7,-16,-5,16,18,-56,3,2
12.374991,-65,-115,-25,-6,-5,-11,7,-4,2
12.375010,-5,18,-4,-9,-8,-8,-1,15,2
12.376607,13,-20,7,9,8,-16,-11,6,2
12.376612,43,49,2,-2,-22,-3,1,7,2
12.390199,55,16,1,2,1,10,1,14,2
12.390229,-23,19,-2,-5,-7,-11,-9,-17,2
12.392000,-36,-67,-1,1,3,-7,4,-3,2
12.392013,33,85,21,7,-6,9,12,-15,2
12.414243,99,101,-17,-10,17,-3,-18,2,2
12.414252,-8,20,-1,-2,-1,-10,9,16,2
12.414254,-87,-72,-21,-10,6,12,-6,-39,2
12.414255,-3,-34,5,0,-30,-6,8,25,2
12.435098,-3,50,11,3,3,-13,-14,11,2
12.435120,-3,40,14,7,-5,22,12,-21,2
12.436607,-14,37,-7,-7,-2,-20,-4,-12,2
12.436615,-7,-128,-19,-8,-4,0,-25,2,2
12.449920,-82,-35,1,5,-4,-3,1,14,2
12.449945,34,6,-2,-2,2,-16,-4,29,2
12.450975,-11,43,4,2,0,2,5,-22,2
12.450979,48,95,9,3,-4,6,3,16,2
12.474663,-98,-104,-9,-5,6,-10,7,-10,2
12.474670,11,3,-10,-2,2,2,-2,10,2
12.474672,55,-53,2,1,4,12,-2,27,2
12.474674,-27,58,4,1,3,-1,6,-4,2
12.495334,77,83,8,-2,-1,14,4,-9,2
12.495364,-16,-109,-5,-3,-6,-20,-6,21,2
12.495797,-40,40,11,0,0,18,0,-6,2
12.495816,26,53,-3,2,10,0,1,7,2
12.509690,-35,-9,-11,-2,7,2,14,0,2
12.509707,8,31,-8,-4,-17,-12,-18,2,2
12.519725,54,-78,7,3,1,-7,7,4,2
12.519731,-73,34,-2,-6,-21,-3,-12,-19,2
12.533520,46,26,10,2,20,0,12,26,2
12.533579,-13,-24,-7,-7,-2,16,14,-16,2
12.533583,-51,-91,-26,-10,-15,-10,-7,-32,2
12.533587,45,83,17,5,22,6,2,44,2
12.555600,-55,-70,-9,2,-14,-5,-2,-32,2
12.555634,43,71,26,5,11,9,-4,-8,2
12.557595,-12,60,2,1,-15,-56,-10,-26,2
12.557600,-78,-67,-7,-3,3,6,4,23,2
12.570780,-23,31,-10,-3,-11,8,-11,-9,2
12.570801,-20,-100,-12,0,5,-9,4,-4,2
12.573474,20,35,7,3,8,1,-8,13,2
12.573484,49,-82,-19,-8,4,-3,8,-26,2
12.592529,-1,-40,1,-1,-16,26,9,-12,2
12.592553,-28,-33,-9,-3,15,0,-23,29,2
12.594612,80,11,-5,-3,-4,2,-1,12,2
12.594616,-86,-15,1,-1,5,-12,2,-3,2
12.615059,81,111,18,4,-4,5,-3,40,2
12.615078,-26,13,-1,0,7,3,10,-88,2
12.615455,2,-24,-6,-3,-1,4,6,20,2
12.615497,2,-27,-11,-7,2,-3,-10,0,2
12.630077,1,60,6,2,-6,10,-9,-12,2
12.630093,21,0,-19,4,4,-30,-1,26,2
12.631179,62,46,21,-3,-10,-1,-2,14,2
12.631184,10,32,8,5,-13,9,15,-26,2
12.652740,-21,-52,-2,0,5,2,-16,-10,2
12.652763,26,39,-12,-3,-6,1,2,7,2
12.654523,4,47,-11,2,10,16,11,-6,2
12.654527,53,72,9,-2,-6,-11,-14,42,2
12.675648,-51,26,-6,-4,4,-12,0,-68,2
12.675658,-6,-32,19,2,-1,-12,3,13,2
12.675835,-64,32,-28,-7,1,-15,-11,4,2
12.675850,3,-28,16,7,-11,23,11,-13,2
12.692577,-60,-63,-20,-12,-1,-20,-13,-15,2
12.692586,2,-15,10,1,-1,66,-18,-21,2
12.692588,13,52,23,7,-2,-52,20,33,2
12.692589,-9,25,-5,4,35,33,13,-2,2
12.712967,62,-53,-11,-5,-23,-1,4,54,2
12.712997,-22,-29,-11,-8,-11,-19,-40,-45,2
12.714610,-27,-41,-8,-3,4,24,7,-39,2
12.714615,35,38,7,2,6,3,6,19,2
12.735824,45,40,13,9,7,-18,-4,-20,2
12.735854,-38,80,-2,1,-8,5,17,30,2
12.738187,54,-63,32,4,-2,3,-16,20,2
12.738193,-86,47,-26,-15,-16,-27,-4,-42,2
12.749219,29,43,14,6,10,26,13,30,2
12.749242,-2,14,-10,-1,-20,-20,-1,-8,2
12.765035,17,105,-1,-1,28,19,3,-13,2
12.765063,26,-60,-7,-1,4,-38,-5,11,2
12.772942,-22,-99,-11,-4,3,0,-9,-26,2
12.772969,5,0,-8,-8,10,8,6,20,2
12.775190,-70,53,4,1,-17,-76,-6,-30,2
12.775197,29,-29,4,3,-8,22,-2,26,2
12.795178,-55,33,3,3,26,4,-7,-10,2
12.795200,80,16,2,-1,-47,-14,19,11,2
12.796882,-17,91,-2,-3,6,50,-27,-17,2
12.796891,-19,-70,-14,-3,-1,-16,18,-16,2
12.809396,-68,-8,3,1,-10,2,19,17,2
12.809415,3,29,11,4,20,-3,1,1,2
12.818084,-26,-25,-6,-1,-13,20,10,2,2
12.818118,-25,-32,8,4,-1,15,-23,-5,2
12.832459,28,127,-7,-3,-8,-2,-10,-3,2
12.832482,-38,-108,-12,-5,4,-15,11,9,2
12.833040,-64,-114,-18,-1,-2,17,-12,-10,2
12.833054,73,59,8,-4,3,-10,-8,-8,2
12.855456,-22,-28,0,4,-7,-4,4,17,2
12.855496,63,58,-5,-3,-4,4,-5,13,2
12.857504,19,-50,0,1,18,-2,3,7,2
12.857510,-6,-6,-1,-2,3,2,15,9,2
12.869775,53,-29,5,-4,-13,-6,-22,8,2
12.869805,-26,7,8,6,6,3,0,-5,2
12.877685,27,21,-1,-2,2,5,-3,5,2
12.877700,43,106,9,5,-11,-9,-12,0,2
12.892503,38,30,-4,-10,11,-1,25,-3,2
12.892525,-93,-20,-18,-14,-16,-2,-4,-18,2
12.893163,-2,12,-1,0,-9,-30,2,1,2
12.893182,13,80,13,2,5,6,5,21,2
12.915665,-50,109,20,17,-1,-8,-17,-19,2
12.915687,40,-93,-27,-11,7,3,6,-17,2
12.917754,9,80,-6,-11,-23,-31,-38,-14,2
12.917758,66,42,2,-4,13,11,4,22,2
12.929452,-35,-128,0,0,-1,-6,-7,-10,2
12.929474,3,34,17,14,7,16,-8,14,2
12.937581,1,-5,-3,4,-4,25,22,19,2
12.937610,-2,-40,1,-4,-14,-12,-5,-17,2
12.953877,127,-28,-3,-3,12,48,-2,45,2
12.953886,-106,72,7,3,6,13,-15,-79,2
12.953890,30,-108,-4,-3,-30,33,11,-23,2
12.953894,-75,-27,-17,-4,36,34,17,-28,2
12.974942,-28,13,-5,-4,-17,-19,12,10,2
12.974960,38,-30,2,0,8,12,-2,18,2
12.976775,54,99,25,9,7,5,-6,2,2
12.976783,-85,-29,-17,-5,-22,-20,-12,-6,2
12.989477,-32,-104,-19,-6,2,8,-13,-15,2
12.989502,35,60,11,6,2,-8,32,25,2
12.999135,0,40,-5,-8,1,-14,-6,8,2
12.999140,-13,-75,9,6,-2,0,-1,9,2
13.014951,-103,-9,-1,-4,3,-11,-7,-35,2
13.014956,67,39,-27,-12,-20,-33,-16,35,2
13.014958,-11,25,2,2,25,11,2,-44,2
13.014960,67,39,4,3,-4,5,3,-21,2
13.043293,-75,-67,-30,-12,9,8,-6,-7,2
13.043363,57,82,15,4,-17,-26,7,-4,2
13.045294,-1,-20,-8,0,0,10,11,21,2
13.045301,25,62,12,4,8,-2,-9,0,2
13.049472,17,-51,1,-1,1,29,16,-3,2
13.049491,-28,-26,7,-3,0,9,-53,-22,2
13.057676,23,70,-5,-3,2,-73,17,59,2
13.057699,-108,-105,-13,-4,-8,-15,-8,-49,2
13.072773,63,1,-5,-7,-32,2,-8,-11,2
13.072804,-61,95,11,-3,26,26,0,13,2
13.074884,42,-47,2,5,1,30,11,17,2
13.074894,-37,15,-2,-1,-12,-18,0,-15,2
13.094824,-7,-15,0,7,1,-11,-4,15,2
13.094845,34,36,20,3,8,19,4,9,2
13.095551,67,-125,-20,-9,-6,-1,-11,-9,2
13.095568,41,106,5,4,7,-8,2,118,2
13.118223,-35,-12,6,1,-12,-21,-8,-99,2
13.118254,-54,-96,-11,-10,5,-22,0,12,2
13.119732,-98,-7,8,0,-6,-6,-3,7,2
13.119735,54,-61,-7,1,13,18,23,15,2
13.132436,50,127,18,6,1,34,-33,24,2
13.132459,-62,-65,-22,-5,-12,0,16,-9,2
13.133354,-21,111,6,2,5,28,0,-18,2
13.133358,66,-128,-14,-10,-10,1,-17,-15,2
13.154823,-27,95,14,3,11,21,20,47,2
13.154830,105,55,7,7,-9,-45,27,-19,2
13.155601,-86,-24,-18,-9,-6,9,-23,-7,2
13.155620,-9,127,18,5,-3,3,-5,0,2
13.178320,100,73,5,1,8,13,13,16,2
13.178344,-95,-56,-8,1,2,-40,0,11,2
13.179968,49,-59,-10,-1,3,-8,26,45,2
13.179976,-71,81,-6,-2,-4,-12,-66,-50,2
13.192592,-23,-11,-14,-9,-9,3,-2,25,2
13.192611,-13,-56,6,1,5,10,11,-13,2
13.194296,-23,-33,0,4,-6,-17,8,-2,2
13.194302,40,52,16,2,12,-26,1,32,2
13.215153,30,-126,-15,-2,-15,18,2,2,2
13.215177,-6,45,9,4,-15,35,8,-13,2
13.217815,51,-47,-1,1,13,14,-27,61,2
13.217824,79,37,-9,-11,-17,-20,-40,-30,2
13.238237,22,-30,-5,-6,0,-56,-19,-21,2
13.238252,18,37,3,2,6,14,4,7,2
13.240127,-98,-36,-11,-10,-3,6,-14,-64,2
13.240132,17,16,4,1,-5,9,17,25,2
13.252682,11,22,1,-1,9,-5,16,-22,2
13.254144,-6,1,-7,-1,-12,6,-13,24,2
13.254148,-23,77,9,6,0,13,13,-39,2
13.254150,42,37,8,-4,2,4,23,26,2
13.275057,34,-80,-4,-4,-6,-32,-4,0,2
13.275079,-9,6,9,5,10,36,9,13,2
13.276921,-45,-38,-10,-8,-16,-15,-4,-7,2
13.276930,-42,-87,-12,1,33,17,9,18,2
13.298121,0,127,27,15,-2,49,-5,10,2
13.298139,-100,-128,-33,-20,-7,-71,-6,-40,2
13.298842,6,127,2,2,-13,19,-2,-20,2
13.298854,-40,72,4,1,5,6,3,-7,2
13.312437,-28,34,-5,-1,-1,7,-4,-24,2
13.312457,83,4,2,-1,3,-2,16,18,2
13.313496,-20,19,12,2,9,-11,-5,-1,2
13.313516,21,-35,-11,2,-19,35,29,-22,2
13.335100,2,50,9,-5,-13,-80,-32,23,2
13.335129,-33,-48,-5,-3,-8,13,2,-12,2
13.336290,24,18,-6,-5,28,6,1,10,2
13.336294,55,0,8,1,-2,33,2,-38,2
13.358160,-26,-34,-6,-2,11,-68,2,57,2
13.358177,-35,92,13,1,-16,-20,-20,-52,2
13.358827,99,-7,-3,0,1,-4,2,21,2
13.358842,-53,-20,-8,-3,-9,-13,3,-8,2
13.372390,40,-2,1,1,-9,16,14,5,2
13.372409,42,50,8,8,20,-3,-16,10,2
13.373200,37,-6,15,0,-9,18,14,21,2
13.373218,-128,-57,-10,-6,-3,-2,-6,-43,2
13.395238,113,-24,-9,-2,-31,-20,0,44,2
13.397289,28,32,4,2,3,5,-13,-19,2
13.397298,12,68,9,8,6,11,-3,-15,2
13.397302,-21,-128,-13,-11,-29,-38,-15,14,2
13.419464,-28,29,1,0,29,34,21,14,2
13.419470,-5,54,-1,0,3,-12,-16,-27,2
13.419472,-15,-97,3,-1,-3,-6,1,-6,2
13.419474,18,-50,-3,1,-3,-8,1,4,2
13.435092,-9,81,15,-1,7,37,0,-33,2
13.435098,92,45,3,0,-4,28,8,45,2
13.435100,-79,-5,1,2,-3,-10,5,5,2
13.435102,98,-24,11,2,0,-15,-7,28,2
13.455195,-97,-13,-8,1,1,-4,-7,-10,2
13.455218,21,-123,-32,-12,-5,17,2,-23,2
13.457471,-19,88,5,0,7,-8,1,0,2
13.457477,32,51,7,5,12,6,-6,-10,2
13.478581,34,5,5,-2,-10,-6,6,31,2
13.478588,19,61,-2,-5,14,-4,-9,5,2
13.478925,39,-84,-14,-4,-5,-3,-1,12,2
13.478932,-84,-2,-5,-5,-5,-12,-9,7,2
13.492457,71,16,-4,1,-2,-2,7,-9,2
13.492484,-84,28,10,5,4,4,4,-16,2
13.494456,-3,72,8,0,4,-14,-13,-6,2
13.494463,18,57,-13,-8,-7,20,1,-24,2
13.515005,-9,16,-10,-4,1,63,-1,-25,2
13.515025,-36,-25,-1,1,-12,-64,2,1,2
13.515951,10,64,2,-6,4,-7,-11,0,2
13.515954,23,-81,-3,1,-15,16,15,6,2
13.538553,-47,19,2,0,4,2,8,-28,2
13.538651,24,63,4,0,13,51,0,19,2
13.541673,94,-40,1,4,-4,-16,6,3,2
13.541680,-35,-12,2,4,14,47,-3,31,2
13.552667,-56,-128,-33,-14,-27,-74,-3,-16,2
13.552696,18,35,16,3,25,27,-5,3,2
13.555782,-24,12,2,2,-10,-5,3,-14,2
13.555789,86,127,17,8,22,12,5,35,2
13.574887,-58,-73,-17,-11,-11,4,0,15,2
13.574905,35,33,-15,1,-18,-2,-16,-70,2
13.576023,34,54,-1,-1,0,8,-1,-5,2
13.576038,-18,67,13,3,0,-25,-2,-4,2
13.598113,29,-12,-7,1,11,-6,3,12,2
13.598130,-51,-11,-3,-6,-11,-32,-15,24,2
13.599098,-26,5,-8,-2,0,37,19,-9,2
13.599102,-23,-37,-2,-2,-8,-6,20,-16,2
13.612919,32,-6,0,-5,4,-18,-19,-8,2
13.612949,-22,-96,-5,-2,-3,27,4,-2,2
13.615288,33,-9,0,4,-1,-47,-11,15,2
13.615292,-13,51,-6,-6,4,-31,-19,4,2
13.635153,-82,-40,-16,-7,-11,14,5,-8,2
13.635166,44,28,15,3,-28,-19,8,20,2
13.635634,12,-19,-12,-3,35,39,-5,5,2
13.635730,-11,-68,-3,-3,-28,-14,6,15,2
13.658148,35,121,24,9,37,2,-17,-24,2
13.658167,7,-35,-17,-9,-8,4,-12,11,2
13.660113,73,82,8,-2,12,87,46,9,2
13.660120,-34,104,-5,-1,-29,-85,-21,-56,2
13.672320,26,-61,3,6,1,18,-12,-13,2
13.672367,28,-10,6,1,5,14,29,65,2
13.680572,-68,62,10,-1,-14,-19,-23,-42,2
13.682720,-60,-70,-13,-5,15,33,8,17,2
13.697210,-97,127,11,-1,-5,-10,2,-12,2
13.697219,27,-18,4,4,5,-9,2,4,2
13.697223,72,53,1,-5,-14,-22,-12,16,2
13.697228,6,-58,-5,-1,-8,32,35,-10,2
13.718004,18,14,0,1,13,-64,-10,19,2
13.718022,77,91,20,0,-5,-21,6,-6,2
13.719934,-25,22,0,11,-2,-13,-4,-42,2
13.719938,25,-44,-31,-14,-6,2,-21,-10,2
13.732116,38,86,7,-1,-2,11,2,-13,2
13.732136,-24,-66,-5,0,-2,17,4,27,2
13.740337,10,-80,-4,-1,10,-14,3,22,2
13.740385,-11,20,0,-2,3,0,-11,4,2
13.755908,10,-21,8,9,2,15,21,26,2
13.755940,-24,49,-7,-11,-6,-2,-22,-40,2
13.758315,-67,-27,-13,-6,-14,-7,4,-6,2
13.758329,75,-76,-10,0,12,10,-5,16,2
13.778403,-77,-37,6,-1,-6,10,-18,2,2
13.778426,-16,87,4,8,4,6,20,3,2
13.779101,-2,-128,-18,-5,6,-7,-11,43,2
13.779222,30,52,20,7,-15,0,-15,4,2
13.792016,72,114,21,3,-9,-1,5,-27,2
13.792024,-9,-60,-10,-5,4,-2,-6,-6,2
13.800107,-41,3,10,2,-5,1,2,10,2
13.800130,9,127,6,-1,5,-14,-10,6,2
13.814970,-17,-121,0,5,-1,22,20,7,2
13.814994,24,124,-11,-7,3,51,-36,0,2
13.816147,-64,-89,-8,-3,-12,-59,4,-10,2
13.816151,9,106,-5,-1,4,18,7,-28,2
13.838159,-29,-78,-23,-4,2,-17,-3,14,2
13.838182,-15,80,-1,2,6,18,10,1,2
13.838771,-6,2,11,2,-8,22,-8,-1,2
13.838797,64,77,6,-1,0,-19,-7,3,2
13.853900,-62,56,-9,-5,-12,5,-2,-17,2
13.853906,-45,-128,-7,12,5,-13,-6,35,2
13.860334,-37,127,-13,-9,-9,2,-5,5,2
13.860356,-21,38,6,4,0,-1,10,43,2
13.875031,98,-38,-3,-12,2,15,19,-25,2
13.875049,26,40,-2,2,-6,-26,-6,2,2
13.876914,-30,113,21,4,4,22,41,-8,2
13.876920,42,-128,-21,-1,7,3,-15,19,2
13.899751,34,-1,-4,-9,-9,-4,-32,-62,2
13.899757,16,-64,4,-2,0,-16,5,-8,2
13.899759,8,59,5,3,0,4,1,-17,2
13.899760,-62,-43,-2,-5,-6,4,4,-33,2
13.912197,44,94,1,5,2,-1,-1,47,2
13.912221,-75,52,-1,-4,-12,-10,1,-30,2
13.920238,-10,17,-10,-6,22,32,-27,-2,2
13.920259,15,-29,3,1,-8,6,0,-4,2
13.934818,5,-71,1,5,2,-40,-1,12,2
13.934834,-57,-49,-15,-16,-7,-9,-5,-14,2
13.936287,39,101,16,16,-4,37,2,19,2
13.936290,-1,58,-7,-7,2,25,0,-7,2
13.959428,-31,-81,-13,-2,-7,-1,6,-12,2
13.959438,47,26,12,1,9,13,-12,-6,2
13.959440,-16,11,-3,-5,-8,-31,-15,-68,2
13.959442,-91,-54,-4,-4,4,-22,8,28,2
13.971934,67,39,-4,-2,0,36,6,-25,2
13.971964,-16,108,6,5,0,-13,29,13,2
13.980325,-7,-128,-12,-6,0,-13,-9,18,2
13.980348,0,48,14,7,-1,3,9,-16,2
13.995560,-34,30,2,3,10,7,-7,25,2
13.995582,55,-87,0,0,0,13,4,-13,2
13.996156,4,42,-1,3,-13,-17,5,14,2
13.996172,16,-11,-8,-4,6,-57,-19,0,2
14.019115,-29,113,16,3,-4,-4,4,19,2
14.019143,10,21,-12,-5,-18,-25,2,-56,2
14.021402,-95,-10,-12,-7,-5,32,-7,26,2
14.021409,54,9,7,3,1,-35,4,11,2
14.040982,-12,70,7,0,0,-2,-15,-43,2
14.041063,-30,-15,7,4,11,0,4,30,2
14.041418,73,-106,-5,-3,-8,-12,-7,2,2
14.041434,-35,2,-13,-8,-6,20,1,-17,2
14.055332,-8,-25,5,2,3,1,-2,-17,2
14.055348,37,-54,-5,-4,0,4,-5,28,2
14.055522,6,-68,-2,-2,-1,-4,-1,-21,2
14.055534,-27,-6,1,6,10,24,3,-7,2
14.078236,60,98,6,0,-1,-2,3,28,2
14.078265,15,40,0,-2,-4,8,-4,10,2
14.080406,2,116,4,3,11,-4,-6,-32,2
14.080414,-63,-56,-3,2,-10,6,2,2,2
14.100581,10,65,-2,-3,-7,-1,-2,-12,2
14.100596,-72,-89,-12,-6,0,-7,0,-18,2
14.101268,49,82,-2,-9,-12,14,-39,5,2
14.101282,-5,73,14,4,14,1,-11,-9,2
14.114800,-2,-51,2,3,2,-6,38,38,2
14.114807,-15,127,5,5,20,20,24,-6,2
14.115529,6,-119,-1,-1,-17,-36,7,12,2
14.115543,26,82,2,-3,1,24,-6,-24,2
14.138099,-35,34,4,-5,-9,9,-8,39,2
14.138117,-14,1,-17,-8,-7,-25,-27,-49,2
14.139968,61,82,3,6,8,7,8,-6,2
14.139975,46,19,-6,-19,-10,2,5,0,2
14.160597,-21,65,11,13,15,-10,-5,-24,2
14.160604,44,95,6,6,-10,9,3,0,2
14.161197,28,-72,-6,-8,-1,-3,1,4,2
14.161211,-5,-63,-7,-1,-2,19,-2,16,2
14.176612,-18,39,-1,-4,-12,-33,-4,-13,2
14.176623,-67,-15,1,0,-2,-6,-16,-11,2
14.176625,25,-95,-19,-5,0,28,24,6,2
14.176627,-42,-33,2,-1,-6,-1,22,13,2
14.198080,-30,-45,-9,-3,4,7,-17,1,2
14.198098,38,75,14,5,-3,-8,-5,32,2
14.198952,4,54,10,3,6,-45,-8,14,2
14.198955,18,-27,-3,4,0,16,36,18,2
14.220935,-37,74,4,-1,-7,6,-2,-24,2
14.220958,-48,-111,-22,-16,-12,52,-14,-23,2
14.223312,-38,-72,-5,-3,18,-70,-5,-57,2
14.223320,26,109,5,5,-11,-6,-15,14,2
14.235573,13,-128,-12,-1,-2,7,1,16,2
14.235602,59,17,6,3,-11,-6,1,11,2
14.238262,-39,-7,-3,-2,6,21,0,6,2
14.238270,-33,-6,2,2,4,-5,-7,-22,2
14.258057,110,54,2,-6,-5,-1,4,7,2
14.258079,-75,-79,0,5,20,-14,0,-4,2
14.258877,-6,62,0,-1,-20,57,-2,-13,2
14.258904,27,-15,-5,2,3,-31,4,18,2
14.280666,14,-47,-10,-8,-7,11,-5,20,2
14.280686,1,12,3,0,3,-13,-1,28,2
14.281634,-19,79,23,10,-1,4,9,-30,2
14.281638,-12,4,-4,-3,4,6,-8,-12,2
14.295808,6,-5,-7,-8,5,3,-2,18,2
14.295829,45,14,19,11,3,9,10,12,2
14.298717,-61,-3,-2,-5,-10,-10,-8,-4,2
14.298728,56,127,22,11,2,3,-10,6,2
14.318253,-94,-128,-45,-19,8,-8,-18,-10,2
14.318268,88,127,-4,-3,-18,24,25,-43,2
14.318945,-18,108,-5,-3,-1,40,0,19,2
14.318964,80,72,4,0,5,-8,-3,1,2
14.340904,-66,-41,-13,-4,-7,13,19,5,2
14.342788,19,55,1,2,-2,-32,-53,29,2
14.342798,-12,23,-3,-2,1,-14,3,-16,2
14.342800,-18,16,11,6,2,16,-3,1,2
14.354455,65,20,14,8,-4,-5,9,-8,2
14.354484,37,-40,0,-4,6,3,3,25,2
14.363917,-12,-94,-7,-2,-6,-6,27,-2,2
14.363922,-37,-12,-4,-2,-1,-15,-13,-16,2
14.378931,49,65,10,11,-3,70,4,1,2
14.378937,-39,-28,-28,-15,29,-51,19,23,2
14.379582,70,-39,-4,1,-6,-59,-33,6,2
14.379596,14,-87,-10,-8,-20,-7,9,4,2
14.400777,-79,37,-2,-3,-13,-26,-7,-45,2
14.400798,-11,33,15,8,5,21,-7,1,2
14.402967,45,22,-4,-4,0,50,12,22,2
14.402971,-93,54,-3,1,6,-14,7,-39,2
14.414661,75,-86,10,2,9,-12,-4,43,2
14.414690,63,-116,-22,-8,-9,13,0,-4,2
14.425135,-41,101,8,-1,1,-33,-12,-3,2
14.425146,37,-128,-29,-11,-8,9,-16,19,2
14.440755,15,-22,13,4,9,5,15,11,2
14.440762,-49,-93,-16,-7,-10,-5,-11,-76,2
14.440764,-43,45,-5,0,-2,9,6,21,2
14.440766,35,127,18,7,2,9,7,-7,2
14.460544,38,90,13,5,1,-14,-19,40,2
14.460565,73,-8,10,1,-6,-14,6,-50,2
14.463377,-73,-57,-13,-5,8,-13,-3,-5,2
14.463382,-102,-38,2,-3,-22,24,0,-2,2
14.474444,-12,-17,-7,0,9,-11,8,-12,2
14.474461,15,21,10,4,-4,24,2,16,2
14.483726,38,16,13,7,1,-8,-11,7,2
14.483735,27,-68,-14,-9,-1,-15,6,19,2
14.498840,57,54,11,3,-2,2,-10,-30,2
14.498861,-31,42,-10,-6,-1,2,-8,48,2
14.502619,-32,-61,-2,-10,-1,9,13,-6,2
14.502629,5,-17,-4,6,3,-10,-10,7,2
14.521310,14,105,8,0,-4,-1,-2,-13,2
14.521334,11,-68,4,1,3,0,4,18,2
14.522505,39,-7,2,0,-3,-1,-1,13,2
14.522526,18,72,9,0,3,0,-1,-24,2
14.534251,63,98,7,4,-18,2,22,67,2
14.534329,-65,30,-21,-8,32,-11,-54,-54,2
14.544535,20,33,0,-3,-24,-11,16,9,2
14.544543,15,-72,-1,-2,3,2,13,-18,2
14.558203,6,-87,-18,-4,1,-5,-7,-10,2
14.558221,-19,9,3,-4,-16,-16,18,18,2
14.559719,28,63,2,3,10,17,-12,11,2
14.559743,45,50,3,-1,6,0,-13,-23,2
14.580694,-18,-27,-2,-3,-17,-13,8,-9,2
14.580715,-66,50,15,9,13,4,-18,-25,2
14.582143,65,-101,-9,-5,2,27,24,-24,2
14.582176,7,-50,-7,3,-2,43,12,22,2
14.594622,17,44,-4,-7,4,0,-2,-9,2
14.594628,-16,78,4,2,4,-2,3,2,2
14.606371,74,-44,-6,-2,-13,-11,-6,33,2
14.606381,-14,72,0,-2,-16,-15,-7,11,2
14.618592,0,-47,-5,-2,15,10,-10,-49,2
14.618622,21,114,6,-2,-10,5,24,28,2
14.621357,-7,117,14,7,19,-11,-23,-9,2
14.621362,-13,33,0,-1,-4,6,-1,9,2
14.641460,-57,-102,-8,3,1,-6,-11,-18,2
14.641467,12,-32,12,3,-7,-1,21,1,2
14.642271,-60,-128,-38,-10,-4,2,1,6,2
14.642294,-6,53,-1,-8,4,-15,-15,-23,2
14.657178,-23,127,4,2,3,-8,-5,-11,2
14.657185,25,-102,-1,3,-6,7,10,35,2
14.665376,-7,-34,11,5,-3,-4,-13,-23,2
14.665382,56,8,3,-3,4,-11,-7,-20,2
14.678582,-110,-55,-15,-7,3,1,-11,-27,2
14.678615,60,127,8,3,-6,7,18,39,2
14.681025,-10,-77,-19,-6,2,0,-7,22,2
14.681031,0,95,4,2,5,-4,7,6,2
14.701419,25,99,13,3,-10,-5,-5,6,2
14.701451,-20,-68,-17,-5,6,2,-4,-17,2
14.703992,31,61,14,1,-22,-14,4,24,2
14.704003,-95,-78,-5,-1,32,9,-8,-9,2
14.714445,31,-70,-1,2,-7,4,10,26,2
14.714478,-28,26,5,-3,-4,-4,-5,-15,2
14.725422,-16,-27,-10,-2,-2,-3,12,-4,2
14.725429,-35,-31,-4,-1,-16,-19,-57,-20,2
14.738611,-11,74,0,-4,4,-14,4,4,2
14.738656,27,75,8,2,0,8,9,23,2
14.739696,18,30,6,3,11,-7,-11,-13,2
14.739721,-16,-47,-8,-3,-6,38,-7,-11,2
14.760932,18,-91,-9,2,-11,-47,20,26,2
14.760948,11,16,-1,0,-4,-4,-9,-10,2
14.763378,37,123,11,-2,10,-4,1,-4,2
14.763386,-14,-23,0,3,-2,5,1,11,2
14.774640,15,3,-1,-3,1,21,-6,-2,2
14.774659,56,37,18,16,15,2,17,44,2
14.785443,-104,-51,-26,-17,-14,-6,-14,-45,2
14.785449,47,-50,-6,2,0,-23,11,22,2
14.798059,-45,80,4,-3,4,33,2,-26,2
14.798081,-24,-84,-18,-8,-8,-11,-5,12,2
14.799745,18,52,14,11,1,15,-2,-23,2
14.799777,-34,31,3,-4,12,-12,13,-8,2
14.822096,24,8,-1,0,-4,-4,-5,-3,2
14.822118,-15,-4,7,0,-3,7,-7,-13,2
14.825263,9,9,5,3,1,4,5,10,2
14.825270,98,88,15,4,0,6,34,-11,2
14.834401,-51,48,-6,-6,0,-25,-74,1,2
14.834424,-3,101,-9,-5,-6,35,-11,-11,2
14.843176,19,-73,-15,-7,-28,-79,14,7,2
14.843193,28,115,5,4,45,3,8,13,2
14.858569,25,-106,-8,-3,-16,7,13,16,2
14.858576,-50,4,-11,-9,-28,-43,-21,-3,2
14.859609,22,63,17,10,18,32,-1,-15,2
14.859626,37,60,-2,-10,-10,1,-3,14,2
14.881387,-8,-74,-12,4,9,-7,1,-11,2
14.881412,0,-24,-1,-3,9,-6,4,-3,2
14.883716,31,16,4,2,-8,8,2,-24,2
14.883720,-27,-4,2,0,-9,-7,6,15,2
14.894866,47,1,2,-2,13,16,10,17,2
14.894888,2,16,9,2,-18,-6,6,-18,2
14.905194,16,-82,-25,-13,17,55,-14,20,2
14.905202,-55,20,-2,-1,-11,-28,11,-4,2
14.918603,-32,38,-3,-4,-7,-2,14,1,2
14.918636,-32,-104,3,5,7,7,3,5,2
14.921663,37,127,20,9,-2,7,2,18,2
14.921670,-19,-128,-22,-11,16,-2,-21,-31,2
14.940999,-62,0,-2,1,-2,5,33,-4,2
14.941016,12,56,0,0,5,12,5,0,2
14.942453,48,90,3,-1,4,-4,-8,4,2
14.942526,-24,40,5,4,-15,-19,-9,-3,2
14.963071,24,-36,-17,-8,1,14,2,-15,2
14.963091,-35,-2,-15,-12,2,-3,-18,-34,2
14.964740,10,-70,-7,0,-1,-5,2,20,2
14.964752,-6,-42,5,3,-8,23,-3,6,2
14.977316,-26,52,0,-2,0,-16,11,6,2
14.977333,78,22,-2,-1,-4,-18,-25,7,2
14.987647,-128,-49,-3,-1,1,3,-1,-5,2
14.987652,46,49,3,0,-6,6,19,30,2
15.000676,73,2,9,2,5,8,-12,-34,2
15.000695,6,-80,-16,-6,-5,1,33,-1,2
15.002054,1,46,5,4,6,-16,-1,19,2
15.002117,-63,57,0,2,-3,2,-1,-10,2
15.023188,-10,48,-7,-5,-5,-2,-12,-27,2
15.023210,47,55,9,2,1,-5,-2,1,2
15.025447,2,64,6,0,-22,-3,-5,-7,2
15.025458,-34,-128,-18,-4,29,-3,-1,-8,2
17.048115,-2,-5,-2,-3,0,0,1,1,0
17.048551,-1,0,-1,-1,-1,0,0,-2,0
17.050464,1,4,2,0,1,-3,-2,-1,0
17.050469,-2,-3,-7,-3,-1,0,-1,-2,0
17.062648,-1,1,0,1,-2,-1,0,0,0
17.062667,-2,-5,-1,1,0,-1,0,-2,0
17.072006,-2,3,-2,-2,-1,1,0,0,0
17.072011,-3,-1,4,0,-2,-1,-2,-1,0
17.086863,0,3,-3,1,-1,-1,-2,-1,0
17.086868,-2,-3,1,-2,1,-1,-1,-2,0
17.087049,-1,6,4,0,-1,-3,-1,-1,0
17.087056,-1,-2,-2,-4,-1,-2,0,-1,0
17.108205,1,-6,0,1,1,-2,-2,-2,0
17.108227,0,0,-5,-7,-2,-1,-2,-1,0
17.109736,-1,1,2,6,0,0,-2,-1,0
17.109740,0,-7,-2,-1,-1,-2,-1,-1,0
17.122460,0,11,7,0,-2,0,0,-1,0
17.122481,-1,-4,-6,-2,-1,-3,-3,0,0
17.129429,1,7,1,-5,-1,-1,-2,-1,0
17.129459,1,-1,-4,-1,-1,-1,0,-1,0
17.145921,-1,-3,3,3,0,-2,-1,0,0
17.145944,-6,1,-1,0,-1,-1,0,2,0
17.148127,4,-1,-2,-2,-3,1,-2,-2,0
17.148133,-1,1,1,-2,-2,-1,0,-1,0
17.168408,-1,-5,-5,-3,-1,-3,0,-2,0
17.168428,-1,-3,1,3,-2,-1,0,-1,0
17.169604,0,-4,-4,-1,0,-3,-2,1,0
17.169620,-2,0,-1,-3,-2,0,-2,-1,0
17.182452,-2,1,-1,0,0,0,0,0,0
17.182474,-1,-2,0,0,-1,0,-1,0,0
17.189420,-2,-2,3,-1,0,-1,0,-1,0
17.189442,2,3,-3,-6,-1,0,-1,-1,0
17.206009,0,-4,-8,4,-1,-1,1,-1,0
17.206041,-2,2,6,2,0,0,0,-3,0
17.208869,0,5,-2,-2,-1,-1,0,-2,0
17.208879,-2,-20,-4,-2,-1,-2,-2,-1,0
17.228121,-2,-1,-3,1,-3,-2,-2,-2,0
17.228147,0,-2,-1,-2,-2,-2,-3,0,0
17.234609,1,3,3,-1,0,0,1,1,0
17.234627,-2,4,1,-2,-1,-2,0,-1,0
17.242638,-1,-5,-2,-4,-3,-1,0,-1,0
17.242656,0,1,-1,-1,-4,-2,-2,-1,0
17.249373,-3,-1,-1,-2,-1,0,0,-1,0
17.249395,-3,0,-3,1,-1,0,-1,-1,0
17.265824,-1,-1,0,-1,-2,-1,-2,-2,0
17.265846,1,1,2,2,0,-2,0,0,0
17.267193,-1,-4,-4,-3,-2,-1,-1,0,0
17.267268,1,-1,-2,-1,2,-1,-1,-2,0
17.288541,-1,5,1,-1,-1,-2,-2,-1,0
17.288547,-3,-3,-3,-2,-1,0,-1,0,0
17.296901,-2,-4,-3,-1,0,-1,-2,-2,0
17.296908,1,2,4,1,-1,-1,-2,2,0
17.304376,-1,4,-5,-6,1,-1,-1,0,0
17.304382,0,-7,-2,4,1,0,-2,-1,0
17.309795,-1,-7,-5,-2,-1,-1,-1,-2,0
17.310849,-2,5,2,3,-3,0,-2,-1,0
17.325939,-1,-3,3,-4,0,1,0,-1,0
17.327206,-1,4,1,-2,-1,-2,-2,-1,0
17.327211,1,-1,-6,-2,-2,0,-2,-1,0
17.327256,-1,-6,-4,-2,-1,0,-2,0,0
17.350842,0,-1,-6,-2,-2,-1,-2,-1,0
17.350852,0,2,3,1,1,-2,0,0,0
17.350855,-6,-2,-1,-1,-1,-1,2,-1,0
17.350856,-1,0,-1,-2,-2,-1,0,-2,0
17.362242,0,-8,-2,0,-2,-1,1,-1,0
17.362266,0,-3,-2,0,-3,-1,0,-4,0
17.372673,-1,-1,-3,-5,-3,-2,-2,1,0
17.372683,0,2,-3,3,-1,-1,1,-1,0
17.385908,-1,2,0,1,-2,-1,-2,-1,0
17.385952,-5,-7,1,-1,0,0,0,1,0
17.387447,2,1,1,1,0,0,-2,-1,0
17.387454,-1,3,1,-3,-2,-2,-1,-1,0
17.408480,-1,-9,0,-2,1,-1,-2,-1,0
17.408498,-2,0,-2,0,-1,-2,-1,-2,0
17.410473,-3,-4,7,0,0,-1,-2,-2,0
17.410479,2,5,-3,1,-1,-1,-1,1,0
17.422328,-1,3,0,-2,-1,-1,-2,-2,0
17.422372,-2,-2,-1,-3,-3,-1,-2,0,0
17.433734,0,2,-2,0,-1,-1,0,-1,0
17.433740,-3,-2,-2,-3,-1,0,-1,-2,0
17.445703,-2,0,0,0,-1,-2,1,-1,0
17.445722,1,-3,-1,1,0,0,-2,-1,0
17.447267,0,1,-2,1,-2,-3,1,0,0
17.447291,0,0,2,-2,-1,-2,0,-2,0
17.468211,-2,-1,2,1,-2,-1,-2,-1,0
17.468234,0,2,-2,-1,3,-2,0,-1,0
17.470160,-1,2,7,-8,-2,-1,-1,-1,0
17.470168,-2,-9,-15,7,-1,-1,0,1,0
17.481876,0,21,3,-3,-1,0,0,1,0
17.481898,-1,-13,-1,0,-2,0,-1,-2,0
17.491073,0,-2,-6,0,-2,-1,-1,-1,0
17.491077,-2,-1,6,-4,0,-1,-1,0,0
17.507817,0,-5,0,-1,-3,-1,-1,0,0
17.507825,-2,1,-7,-2,-2,-1,0,0,0
17.507827,-1,4,8,0,-1,0,-1,-1,0
17.507829,0,0,2,-3,-1,-2,-1,-3,0
17.528164,-1,-3,-2,1,0,-1,-1,-3,0
17.528248,0,2,0,-2,0,-1,-1,-1,0
17.530632,-1,-5,-7,0,1,-1,-1,-1,0
17.530637,1,1,-1,-3,-3,0,-1,0,0
17.541826,-1,-3,0,-1,-1,-1,-2,0,0
17.541932,-1,0,-1,-4,-3,-2,-3,-2,0
17.553491,-1,-2,0,8,-1,-2,-1,-1,0
17.553497,-2,-2,1,2,-1,-1,-1,-1,0
17.565829,1,-4,-3,-3,0,0,0,-1,0
17.565857,-1,3,-1,-1,-3,-1,0,0,0
17.568246,-1,-6,-3,-4,-1,-2,-2,-1,0
17.568252,-2,6,3,-1,-1,-1,-2,-2,0
17.588793,1,-2,-6,0,-1,0,1,-1,0
17.588817,0,-1,2,-2,-1,-2,-3,-2,0
17.590336,-2,-3,-3,-1,0,-1,1,-2,0
17.590346,-1,-4,-1,0,-2,1,-1,-2,0
17.601864,-2,-6,0,-2,-2,-2,-2,-1,0
17.601886,1,6,-2,-1,0,0,0,-1,0
17.611399,-1,0,0,-2,-1,-1,-1,-1,0
17.611409,1,-1,-3,0,-1,-1,-1,0,0
17.625626,0,2,-2,-1,1,-3,0,0,0
17.625645,0,-3,-1,0,-2,-1,-1,0,0
17.627559,0,-1,-1,0,2,0,-1,-1,0
17.627565,-1,-2,-4,-1,-1,-2,-1,1,0
17.648525,-1,-1,3,-3,-3,-2,-1,-2,0
17.648545,-3,1,2,2,-1,-2,0,-1,0
17.649898,3,1,-4,0,-2,0,0,0,0
17.649911,1,0,-1,-2,1,-1,-1,-2,0
17.661738,-2,-4,0,1,-1,0,-1,-2,0
17.661749,-2,-3,0,-5,-1,-1,0,-3,0
17.673322,-2,6,2,-3,1,-1,0,0,0
17.673330,-2,-4,-1,2,1,-1,1,-1,0
17.686019,0,-5,-1,-2,-1,0,-1,0,0
17.686049,-2,-3,-7,-1,1,1,-2,-1,0
17.687427,-1,8,3,-1,-2,-2,-1,-2,0
17.687431,-2,-8,2,-3,-2,-1,-1,0,0
17.708073,-3,-4,-9,0,0,-1,-1,1,0
17.708093,-1,-4,-1,-1,-1,0,-1,-1,0
17.709666,-1,-2,-5,-1,-2,-1,-2,-1,0
17.709682,2,5,3,-1,-1,-1,-2,-2,0
17.723945,0,-1,0,0,-3,-2,-1,-2,0
17.723952,0,1,-1,-2,-1,-2,-1,-1,0
17.731442,0,-2,-6,0,-1,-1,-2,0,0
17.731447,-2,0,-4,-7,-1,-1,-1,-1,0
17.745750,-3,4,5,6,0,1,-1,-3,0
17.745775,-1,1,2,0,-3,0,-1,-1,0
17.747129,-2,-1,-1,-3,-1,-1,0,0,0
17.747140,-1,-4,-3,1,-2,-1,-2,0,0
17.770080,1,-3,-4,-4,-1,-2,0,0,0
17.770086,1,0,5,1,-1,-1,0,-2,0
17.770088,-2,8,0,-1,-1,-2,-1,-1,0
17.770090,-1,-15,-3,0,-1,0,1,-1,0
17.782310,-1,-1,-2,-5,-2,-1,-3,0,0
17.782342,0,-1,2,0,-1,1,-1,-1,0
17.792132,-1,-4,-1,-1,1,-2,-3,-2,0
17.792141,1,-3,-6,-2,-1,0,-3,1,0
17.806225,0,8,4,-3,0,-1,-1,-2,0
17.806244,0,-2,-6,-2,-1,-3,-1,1,0
17.808118,-1,-2,1,-2,-2,0,0,-1,0
17.808125,-1,5,-1,0,-1,-3,-1,0,0
17.828625,1,-8,-2,1,-2,0,-1,-3,0
17.828654,-2,4,-4,-1,-3,-1,0,0,0
17.831074,-1,-4,1,-3,-2,0,0,-1,0
17.831080,-1,-2,-1,1,-1,-1,-1,-1,0
17.850853,-1,1,1,2,1,-1,-2,-1,0
17.850876,-1,-2,-1,-2,-1,-1,-1,-1,0
17.852727,-1,-4,-5,-2,-3,-1,-1,-1,0
17.852735,-1,2,1,-2,-2,-1,0,-1,0
17.866252,0,1,-1,0,-2,-2,-1,0,0
17.866274,-1,2,4,1,1,-2,-1,-2,0
17.869143,-1,-3,-2,0,-1,0,-1,-1,0
17.869154,-1,2,-2,-3,-2,-2,0,-1,0
17.888762,0,-3,-4,-3,-2,-1,-2,0,0
17.888795,1,-3,-3,-2,-1,0,-1,-1,0
17.891278,-2,7,2,0,-1,0,-2,-1,0
17.891285,-3,-4,3,2,0,-1,-1,-3,0
17.910787,-1,-4,-2,2,0,0,-1,-2,0
17.910809,-1,-3,-1,-3,-1,-2,0,-1,0
17.912149,1,-7,0,0,-1,-2,0,1,0
17.912238,1,7,-7,-2,-1,2,-2,0,0
17.925676,-2,4,2,-8,-1,-1,-2,1,0
17.925690,-1,-2,-2,6,-1,-2,-1,-1,0
17.927201,0,1,2,-1,0,-1,0,1,0
17.927216,-2,-4,-5,0,0,-2,-1,-1,0
17.948114,-3,-4,1,-3,0,-1,0,0,0
17.948137,-1,-1,-2,-4,-1,-2,-1,1,0
17.949514,-1,-5,1,2,1,-2,-3,-2,0
17.949522,0,0,-5,-1,-1,0,2,0,0
17.970612,-1,2,-2,-1,-2,-1,-1,-1,0
17.970618,0,1,2,-1,1,-1,0,-1,0
17.972133,-1,-2,-1,0,-2,-1,0,-1,0
17.972159,-2,0,3,-3,-2,-2,-2,0,0
17.986071,-1,2,-1,-1,-2,1,-2,-1,0
17.986077,1,-5,0,-2,-1,-2,0,-1,0
17.992103,0,-2,-4,-5,-1,-1,-1,-1,0
17.992129,-2,10,11,6,-2,-2,-1,-2,0
18.015754,-1,-4,-1,-2,-2,0,-1,-1,0
18.015759,-3,-1,0,0,1,-2,-3,-2,0
18.017018,0,-2,-3,-3,-1,0,-1,-2,0
18.017050,1,-1,2,-1,1,-2,0,0,0
18.032342,-1,-1,0,4,0,-1,0,-2,0
18.032350,1,-2,-2,-4,-1,-2,0,-1,0
18.036991,-2,-1,1,2,-1,-1,-2,0,0
18.037005,1,-1,-1,-3,-3,-1,0,0,0
18.045291,0,-2,1,-1,-1,-3,-1,-1,0
18.045513,0,0,-2,-1,0,1,0,0,0
18.051771,-2,0,2,-2,-2,-2,0,-1,0
18.051785,-1,-2,-3,0,-1,-1,-2,0,0
18.068406,-1,-2,-3,-3,-1,-1,1,0,0
18.068427,-1,-4,-2,2,1,-1,-2,0,0
18.070541,-2,1,-5,-7,0,1,-1,-1,0
18.070545,0,4,3,3,1,1,-1,-1,0
18.090741,-2,-11,-6,0,0,0,-1,-1,0
18.090776,-1,1,-3,-2,-1,0,-1,-1,0
18.092977,-1,-3,-1,2,0,-1,-1,-1,0
18.092983,-1,-1,-1,-6,0,-1,-1,-1,0
18.104932,0,4,0,0,-4,0,-2,-1,0
18.104956,0,-6,0,3,-1,0,-1,-3,0
18.111887,2,15,7,0,-1,-3,0,-2,0
18.111917,0,-2,-1,-2,-2,0,-1,-1,0
18.128041,-2,1,0,-1,-1,-2,-1,-2,0
18.128061,-2,-4,-5,-4,-1,-1,-2,-3,0
18.129879,-2,-7,-2,0,-2,-1,-1,-1,0
18.129934,-1,-2,0,1,-1,-1,0,-2,0
18.150628,0,0,1,1,0,0,-1,0,0
18.150652,-1,4,2,-2,-2,-1,0,0,0
18.152050,-2,-2,-5,0,-2,-2,-1,0,0
18.152060,0,0,2,-3,0,-2,-1,0,0
18.164983,-1,-6,-3,1,-1,-1,-1,-1,0
18.165006,0,3,2,-2,-3,0,-1,0,0
18.171772,-1,1,1,2,-1,-1,-1,-1,0
18.171793,0,-1,-3,-4,-2,-2,0,0,0
18.187975,-1,-8,2,-2,-2,0,-1,-1,0
18.187982,-1,0,2,-2,2,-2,-3,-2,0
18.189960,1,-5,-4,0,-2,2,0,0,0
18.189977,-2,2,-6,-1,-1,-1,-1,-2,0
18.210683,-1,2,-3,-2,-2,0,-1,-3,0
18.210700,-2,2,5,0,-1,1,0,-1,0
18.212982,0,-8,-11,-4,-1,-1,-2,-1,0
18.212992,-2,2,0,1,-1,0,-1,-2,0
18.225042,0,2,-1,-1,0,-1,-2,0,0
18.225062,-1,-4,-6,-2,-4,-2,-1,-1,0
18.234350,-2,0,2,-1,0,0,0,-1,0
18.234355,-1,-7,0,-1,-1,-1,-2,-2,0
18.249463,1,-3,-2,0,0,-2,0,-1,0
18.249469,-1,2,2,-1,0,-2,-1,-2,0
18.249541,-2,-3,-2,1,-1,-1,0,0,0
18.249547,0,-3,-2,-3,-2,-2,0,0,0
18.271086,0,1,-1,-3,-1,-1,0,-3,0
18.271107,-1,-1,-2,2,-1,-1,0,1,0
18.273717,2,-1,-1,0,-1,0,0,-2,0
18.273722,-1,3,4,0,2,1,-2,0,0
18.285248,1,0,0,-4,-4,-3,-1,0,0
18.285270,0,-5,-7,-2,-1,-1,-1,-2,0
18.291785,-3,-2,5,-1,0,-3,-2,0,0
18.291804,-2,-1,2,1,0,1,-1,-2,0
18.309513,1,4,-2,-1,-1,-2,-1,-2,0
18.309519,-1,0,-3,-3,-2,1,0,-1,0
18.309647,2,-2,-1,-5,-2,-1,-1,0,0
18.309653,-4,1,2,3,-1,-1,-2,-2,0
18.330540,-3,-4,-4,0,1,0,0,0,0
18.330563,-2,-9,-4,-2,0,-2,-1,-1,0
18.331999,-1,6,2,3,-1,-1,-1,-1,0
18.332012,1,-3,-4,-1,-3,1,1,0,0
18.344417,-2,1,-2,-2,-1,0,0,-1,0
18.344440,0,-2,-3,0,-1,0,0,0,0
18.354662,-2,-3,-5,-5,-1,-1,-2,-1,0
18.354668,-1,-4,1,1,-1,-2,0,-1,0
18.370594,-2,-1,3,2,0,1,-2,-3,0
18.370600,-1,0,1,-1,-2,-1,-2,-1,0
18.370603,-5,-1,0,0,0,-1,-1,1,0
18.370604,-1,8,-7,-3,-2,-1,-2,-1,0
18.391015,-3,-18,0,-2,-1,0,-1,1,0
18.391040,-1,0,-2,-2,-1,-1,-2,1,0
18.392393,1,-2,0,1,-1,-1,0,-2,0
18.392408,-2,-1,1,-7,0,0,0,0,0
18.404402,0,8,2,5,0,-2,-1,-1,0
18.404416,-2,-2,0,1,-1,0,1,-1,0
18.415564,-2,-9,-3,1,1,0,-1,-1,0
18.415569,-1,5,2,-4,-2,-1,-1,1,0
18.428950,-1,-1,-3,-3,0,-1,-2,0,0
18.428990,-1,-1,0,-2,-1,-1,-1,-3,0
18.431488,0,3,-2,0,0,-1,-1,-1,0
18.431494,0,-8,-3,2,-2,-1,0,0,0
18.450696,-1,-3,-1,-2,-1,0,-1,1,0
18.450709,-2,2,3,-1,-1,-1,-3,-1,0
18.452198,-1,-4,-8,-3,-2,0,0,0,0
18.452261,0,-2,2,0,-2,-1,-1,-1,0
18.464933,-1,4,2,0,-2,0,0,0,0
18.464940,-1,-1,1,1,0,0,0,0,0
18.474684,-1,7,2,-3,-2,-2,-2,-3,0
18.474691,-3,-18,-4,0,0,0,-2,-2,0
18.489042,-2,3,3,-3,-1,-1,0,-1,0
18.489088,-2,-2,-6,-2,-1,1,-2,-1,0
18.491364,0,0,-1,-1,-1,0,-2,0,0
18.491375,0,18,8,0,0,-3,0,-1,0
18.510819,0,-2,-2,-1,-3,-2,0,-2,0
18.510833,-2,2,1,1,-2,-1,1,0,0
18.512216,-1,-3,0,-1,-2,-1,-1,-1,0
18.512231,-1,-7,-5,-2,-2,-1,-1,-1,0
18.526007,-1,-1,-4,-1,0,-1,-2,1,0
18.526018,0,2,-1,0,1,0,-2,0,0
18.534895,-2,-2,1,1,0,-1,-2,0,0
18.534900,1,-4,-2,-8,-1,-1,0,-3,0
18.548362,0,2,-1,8,-1,-2,0,-1,0
18.548431,-1,-3,-2,-3,-2,-2,0,-1,0
18.549649,-2,1,7,-1,-2,-2,-1,-1,0
18.549678,0,-2,-4,1,0,-1,-1,-2,0
18.570985,-2,2,0,-5,-1,-1,-1,-1,0
18.570990,1,8,4,0,0,0,-1,-1,0
18.572169,-1,-13,-10,-2,-2,-1,0,-1,0
18.572189,-3,-4,-12,-1,0,-1,-1,0,0
18.584672,-2,-1,-1,-4,-2,0,-2,-2,0
18.584705,2,-5,-2,-1,-1,-2,-1,-2,0
18.594536,-1,12,7,1,0,-1,0,-1,0
18.594542,2,-3,-1,0,-2,0,-2,-3,0
18.608184,-4,-4,-5,-3,-1,1,0,0,0
18.608202,0,-3,-2,-2,-1,-2,-2,-1,0
18.610107,0,-3,-3,-1,-1,-1,0,0,0
18.610112,-1,-2,0,-2,0,-2,-1,0,0
18.633040,0,0,2,4,1,-1,-2,-1,0
18.633046,-2,-2,-1,-2,-2,0,-2,-1,0
18.633048,-1,1,0,-2,-1,0,-1,-1,0
18.633050,-1,-1,-1,1,0,0,1,-1,0
18.645177,-1,-1,0,-5,-2,-1,-1,-2,0
18.647702,-2,7,-1,-1,1,-4,0,-1,0
18.653170,-2,-14,0,0,-1,-1,-1,0,0
18.653198,-2,-3,-4,0,-2,-1,-2,0,0
18.668543,1,0,2,-2,-4,-1,-1,-2,0
18.668571,-1,-2,-9,-1,-2,0,-2,2,0
18.670327,-2,3,0,-2,-1,-2,-1,0,0
18.670331,0,-1,4,-1,0,0,-1,1,0
18.690742,-2,-4,-2,1,0,0,-1,-1,0
18.690758,-1,15,14,0,0,1,0,0,0
18.692631,-1,3,1,-6,-3,0,0,-2,0
18.692639,-1,-1,-2,4,0,0,-2,-1,0
18.704864,-1,-4,-7,-1,-1,-1,-1,-1,0
18.704893,0,-8,-4,-3,-2,0,-1,0,0
18.715460,1,2,-2,0,-2,-3,-1,-1,0
18.715466,-1,0,1,-3,-1,0,-1,0,0
18.735974,1,2,1,-1,-3,-1,-2,-1,0
18.736002,-3,-5,-2,0,0,-2,-1,-1,0
18.737331,0,0,1,-2,1,-1,-2,-1,0
18.737336,0,-1,-4,-3,-2,-2,-2,-1,0
18.751010,-1,1,-3,-2,1,-1,-1,0,0
18.751039,0,2,0,-2,-2,-2,-1,-1,0
18.753075,-1,-13,-12,1,1,-2,-1,-1,0
18.753079,-2,17,18,2,0,0,0,1,0
18.773218,-1,-1,-1,0,0,0,-1,-2,0
18.773235,-1,-5,-2,-3,-1,0,-1,-3,0
18.774974,-1,4,1,-2,-2,-1,-1,-2,0
18.774994,-1,-6,-6,-8,-2,-2,0,0,0
18.787992,-1,-2,-2,8,1,-2,-2,1,0
18.788006,1,-4,-4,1,-1,0,-2,-2,0
18.789876,-2,0,-2,0,-2,0,-1,-2,0
18.789896,-1,-6,-7,0,-1,-1,-2,-2,0
18.810649,-1,1,-1,-6,-2,-1,-1,-2,0
18.810665,-1,-5,-2,-1,-2,-1,-1,0,0
18.812876,-1,3,2,-1,-1,0,0,-1,0
18.812884,-2,-3,-1,1,-1,-2,-1,-2,0
18.833181,-1,2,4,-4,1,0,0,-1,0
18.833284,-2,-2,-7,1,2,-1,0,-1,0
18.834529,-1,-2,2,-1,-2,-3,-2,0,0
18.834548,-1,-2,-5,-2,-2,-2,-2,0,0
18.847982,-1,-3,1,-1,-2,-2,-2,-1,0
18.847990,-3,5,4,-2,-1,1,0,-1,0
18.849692,-1,1,-2,0,-1,0,-1,-2,0
18.849757,1,-10,-2,2,-2,-1,-1,-1,0
18.871290,0,12,4,-3,-2,-2,0,-1,0
18.871321,-2,-1,3,-2,-2,-3,-3,0,0
18.874749,0,9,1,-6,-2,-2,-1,0,0
18.874765,-1,-3,-5,5,0,0,-1,0,0
18.892529,-1,-8,-2,-2,-2,0,0,-1,0
18.892536,0,0,-3,1,-2,0,0,-1,0
18.909570,-1,-2,-2,-1,0,-1,0,-1,0
18.909590,0,1,2,-2,0,-1,-2,-1,0
18.910285,-1,-3,-6,0,-1,0,0,-1,0
18.910368,-3,-1,1,1,0,-2,-1,-2,0
18.914389,0,-1,-1,0,0,0,0,-1,0
18.914410,-2,1,1,-1,-2,0,-2,1,0
18.930642,2,9,-3,-2,-2,-1,-1,0,0
18.930659,-2,-14,-4,-2,-3,-2,-1,-2,0
18.932087,-2,-4,-1,-1,-3,-1,0,0,0
18.932094,-3,2,0,-2,-2,-1,-2,0,0
18.960895,-1,-1,2,-2,1,-2,-1,-1,0
18.960960,-1,2,-2,-2,0,1,-1,-1,0
18.962493,0,-6,-3,0,-1,-2,-2,1,0
18.962497,-1,12,6,-3,0,-1,1,-1,0
18.970248,0,-3,0,0,-1,-1,-1,-1,0
18.970257,1,-3,-2,1,-1,0,1,0,0
18.974449,-1,-4,0,1,0,-1,1,0,0
18.974470,0,-5,-9,1,-1,0,0,-2,0
18.990718,0,-3,-1,-4,-2,0,-1,-2,0
18.990738,-1,2,2,-4,-1,-1,-2,-1,0
18.992318,1,7,-2,-1,-1,0,-1,-1,0
18.992327,-3,-18,-2,-3,-3,-2,-2,-1,0
19.016316,-1,-1,-2,-1,-1,-1,0,-1,0
19.016322,0,0,4,2,0,0,-1,0,0
19.016325,0,-3,-4,-2,-2,-2,-2,0,0
19.016327,0,18,10,0,1,-2,-1,-3,0
19.028056,-2,-7,-1,0,-1,-2,-2,0,0
19.028085,-2,-3,-2,-2,0,-1,0,1,0
19.034935,0,2,1,-2,-1,-1,-2,-2,0
19.034962,0,-3,-3,1,-1,-1,-1,0,0
19.050650,0,-4,-1,2,-2,-1,-1,-1,0
19.050737,1,3,-4,-5,-2,-2,-1,-2,0
19.052179,-1,-4,-4,0,-2,0,-2,-2,0
19.052250,0,-5,-2,-4,-1,0,-1,0,0
19.075465,-2,3,3,-2,0,0,-2,-2,0
19.075471,-1,-2,-1,-1,-2,-3,-2,-1,0
19.075474,-2,-3,-1,-1,0,-2,-2,-1,0
19.075476,3,12,0,0,-1,0,0,-3,0
19.087479,-4,-12,-4,-2,-2,-2,-2,0,0
19.087508,-2,-1,3,1,-2,1,0,-1,0
19.094190,0,-11,-7,0,1,-1,-1,-1,0
19.094206,-2,2,-1,-1,-1,-1,-1,-2,0
19.110868,1,6,0,1,-1,-2,-1,-1,0
19.110957,0,-2,-4,-1,-1,-1,0,-2,0
19.112014,0,3,6,-7,-1,0,-1,0,0
19.112048,2,-8,-12,6,-1,0,1,0,0
19.133481,0,-3,-2,-3,-1,-1,-1,-1,0
19.133503,-1,0,1,2,-1,-3,-2,-1,0
19.136061,-1,0,-2,-1,-2,-1,-1,-1,0
19.136069,-1,-3,3,-3,0,-1,-1,0,0
19.147759,0,0,2,-1,0,0,-1,0,0
19.147782,1,-2,-4,-1,-2,0,0,0,0
19.154377,-1,6,3,0,-2,0,1,-1,0
19.156600,-1,7,3,-2,-1,-2,-1,-1,0
19.170491,-2,-16,-5,1,0,-1,-1,-1,0
19.170498,-1,-1,-1,-2,-1,0,-2,-2,0
19.172280,-1,-1,-2,0,-1,-3,-2,0,0
19.172303,-1,-10,-6,-1,0,-2,-1,-2,0
19.193121,-1,13,2,0,-2,-1,-1,0,0
19.193141,-1,-5,-6,-1,-1,-1,0,0,0
19.194746,-1,-1,1,0,0,-2,-1,-2,0
19.194758,-3,-2,-2,-3,-1,-1,-1,0,0
19.207562,-2,-3,-2,0,1,-1,-1,-1,0
19.207579,1,-2,-2,-4,-1,-1,-3,-2,0
19.214182,-1,3,2,-4,-3,-1,-1,-1,0
19.214205,-1,-7,-4,0,-1,-2,-1,0,0
19.230583,0,-2,0,-1,0,-1,0,-1,0
19.230631,0,5,5,3,2,1,-2,1,0
19.232116,0,-3,-3,-2,-1,-3,0,-1,0
19.232189,0,6,0,-3,-3,-1,0,-2,0
19.260593,-2,-4,-2,-2,-3,-1,0,-1,0
19.260617,-2,-3,-2,0,-1,-2,0,-3,0
19.262148,-1,0,-1,2,1,1,0,-1,0
19.262161,0,-6,0,0,0,0,0,-2,0
19.266761,0,7,1,-2,-1,0,2,0,0
19.266783,0,0,0,-4,0,-1,-2,0,0
19.275699,-1,-2,-2,-4,0,0,-1,-2,0
19.275772,-3,-4,-4,2,-1,-1,-1,-2,0
19.291819,-1,10,4,-3,1,-2,-1,-1,0
19.291828,-3,-4,-1,-2,0,-1,0,-1,0
19.292212,0,1,4,-2,-2,-2,-1,0,0
19.292222,0,-5,-2,-3,0,1,-2,0,0
19.313267,-2,-8,-6,-2,1,-1,0,-2,0
19.313289,-2,4,2,-2,-3,-2,-1,-2,0
19.315635,-2,0,2,3,-1,0,-2,-2,0
19.315643,-1,-2,0,-2,-2,-1,-1,0,0
19.326857,0,3,2,0,-1,0,-2,-2,0
19.326875,0,0,0,-2,-3,-1,-1,-2,0
19.337488,0,-8,-6,-5,0,-1,-1,0,0
19.337493,1,2,3,5,1,-2,-1,-1,0
19.352985,-2,-2,-2,-2,-1,-1,0,-1,0
19.352994,1,2,-2,-2,-3,-1,0,-1,0
19.352999,-3,-1,-4,-2,-3,-1,-1,-1,0
19.353002,-2,-4,-2,-4,-1,-1,-1,0,0
19.373251,-1,10,3,0,-2,-2,-1,-1,0
19.373277,1,-3,-3,-2,0,-1,0,1,0
19.375974,-2,1,-2,2,-1,-1,0,-1,0
19.375988,-1,-3,0,-2,0,0,0,0,0
19.387071,-2,-6,2,1,-2,1,-2,-2,0
19.387240,0,1,-3,0,0,-1,-1,0,0
19.398343,1,-1,1,2,0,-1,-2,-1,0
19.398349,0,3,2,-2,-1,-1,-1,0,0
19.410975,0,-3,-1,-4,-1,-1,-1,-1,0
19.413308,0,4,1,3,0,-2,0,-2,0
19.413314,-2,-5,-2,-6,1,0,0,0,0
19.413316,-1,-3,-6,6,-1,0,-1,-2,0
19.433139,-2,-1,-2,-1,0,-1,-1,0,0
19.433162,0,-4,-5,-3,-1,1,-1,0,0
19.434876,0,2,0,3,-1,0,0,0,0
19.434971,-1,3,3,-4,-1,-1,-2,-2,0
19.446733,1,-4,-2,-2,-3,-1,-2,-1,0
19.446752,0,-7,-5,-2,-2,0,0,0,0
19.457889,-1,6,2,-1,-1,-2,-2,-2,0
19.457899,-2,-1,-2,-4,-2,-1,-1,0,0
19.470812,-1,-4,-3,2,0,-2,-2,-2,0
19.470841,-3,3,1,-2,-1,-2,-1,-2,0
19.473991,0,-7,-5,1,1,0,-1,0,0
19.473996,-1,0,1,0,-2,-1,0,-3,0
19.492716,1,-1,-4,-6,-2,1,-2,1,0
19.492723,-2,-5,1,5,1,0,-1,0,0
19.493100,0,-3,-5,3,-1,-2,-2,-1,0
19.493109,1,11,-3,-2,-1,0,0,-1,0
19.515449,-1,-12,-1,-2,0,-2,-2,-2,0
19.515478,-1,-2,1,-3,-1,-1,0,-1,0
19.517841,0,2,7,-1,-2,-2,-2,-1,0
19.517846,-1,-2,-5,-2,-1,-2,0,1,0
19.530051,-1,3,-3,-3,1,-1,-1,0,0
19.530067,2,0,-1,-1,-2,-2,-1,-1,0
19.531329,0,1,1,0,-3,0,-2,-2,0
19.531334,-2,-2,-3,-1,-2,-1,-1,0,0
19.555165,2,4,5,0,0,0,-1,1,0
19.555206,-1,-12,-6,-2,-1,-2,0,-2,0
19.555208,0,17,8,-3,0,-1,0,-1,0
19.555211,-1,-2,3,-3,-1,-1,-2,-1,0
19.574980,-2,0,-1,4,-2,0,-1,-1,0
19.574998,0,-1,4,0,1,-1,-2,-1,0
19.576273,-2,-7,-12,-7,-1,-2,0,-2,0
19.576277,-1,0,2,3,2,-1,-2,-1,0
19.589874,0,-1,-2,-3,-3,-2,0,0,0
19.589893,0,10,0,0,-1,0,0,0,0
19.592342,-2,-15,-1,-1,-1,-1,-2,-1,0
19.592355,0,-1,1,-3,-2,-1,2,-2,0
19.612888,-1,-2,-3,1,0,-1,-2,-1,0
19.612910,-1,1,-3,-2,-2,-1,-2,-1,0
19.615442,2,4,0,0,-1,0,-1,-2,0
19.615447,-1,-6,-3,-2,-1,-2,-1,-2,0
19.635522,-3,0,2,-1,-1,-2,0,-2,0
19.635543,0,7,2,-2,-1,0,1,-2,0
19.636248,-2,0,-1,2,-1,-1,0,0,0
19.636271,-2,-2,-2,-9,0,-1,0,-1,0
19.649926,0,-5,-6,4,-1,0,-2,-2,0
19.649949,-2,-4,-2,1,-1,-1,-3,-2,0
19.651343,-3,-3,-6,0,-2,-1,-2,-1,0
19.651351,0,8,0,-1,0,-1,-1,0,0
19.672950,-1,-19,-4,-3,-2,1,0,0,0
19.672982,0,1,1,-1,0,-2,-1,0,0
19.675327,-2,-2,2,2,-1,-1,-2,0,0
19.675335,-2,1,3,0,-1,-1,-2,-1,0
19.703636,-1,5,3,-2,-1,0,-2,-1,0
19.703664,-1,-4,-6,0,-2,0,-3,-3,0
19.706740,-1,-1,1,-1,-1,0,-2,-2,0
19.706745,-1,0,1,1,-1,-2,-3,-1,0
19.709858,-2,4,1,-1,-2,-1,-2,-1,0
19.709881,-2,-6,-2,-5,-1,-1,-1,0,0
19.710543,2,-6,-4,-3,1,-1,-1,-2,0
19.710576,0,11,7,3,-3,-1,1,-2,0
19.732396,-2,1,1,-2,-2,-2,0,3,0
19.732416,-2,2,-1,0,-1,-1,-2,-1,0
19.733852,-1,0,0,-1,0,-2,-1,0,0
19.733860,1,-8,0,0,-1,-1,-1,-1,0
19.757236,0,-2,-9,-9,0,-2,0,-1,0
19.757241,-1,2,1,7,1,0,0,-1,0
19.757243,1,11,0,1,1,0,-1,0,0
19.757245,-1,-21,-5,-1,-2,-1,-2,0,0
19.772896,0,1,-2,-1,-1,-1,-1,-3,0
19.772904,-2,-2,-1,-7,0,0,0,-1,0
19.772906,0,-4,0,-1,-2,-1,1,-2,0
19.772908,-2,6,1,1,-3,-2,0,-1,0
19.792588,-2,0,0,0,0,-1,-2,0,0
19.792612,-2,-2,0,0,-1,0,0,-1,0
19.793479,0,-7,-2,-1,-2,-1,-1,0,0
19.794910,-1,9,1,-4,-1,0,-1,-1,0
19.815138,1,0,1,-5,-5,-3,-2,-2,0
19.815159,1,11,2,7,1,-1,0,-1,0
19.817030,-4,-16,-7,2,-2,-1,-1,0,0
19.817034,0,-8,-8,-3,1,-1,-2,-1,0
19.830453,-1,-1,0,0,0,0,0,-2,0
19.830482,0,-2,-1,0,0,0,0,-1,0
19.832472,0,1,-2,-5,-2,-2,-1,0,0
19.832478,-1,-3,-2,1,-1,-1,0,0,0
19.852308,1,3,-2,0,0,0,-1,-1,0
19.852315,0,-1,0,-6,-2,-1,-1,-2,0
19.853029,0,2,1,3,1,-1,0,-2,0
19.853093,-1,-2,-1,-3,-3,-2,-2,-2,0
19.874984,-3,2,1,3,-1,-1,0,0,0
19.875007,-2,-6,-6,-8,-3,-1,-1,0,0
19.876551,-1,2,6,1,-1,-3,-1,-2,0
19.876562,1,0,-5,1,-1,0,-2,1,0
19.890310,0,-9,-1,0,-2,-1,1,-1,0
19.890328,-3,-2,-6,1,-1,-2,-2,-1,0
19.891886,-1,12,0,-7,-2,-1,-1,-1,0
19.891891,-1,-10,2,1,2,-1,0,-1,0
19.912412,0,-2,0,2,1,0,-1,0,0
19.912464,-2,-4,-1,-3,-2,0,0,0,0
19.913128,0,-1,-1,-3,-2,-1,-2,1,0
19.913142,-2,4,-3,-2,-1,-1,-1,0,0
19.935139,0,-1,-6,-1,-2,0,-1,-1,0
19.935168,0,-3,3,-1,0,-3,-1,-1,0
19.936840,-2,4,-3,1,1,0,-2,-2,0
19.936846,0,-1,-2,-1,-2,-1,-2,-2,0
19.949885,0,0,1,1,0,-1,-2,0,0
19.949908,-1,-2,-4,-2,-3,-1,-2,-1,0
19.958771,0,-2,-1,0,-2,-1,-1,-1,0
19.958778,-2,-1,-2,-1,-1,-1,0,0,0
19.974347,-1,-8,-1,-1,1,0,0,-1,0
19.974353,0,12,-3,-1,0,-1,1,0,0
19.974355,-1,1,1,0,0,-1,-1,-1,0
19.974357,0,6,0,-1,-1,0,-1,0,0
19.995821,-1,-8,1,0,-4,-2,-2,-2,0
19.995852,-1,-7,0,0,-1,-2,-2,0,0
19.996407,-2,-8,-6,0,-3,-3,-1,-2,0
19.996448,0,6,1,-4,-1,-1,-1,-1,0
20.009838,-3,0,-3,-1,-1,-2,0,0,0
20.009859,-1,-3,2,0,0,-1,-1,-1,0
20.010803,-2,2,1,-3,1,-1,-1,0,0
20.010807,-3,-5,-2,-2,-1,-1,-1,-2,0
20.032423,1,2,-1,2,0,-4,-2,-1,0
20.032444,0,-3,-1,-2,-2,0,-1,-2,0
20.033674,0,3,5,0,-1,-1,0,0,0
20.033678,-1,-5,1,-1,-3,0,0,0,0
22.058269,22,-5,3,0,-7,1,11,8,2
22.058540,60,-27,-4,-7,-6,-7,-8,7,2
22.058753,0,-18,6,6,14,-10,4,16,2
22.058768,30,-46,-13,-2,4,15,5,-11,2
22.080672,-42,-24,-11,-7,-6,36,-20,7,2
22.080690,125,84,32,12,2,0,-1,-24,2
22.081816,-15,26,4,-1,1,2,-13,33,2
22.081821,13,71,4,1,-25,-11,18,-9,2
22.094966,82,-4,-12,0,37,22,8,72,2
22.094987,-25,40,-22,-12,-17,10,-14,-56,2
22.096573,-50,94,1,2,-5,-4,14,-1,2
22.096585,4,-34,-5,-3,-3,5,-13,-2,2
22.118066,-2,5,3,9,-1,-13,-1,-6,2
22.118080,-72,82,6,-5,-1,19,29,-8,2
22.118829,36,-122,-13,-6,-1,-50,-36,-5,2
22.118848,-43,-45,2,2,-2,26,-3,2,2
22.140695,72,93,6,-5,-16,-14,-8,23,2
22.140715,-16,1,-7,10,15,-13,-3,18,2
22.143216,-46,32,8,-8,-20,7,22,-8,2
22.143223,-45,-56,-14,-5,13,-6,-1,-3,2
22.163987,-81,61,5,0,-15,-25,-11,-17,2
22.163994,34,35,7,-5,4,0,-9,-6,2
22.163996,63,-21,-2,6,6,14,3,16,2
22.163998,38,-10,-4,-4,-19,-14,-8,-13,2
22.180233,-57,10,-14,-10,25,-23,9,-9,2
22.180239,36,-84,-14,-1,2,-19,-40,4,2
22.180242,-37,-15,-5,5,0,41,18,-11,2
22.180244,-15,34,2,-5,0,-2,0,20,2
22.200975,53,118,22,3,-10,10,21,51,2
22.200999,21,-91,15,-2,-5,-23,0,-56,2
22.202766,32,124,-13,-3,5,20,-19,-7,2
22.202774,-25,-76,1,-2,23,57,-9,1,2
22.214286,31,-17,11,13,-26,-46,-4,15,2
22.214307,-17,28,4,3,0,83,37,1,2
22.222810,51,61,4,-1,-7,-62,-2,16,2
22.222827,-14,63,-6,-1,16,1,15,24,2
22.238586,-49,17,-4,-2,3,19,18,-40,2
22.240862,0,-38,-16,-10,-5,-27,-3,22,2
22.240870,-6,46,14,4,4,11,-4,2,2
22.240872,-18,-15,-13,-3,-4,-27,16,-2,2
22.260673,29,57,21,1,9,0,-22,-47,2
22.260694,9,-1,-15,-5,-22,-35,8,41,2
22.261342,-42,-10,-5,-3,8,16,10,-44,2
22.261359,20,-8,9,6,8,-8,13,7,2
22.274272,-119,-2,-7,-4,-17,6,-17,-22,2
22.274323,5,84,0,-1,-1,11,28,-8,2
22.282388,52,35,17,4,16,-15,-29,19,2
22.282405,-39,37,-9,-4,-38,-26,-5,-19,2
22.298452,23,-80,-17,-4,-49,-10,8,-4,2
22.298474,15,-71,-11,-2,55,14,-20,24,2
22.301132,37,48,22,3,-12,59,32,29,2
22.301145,58,102,-20,-9,6,-81,-47,-4,2
22.321110,-41,-76,12,1,16,6,26,-30,2
22.321125,-13,102,-23,-4,-19,-9,-8,74,2
22.321628,-18,-128,1,-1,-5,22,-4,-44,2
22.321650,68,92,5,4,11,28,5,-2,2
22.334145,42,56,-12,-2,-12,1,-15,3,2
22.334159,5,46,74,10,6,-14,-7,-6,2
22.342573,19,-51,-16,-2,19,-1,-6,9,2
22.342591,-86,-48,9,-2,-35,28,31,26,2
22.358100,4,87,-18,-2,46,-27,-22,-32,2
22.358126,18,-112,-30,-2,-2,39,1,-11,2
22.360165,-63,76,7,-2,-2,-24,-8,0,2
22.360171,49,12,-1,-3,2,4,5,-9,2
22.380748,13,127,16,8,-5,-2,8,21,2
22.380762,-37,5,-17,0,3,-10,-10,-14,2
22.381294,-13,-15,10,-4,-1,-25,9,8,2
22.381307,26,-128,-15,-6,-7,-6,-41,-33,2
22.394163,-9,42,-6,-10,-8,21,9,15,2
22.394179,-34,-62,-1,4,-2,-8,-9,4,2
22.402762,-21,33,-24,1,-18,-22,22,-1,2
22.402789,2,79,15,3,13,5,-8,-10,2
22.418393,21,-48,1,-4,5,1,-10,6,2
22.418423,-5,-83,-14,-5,-18,7,1,-11,2
22.419641,13,-36,-8,-6,-10,-82,2,5,2
22.419689,28,32,4,3,16,-1,5,8,2
22.441457,71,-101,-2,2,-9,17,-5,-9,2
22.441470,-27,56,-25,-7,1,-22,-5,0,2
22.441472,5,27,10,6,0,34,3,-2,2
22.441474,3,-92,-4,-7,30,0,-10,-6,2
22.454705,9,-32,5,-1,-11,-19,10,12,2
22.454745,49,-10,4,10,-4,5,8,-2,2
22.478236,-21,80,3,-8,-1,44,-12,-3,2
22.478258,-12,-105,-17,8,4,-36,48,4,2
22.480215,-45,71,4,2,-5,63,-4,35,2
22.480219,36,-9,14,-4,-2,-29,-4,0,2
22.484586,-81,-48,-23,-10,-32,-9,-8,-53,2
22.484605,52,43,4,4,17,24,1,12,2
22.502212,24,39,27,-2,23,4,-1,-14,2
22.502219,28,112,10,3,-3,-3,8,14,2
22.502221,-14,29,-6,0,8,10,-18,16,2
22.502223,-74,-16,1,3,-15,-3,-3,-44,2
22.514734,-2,-44,-17,-5,0,-33,-6,16,2
22.517526,-69,-75,9,-1,5,19,-3,-25,2
22.523344,-47,29,-7,0,-2,-8,-11,-25,2
22.523363,-11,16,-10,-7,1,-3,-10,11,2
22.537933,34,32,0,3,-3,-19,7,-21,2
22.537957,36,-53,1,0,-3,1,1,12,2
22.544615,28,-23,-9,-3,7,47,27,19,2
22.544637,-24,2,8,3,-2,-51,-43,-6,2
22.560914,-64,-57,-8,-6,-6,0,-16,29,2
22.560982,91,84,12,5,0,-1,-11,2,2
22.563595,-38,-40,-4,-2,-1,-48,14,-14,2
22.563601,-33,24,2,-2,3,47,17,29,2
22.583560,19,13,-5,-1,-27,-12,-10,26,2
22.583580,-28,119,23,-1,-7,-10,-3,-6,2
22.584841,39,30,-5,0,12,-13,-8,14,2
22.584987,69,111,25,7,9,60,10,33,2
22.597408,-46,-57,-15,-5,-8,-26,-4,-30,2
22.597427,-43,15,-15,-4,12,27,11,-5,2
22.604338,86,50,-11,-3,-11,-26,-29,27,2
22.604354,15,-72,2,0,-10,-1,-6,-21,2
22.620747,13,45,2,4,25,21,1,7,2
22.620769,-24,-91,-7,-4,-28,-12,-3,-37,2
22.622886,5,80,16,-2,30,6,11,-1,2
22.622901,16,-38,-25,-2,-15,-21,-2,3,2
22.643103,1,31,2,3,5,-10,-11,4,2
22.643121,14,87,6,-1,-15,53,23,-16,2
22.644537,26,-38,-1,3,-1,-12,32,-12,2
22.644549,29,89,11,-2,4,1,9,26,2
22.657964,34,-24,-24,-4,-7,1,7,-3,2
22.657975,-62,44,-11,-11,8,-10,-19,1,2
22.667105,32,31,-6,1,-6,25,-12,-6,2
22.667111,-20,59,67,14,-5,-25,-10,-42,2
22.680604,-3,31,20,2,3,14,-11,-23,2
22.680624,57,-22,-17,-4,9,4,29,-1,2
22.682116,-4,-17,-37,-8,-10,-13,-52,2,2
22.682169,-80,79,3,0,3,-11,9,-2,2
22.702946,-18,26,22,5,-5,-2,-6,-14,2
22.702960,67,-120,15,3,-15,-2,-5,15,2
22.704486,-43,-23,-14,5,27,16,8,20,2
22.704516,-59,74,-13,-12,-25,2,-1,-35,2
22.718074,-5,-28,-23,-8,-12,-11,1,19,2
22.718080,55,-20,-2,3,10,47,13,19,2
22.724484,59,55,28,0,2,5,-64,28,2
22.724504,-64,-106,-37,-10,-1,25,7,8,2
22.741226,58,97,18,7,-3,-34,15,-17,2
22.741242,37,7,-13,-3,9,-27,-16,27,2
22.743065,0,113,8,5,-7,66,11,-33,2
22.743070,-11,-126,0,-1,3,-79,13,-3,2
22.763819,63,33,-10,-6,-7,7,-11,2,2
22.763823,-63,127,17,7,25,-15,-7,-33,2
22.764483,-1,-110,-10,-5,-7,-4,6,-10,2
22.764490,3,17,0,-3,-36,16,0,3,2
22.780273,-65,-50,-4,2,14,8,9,9,2
22.780279,-24,91,-7,-4,0,-30,-17,-21,2
22.784698,20,40,14,3,-7,-16,21,32,2
22.784717,-14,-128,14,0,9,17,-24,-36,2
22.801013,-12,6,-8,-5,-4,-31,2,7,2
22.801044,-17,83,2,2,0,-5,-8,11,2
22.802713,-42,-6,-3,-7,-10,-13,2,-19,2
22.802717,39,-33,-5,3,7,0,-10,8,2
22.823204,-45,23,-8,1,11,11,-7,39,2
22.823222,-49,-43,-6,-6,-21,9,-7,-76,2
22.825730,58,64,16,1,7,-5,48,22,2
22.825741,32,-11,-31,-7,3,-9,-15,1,2
22.837855,-8,46,15,4,2,5,2,-11,2
22.837876,71,49,-10,-6,-2,38,-23,28,2
22.844625,-94,-96,18,11,-25,-57,38,-13,2
22.844648,-9,127,2,-5,44,-15,-45,-9,2
22.860595,9,4,-23,-10,-16,6,11,-7,2
22.860617,33,-80,2,6,-7,-8,18,20,2
22.862319,-44,37,5,2,18,15,-33,-25,2
22.862342,12,-57,-16,-1,-4,12,14,40,2
22.883104,-4,81,11,-1,2,-1,-15,-46,2
22.883127,-42,-59,15,1,-5,-33,2,22,2
22.884843,28,-34,-10,-5,-3,-1,-4,-1,2
22.884848,31,31,-15,2,-1,10,19,22,2
22.897886,-17,-19,-11,-1,1,17,-6,-17,2
22.897909,-2,-125,6,-3,0,2,1,6,2
22.904150,-33,45,13,0,-3,-14,11,9,2
22.904165,55,16,-17,-8,-6,10,-2,-6,2
22.920519,-11,-24,16,6,-2,1,1,-3,2
22.920533,64,56,-12,2,9,-39,-20,20,2
22.922223,-93,-103,-22,-8,-14,38,21,30,2
22.922246,-37,-77,13,3,-28,49,1,-65,2
22.943264,9,78,-14,-7,20,2,2,9,2
22.943281,35,-47,-24,-13,11,22,15,16,2
22.944944,-54,-39,2,12,-8,-9,-37,-32,2
22.944949,27,123,6,-3,-12,3,10,26,2
22.956726,-15,-26,13,-2,-5,6,-13,-2,2
22.956745,-3,69,6,2,9,-10,-5,-3,2
22.965532,56,39,6,-4,1,10,-7,-4,2
22.965557,-42,3,0,0,-2,-49,-1,-16,2
22.980785,64,57,-7,-1,0,13,-2,-6,2
22.980791,-64,-57,-2,-1,1,-16,5,10,2
22.982060,-45,-28,-15,-4,-2,0,5,-5,2
22.982066,-35,-14,-20,0,-8,1,2,8,2
23.003004,-10,-61,19,4,6,30,-2,-2,2
23.003025,2,-47,-15,2,1,-6,9,2,2
23.005614,26,34,-30,-8,3,31,19,3,2
23.005627,22,93,47,0,9,-18,15,4,2
23.017533,29,-82,16,6,-13,6,4,-4,2
23.017554,-40,36,44,7,-5,-18,0,-22,2
23.032245,25,-12,-4,1,7,21,-9,17,2
23.032268,89,-86,-36,-5,2,-5,8,2,2
23.042101,53,29,-18,-7,4,66,-14,3,2
23.042109,-40,22,-24,-8,-10,-29,0,-10,2
23.042112,76,56,19,3,-8,5,25,7,2
23.042162,-48,40,12,7,-2,27,6,-41,2
23.063145,-15,-128,-2,1,-23,-74,-15,2,2
23.063231,32,33,-19,-2,31,0,-5,-6,2
23.064666,-8,1,4,-7,6,4,-8,6,2
23.064696,-9,-32,9,0,9,-13,2,12,2
23.076881,-69,-59,1,3,-8,-16,6,-7,2
23.076901,21,-40,5,-1,-3,20,10,-6,2
23.086191,89,55,-5,-1,6,-31,6,39,2
23.086198,-89,-76,-43,-11,-11,13,-15,-23,2
23.100660,36,106,1,-8,12,-15,-2,8,2
23.100683,-26,85,-5,1,-12,3,-10,-4,2
23.102187,4,-38,12,0,-23,5,-15,-17,2
23.102219,106,112,8,3,34,-7,-8,26,2
23.122182,-50,-106,-6,1,4,5,13,4,2
23.122205,-15,114,17,2,-14,2,-3,4,2
23.131377,0,-9,-5,-7,-6,-22,-6,6,2
23.131386,-45,-71,-8,-11,-14,13,-35,-14,2
23.136654,-42,8,-19,-7,9,-18,6,20,2
23.136672,-3,46,11,6,-10,15,24,-5,2
23.146543,-20,19,27,7,-1,39,-21,-20,2
23.146549,39,61,7,3,-8,-13,-1,27,2
23.160685,10,25,-13,-4,7,28,13,12,2
23.160707,-38,-8,-6,-8,-8,-2,-3,-13,2
23.162120,-18,82,-7,1,-9,-34,-2,-9,2
23.162165,6,6,9,5,6,8,4,7,2
23.182901,39,7,0,5,19,-1,0,-1,2
23.182930,14,21,-17,-7,-4,11,4,-11,2
23.184425,-6,-58,7,3,-5,-27,-15,5,2
23.184481,-8,78,-14,0,-5,0,3,-65,2
23.196895,9,11,1,-5,-10,-21,0,6,2
23.196904,-24,79,4,0,3,2,-15,7,2
23.206470,-31,-121,-8,-8,12,-1,-19,-15,2
23.206475,12,50,-14,0,-10,-7,7,14,2
23.220980,25,16,13,6,-5,-1,-4,2,2
23.221010,-28,-80,-4,-6,2,-14,-12,12,2
23.223480,-26,-11,-10,3,3,9,10,7,2
23.223486,8,9,19,2,6,3,-8,18,2
23.244232,3,92,-11,-2,-6,-14,22,-28,2
23.244237,12,-28,-4,0,-9,-1,-8,36,2
23.244589,11,25,4,0,-7,-5,-6,-22,2
23.244631,-22,-91,-9,-4,50,-7,8,31,2
23.256913,46,127,27,6,-9,0,-13,-3,2
23.256939,33,-113,-21,-12,-29,-6,1,2,2
23.267505,-25,-75,-13,-2,6,-3,8,-21,2
23.267512,49,36,11,2,-13,-5,0,36,2
23.280710,-99,-33,-6,-3,-4,-4,-15,-23,2
23.280731,-15,-30,-4,1,17,17,6,13,2
23.282249,30,94,5,-6,-23,-38,-17,-43,2
23.282254,-4,-22,4,1,19,59,-3,1,2
23.303342,19,21,-6,-5,-6,-22,7,13,2
23.303371,-40,-67,-2,2,5,60,4,-30,2
23.305191,-40,29,-1,2,4,-20,4,-4,2
23.305200,17,62,4,2,-15,3,-2,10,2
23.317000,7,25,9,0,0,54,10,-7,2
23.317031,12,-20,-4,-5,14,-76,3,-10,2
23.326287,96,9,1,-7,-1,33,3,8,2
23.326292,-14,81,0,2,-11,-23,-3,-14,2
23.340715,-45,-128,-18,-5,3,-5,0,13,2
23.340778,-15,127,2,2,-12,-16,-20,-1,2
23.342231,4,7,11,2,13,9,13,-2,2
23.342249,-26,-10,-7,-5,-9,-34,6,-3,2
23.363695,104,18,-6,2,-9,6,-10,-16,2
23.363716,5,-21,-6,-2,4,41,8,-13,2
23.365834,15,125,20,8,5,-8,-12,20,2
23.365839,-76,-98,-18,-5,-9,13,7,-5,2
23.376749,-3,50,9,0,-1,-18,-3,0,2
23.376772,-1,39,8,-6,-2,-12,2,-11,2
23.388002,-9,12,-12,2,8,-10,-44,9,2
23.388009,-62,57,5,1,-6,0,-12,7,2
23.401003,28,-47,-8,-5,-26,-6,19,29,2
23.401009,28,38,-6,1,23,-4,0,-11,2
23.402058,-32,-43,3,2,1,16,8,6,2
23.402080,25,-40,14,5,8,-7,-2,9,2
23.423177,48,62,-4,0,-27,-10,-15,-17,2
23.423205,-29,-46,-14,-14,14,23,6,-15,2
23.425071,31,5,-13,-7,-2,-47,11,-14,2
23.425078,-46,7,-2,-2,-5,-8,0,-1,2
23.437297,-15,54,1,5,22,18,-7,-4,2
23.437328,58,7,10,4,-16,-4,2,-13,2
23.455548,-13,-9,9,-3,5,17,0,7,2
23.455555,61,-2,-5,2,-5,-8,2,4,2
23.461021,-41,-28,-4,-11,-1,-1,1,-7,2
23.461038,-19,-1,5,9,3,-7,-8,12,2
23.462826,0,-49,-18,0,-1,8,12,7,2
23.462830,37,-3,47,7,-3,10,4,-29,2
23.483194,-64,77,-5,-3,18,-14,-38,-27,2
23.483217,31,-55,-16,-12,-22,-20,3,-15,2
23.485044,-21,-70,-25,-10,-2,-1,1,-8,2
23.485048,-1,-39,-14,-5,-3,12,5,17,2
23.507658,12,-35,7,6,5,-1,5,-6,2
23.507667,37,48,12,6,-1,-1,-3,11,2
23.507673,-20,45,3,-1,-1,1,-3,6,2
23.507677,16,21,-5,0,-3,-7,-1,-5,2
23.520920,-8,-101,-12,-2,1,-1,4,6,2
23.520964,-41,116,20,12,4,-5,-3,-7,2
23.523855,79,-86,6,-7,-7,-10,-17,26,2
23.523874,-21,94,-13,0,1,24,30,3,2
23.543145,99,-11,-17,-12,-2,4,3,18,2
23.543160,3,40,-1,3,-12,-32,-7,-14,2
23.544768,-49,-38,8,9,32,14,3,-10,2
23.544790,25,-93,-13,-12,-44,-19,-15,-6,2
23.565596,-13,53,5,4,38,13,21,10,2
23.565679,3,37,-3,-6,-9,3,-7,25,2
23.566959,-10,23,-1,5,1,8,-10,-16,2
23.566971,0,11,11,2,0,-20,-4,18,2
23.580756,37,-84,5,1,-10,4,8,-37,2
23.580778,57,-38,3,3,4,5,1,-9,2
23.582548,-20,33,-12,-6,0,4,-4,-12,2
23.582552,14,-75,-15,-5,6,1,-2,-7,2
23.602976,-32,14,-5,-6,-14,-12,-7,12,2
23.602990,17,-51,2,5,11,-1,1,3,2
23.604755,5,-42,-1,-3,-16,15,7,4,2
23.604774,14,-32,-2,-1,11,-4,-4,3,2
23.626323,-23,10,14,5,6,4,-1,-4,2
23.627932,13,-40,-5,-1,-8,-3,-9,0,2
23.627937,-22,88,-1,-5,-25,-4,21,3,2
23.627939,-57,-44,-5,-1,23,34,-6,-22,2
23.640118,-42,13,-7,-3,2,10,9,21,2
23.640138,-55,-23,-3,0,3,5,24,9,2
23.647008,46,25,8,-3,-10,-9,-10,-17,2
23.647016,49,122,1,3,2,-5,-4,-4,2
23.663679,-46,33,12,1,-9,-18,-7,-27,2
23.663685,-26,10,-16,-8,-4,10,2,5,2
23.664519,14,-45,2,3,11,9,4,20,2
23.664531,11,7,10,2,-2,-12,3,0,2
23.685854,-46,28,7,5,-3,-13,-27,8,2
23.685883,35,67,9,-3,9,28,10,13,2
23.687845,-18,-16,-14,-2,-2,8,5,-16,2
23.687849,73,-39,-11,-4,0,-5,-5,14,2
23.700704,-54,70,1,-5,-12,-6,0,-25,2
23.700734,36,-27,16,5,3,8,-17,-10,2
23.706830,-2,-93,-19,-2,10,-27,4,27,2
23.706882,34,4,-7,-2,-10,-7,-8,-27,2
23.723441,3,-35,-5,-1,7,8,-1,19,2
23.723460,5,48,-1,-3,-16,-18,-4,0,2
23.725886,0,28,17,10,0,9,-7,-6,2
23.725893,-31,50,-6,-2,-1,-6,5,13,2
23.746124,44,-20,-3,-3,5,-5,5,-10,2
23.746154,-42,-119,-14,-6,-8,-2,-2,14,2
23.748777,83,5,-25,-3,-7,-7,-8,-3,2
23.748783,-59,34,14,3,22,3,-12,-34,2
23.760348,-43,-10,-6,2,-24,0,3,-14,2
23.760371,-27,79,3,1,-6,-4,-6,-6,2
23.767219,-37,20,-6,-8,7,8,24,0,2
23.767249,-3,-38,-13,-6,-14,-19,-47,1,2
23.783445,11,-10,5,6,13,4,18,1,2
23.783467,17,13,11,0,9,-7,2,-9,2
23.785793,-17,86,3,2,-1,7,-4,18,2
23.785797,-27,-20,3,-4,-7,-3,8,-9,2
23.805909,77,16,0,-6,-21,-9,-6,41,2
23.805939,7,-16,-2,4,15,6,-9,10,2
23.807343,-27,125,12,4,8,-5,0,-18,2
23.807437,35,-96,-19,-6,-9,40,4,-8,2
23.820398,-9,-16,-2,-4,-2,-2,12,-5,2
23.820418,7,81,15,5,1,2,4,0,2
23.826744,-18,-17,10,8,8,50,0,-18,2
23.828353,-23,27,0,-2,-5,-22,-1,10,2
23.843288,27,-7,3,0,9,0,-9,-8,2
23.843304,16,-26,-8,-5,-13,-2,-5,7,2
23.845651,-98,-17,3,-7,4,4,-4,7,2
23.845660,5,15,-1,3,2,-5,5,-1,2
23.865515,8,-22,-11,-5,-1,-11,-7,-22,2
23.865530,4,-3,5,1,4,16,25,21,2
23.867328,84,58,-2,1,-4,-28,-42,-35,2
23.867449,-30,-6,-4,-2,-21,-2,-1,32,2
23.882282,9,20,11,-2,40,-3,4,7,2
23.882293,18,45,2,1,-9,1,-6,-13,2
23.887271,32,-80,-8,0,-5,-7,10,12,2
23.887290,-50,72,6,-3,-1,-7,-1,-9,2
23.903724,31,44,-15,-2,-10,4,-8,1,2
23.903751,-11,-92,-10,-5,-2,-10,-17,-7,2
23.906539,-49,-10,4,-3,1,-1,18,10,2
23.906545,30,52,4,2,9,-10,-2,2,2
23.927492,-41,-21,0,2,-13,0,4,16,2
23.927498,-34,53,-12,-4,0,-4,-4,-35,2
23.927500,3,-40,0,-3,-10,-18,-14,13,2
23.927502,-29,99,12,1,2,12,27,-1,2
23.940136,-26,-39,-5,1,-2,-9,-6,-11,2
23.943012,-22,-118,-11,-7,-6,-2,-9,9,2
23.954753,41,51,-4,1,-7,5,18,-11,2
23.954783,24,-65,-5,0,-12,-1,-1,8,2
23.963406,17,1,25,9,28,77,4,2,2
23.963432,77,13,6,-5,-20,-22,-17,19,2
23.964571,-104,-90,-16,-7,24,8,7,-19,2
23.964578,82,12,1,5,2,-3,5,-9,2
23.986010,-59,-1,-9,-6,-25,9,-6,10,2
23.986034,47,-24,2,-3,-1,-30,-7,5,2
23.987263,-1,90,-1,-2,-10,-13,0,-1,2
23.987372,33,69,3,0,9,-2,0,20,2
23.999366,-23,-63,-15,-2,-3,-18,-4,-29,2
23.999388,-12,56,5,5,11,16,7,9,2
24.009317,-20,4,0,0,-8,-24,-11,-19,2
24.009321,-11,32,-3,-5,6,-19,-5,-12,2
24.023396,46,-6,7,1,-7,12,1,37,2
24.023448,-128,0,-6,2,-14,-8,1,-18,2
24.024593,29,16,-1,-1,49,23,-7,-2,2
24.024679,37,-72,-2,-5,-7,5,3,21,2
24.045753,-15,-69,0,3,-4,-16,-3,-11,2
24.045775,41,56,28,5,5,6,10,1,2
24.048032,48,-83,-8,-3,-1,-5,-14,20,2
24.048041,-34,46,-6,-10,3,60,27,-16,2
24.059337,-37,6,0,7,-5,-37,-1,13,2
24.059417,-7,66,-12,-6,7,38,17,-3,2
24.069465,-6,15,0,-2,-29,-48,-7,0,2
24.069471,-37,-17,22,2,10,4,-8,-5,2
24.084194,18,-78,-5,0,-3,-1,3,-13,2
24.084199,-9,9,3,3,4,-3,1,3,2
24.084487,21,-28,-1,-3,-2,13,0,5,2
24.084499,-50,-90,-21,-5,-9,-21,-10,-14,2
24.105580,-43,111,13,-1,0,2,0,-13,2
24.107414,-4,-100,-13,-1,4,-7,-14,-37,2
24.107422,45,50,7,-1,-6,7,3,43,2
24.107424,27,12,-1,3,-4,-20,-8,-7,2
24.119356,27,76,-9,-4,-3,-14,-25,-23,2
24.119379,-20,-104,-18,-5,3,11,34,5,2
24.129789,-69,87,4,0,-1,-16,1,-20,2
24.129799,-22,-72,3,3,-20,14,4,11,2
24.143072,43,-13,-7,-7,-3,-1,14,12,2
24.144976,13,-8,0,0,-8,-20,-56,-12,2
24.144983,-22,10,-1,3,3,-16,8,8,2
24.144985,38,19,-2,1,8,-6,1,4,2
24.165619,57,-82,-9,-5,-2,1,2,2,2
24.165641,-22,54,18,2,-17,-13,-2,7,2
24.167679,17,88,9,-1,30,19,1,-1,2
24.167683,17,-9,-25,0,-1,-5,-8,4,2
24.179348,-10,104,17,1,-5,0,-2,-1,2
24.179366,40,-34,0,1,1,-7,7,-2,2
24.189876,-34,-59,-9,-8,-21,26,-5,22,2
24.189882,13,62,3,2,5,-5,-3,-1,2
24.203246,-75,-5,-17,-3,15,38,-7,-8,2
24.203275,-1,-21,0,-4,-11,-36,10,22,2
24.205515,27,16,12,9,-15,5,5,-17,2
24.205520,9,101,2,-6,15,20,-3,10,2
24.225673,13,-110,-5,2,-34,-32,11,23,2
24.225703,-8,79,5,-4,38,47,-42,12,2
24.227190,-9,-55,-15,-11,-19,-10,-6,-35,2
24.227207,30,16,12,9,-2,-3,-5,12,2
24.240583,38,43,6,2,4,-4,22,-1,2
24.240597,-68,-74,-10,0,1,17,9,-21,2
24.249879,-20,-2,-6,-4,-2,3,4,-4,2
24.249885,45,62,22,5,1,0,-7,21,2
24.263119,-65,-62,-9,-7,4,-23,-17,-34,2
24.263143,-4,55,-24,-2,-1,12,12,6,2
24.264899,14,74,8,2,-1,10,-1,-30,2
24.264903,-11,-94,-8,-7,3,-13,0,-14,2
24.287332,-61,91,15,5,3,7,3,14,2
24.287338,124,20,-11,-9,-8,-8,2,-2,2
24.287340,-53,14,3,8,1,2,-4,-27,2
24.287342,-83,-88,-14,-13,-1,-10,-4,-12,2
24.299823,34,42,32,14,8,-12,-20,-5,2
24.299851,-29,14,-9,-7,0,15,46,12,2
24.309929,-16,0,-4,-7,-3,-18,-61,-7,2
24.309938,44,39,7,6,-5,56,45,4,2
24.323066,-4,22,-7,-3,1,-5,1,10,2
24.323084,45,75,15,2,-21,-52,-9,0,2
24.324874,29,-20,3,7,-1,21,24,12,2
24.324882,-89,17,6,1,24,9,-6,9,2
24.345906,57,57,-9,-7,-8,8,5,21,2
24.345923,-28,-84,-14,1,5,-22,-7,-23,2
24.347470,79,-68,-9,-8,0,4,4,24,2
24.347476,-24,-16,-1,0,-18,-27,-23,-36,2
24.359465,20,74,-12,-6,-10,-5,7,25,2
24.359483,-42,30,33,9,3,15,-13,-18,2
24.369894,-9,60,16,-4,6,2,10,0,2
24.369899,-8,-58,-11,-1,2,-12,-3,16,2
24.383312,-48,-32,-14,1,3,-7,-15,-17,2
24.383336,22,-121,-19,-2,-2,21,18,14,2
24.384919,-50,40,2,1,-2,-8,2,7,2
24.384928,56,75,11,-2,-4,-21,-14,-16,2
24.406009,21,-21,-8,-7,-2,3,28,-7,2
24.406040,2,40,0,-1,1,-2,-19,-2,2
24.408690,60,-50,-3,2,3,31,36,17,2
24.408701,-53,-37,-5,1,-36,-27,-21,7,2
24.419760,50,-118,-13,-2,34,19,9,-19,2
24.419846,-15,50,-1,2,1,-1,-6,-5,2
24.428082,15,11,-4,-1,0,7,13,20,2
24.428104,25,-67,2,3,-2,30,-3,-3,2
24.443077,-55,-70,-1,-2,-2,-27,-12,-18,2
24.443089,-22,79,2,-2,6,-23,0,22,2
24.444494,15,-24,-19,-10,-15,44,-15,-13,2
24.444536,-13,51,32,10,3,-15,3,-10,2
24.465748,22,26,3,-1,0,-2,-14,9,2
24.465771,18,0,-5,1,3,12,6,-42,2
24.467142,-66,-10,-1,-3,-5,-29,-3,11,2
24.467205,-41,11,-14,-4,7,-1,-1,18,2
24.488800,6,111,6,-2,-11,10,-19,-37,2
24.488807,17,-16,-10,3,-6,-6,0,26,2
24.489777,-16,39,5,-1,0,-9,-6,-5,2
24.489786,26,54,-8,-3,1,-21,7,7,2
24.504663,-41,5,18,6,0,11,-7,-3,2
24.504672,-48,101,8,-3,3,8,-7,12,2
24.504677,53,-67,-7,2,0,-18,-5,-15,2
24.504681,-58,-24,-5,-3,4,6,5,15,2
24.525622,-30,-66,-1,1,-5,-8,-6,0,2
24.525640,17,-64,-11,-8,7,-6,-18,-9,2
24.527203,41,43,9,0,-21,-7,6,0,2
24.527239,89,20,6,4,-2,-4,16,-4,2
24.548692,-36,-26,-14,-4,2,6,-1,-36,2
24.548721,59,-21,4,-3,-5,1,7,13,2
24.550963,-11,0,11,8,6,2,-25,-19,2
24.550972,-31,-27,-4,-3,-16,-72,8,-3,2
24.563278,17,22,1,1,2,3,5,12,2
24.563363,23,1,-6,2,2,1,1,3,2
24.569664,1,10,-9,-9,7,-7,-6,13,2
24.569684,-3,35,-3,1,-2,4,-3,-13,2
24.586003,26,40,2,2,0,26,13,43,2
24.586032,-20,-74,-12,-4,-12,-12,-13,-20,2
24.587219,11,-28,-10,1,6,1,12,13,2
24.587223,40,100,5,-3,7,23,-30,-18,2
24.608185,-36,-128,-12,-6,2,-21,0,17,2
24.608202,-45,-19,1,1,-4,16,-1,-19,2
24.609782,-28,10,-5,-1,-6,-28,1,-3,2
24.609873,7,-13,2,-2,11,43,8,-1,2
24.622797,-19,12,0,-1,-4,2,1,-10,2
24.622828,45,127,9,1,-2,-1,2,24,2
24.629364,-25,-109,-8,1,1,1,2,-24,2
24.629387,-28,4,17,-1,-1,-9,3,-6,2
24.645867,56,30,4,5,2,1,-7,4,2
24.645962,-16,116,-5,-4,2,1,10,2,2
24.647283,7,13,2,-5,-8,-13,-2,16,2
24.647299,25,-73,-11,0,3,1,-15,-16,2
24.675610,12,20,-5,-5,-11,-13,7,-11,2
24.675628,-23,13,12,4,3,18,30,18,2
24.677249,65,-83,-3,2,4,2,0,10,2
24.677406,-35,113,1,-1,3,-1,-9,-16,2
24.682634,39,45,-11,-3,-11,10,-7,27,2
24.682657,-43,-119,-12,-4,-10,-72,-14,-20,2
24.689561,-51,83,13,1,1,10,18,-2,2
24.689581,39,-16,-6,-1,-1,-13,-27,-1,2
24.706179,14,-5,1,2,-3,-7,-5,-4,2
24.706191,32,-9,3,-2,4,19,-3,-15,2
24.707234,-78,-21,3,6,2,23,-3,-29,2
24.707253,-23,-49,-9,-4,-3,-6,1,-16,2
24.728137,-54,23,-16,-6,-2,-1,-2,-2,2
24.728159,-15,-57,1,0,-3,10,-5,-8,2
24.730155,-14,-32,8,0,4,-6,-5,12,2
24.730164,22,81,0,-3,-1,12,8,-3,2
24.742624,-14,-93,-17,-4,2,-3,0,2,2
24.742646,50,33,-1,5,2,11,4,6,2
24.749919,-8,31,23,1,8,-11,-5,6,2
24.749948,34,-23,-13,-5,-2,-5,-3,3,2
24.766911,3,125,12,-2,-2,4,-4,-7,2
24.766917,-24,95,-11,-3,2,-1,-4,14,2
24.767112,59,-31,-28,-11,-14,-10,-18,-30,2
24.767193,-32,-64,3,1,3,4,32,20,2
24.788368,17,0,6,-1,5,-5,-6,-8,2
24.788393,-12,-22,3,3,-5,2,-7,-5,2
24.790377,10,27,0,1,-1,-4,-1,-1,2
24.790384,-21,43,-10,-10,9,2,4,4,2
24.802748,48,29,10,6,-13,-1,0,-3,2
24.802777,-64,-55,8,3,2,11,18,34,2
24.809162,38,50,-10,-2,-1,-14,-30,-23,2
24.809179,-71,-76,-15,-6,2,-1,-8,2,2
24.825726,40,68,4,-2,1,2,4,-8,2
24.825749,-7,-30,0,2,1,2,-1,-8,2
24.827519,-30,-78,-3,-2,2,2,11,13,2
24.827527,61,-41,3,1,-6,-1,0,1,2
24.848650,-43,-17,9,0,2,0,-1,17,2
24.848677,-11,14,-4,-5,-3,-2,-9,-29,2
24.851004,39,51,-1,2,2,-2,0,14,2
24.851008,-31,-1,-2,0,-4,-4,-4,-5,2
24.862447,-2,-17,-2,1,3,10,3,4,2
24.862473,-29,-27,0,-1,-31,-6,-5,-6,2
24.869317,-39,15,10,4,36,-23,2,-4,2
24.869346,81,21,-2,-6,5,-1,-13,0,2
24.886051,-11,45,1,0,-13,-11,1,-3,2
24.886073,69,85,7,0,-3,-3,0,-4,2
24.887893,-74,-109,-14,-3,-10,4,1,6,2
24.887897,-6,47,7,5,0,2,-2,0,2
24.908065,-51,-6,-7,-3,3,-8,-5,-2,2
24.908084,83,42,-7,-4,7,4,-7,2,2
24.909616,87,40,20,3,-6,7,8,5,2
24.909644,-68,74,23,5,2,-1,0,-14,2
24.923634,-3,-115,-16,-4,-4,0,-6,-3,2
24.923642,-9,-47,1,-1,5,2,6,17,2
24.929360,85,22,0,-4,-5,1,0,-4,2
24.929382,-15,25,-1,0,-10,-2,1,-26,2
24.945528,41,-68,-2,4,4,-3,1,9,2
24.945545,-57,-65,-4,-1,7,-4,5,6,2
24.947183,-40,97,-3,-5,-4,1,-10,0,2
24.947199,35,-24,1,1,-1,8,6,-8,2
24.969402,-67,41,-1,-2,-2,-4,-4,-20,2
24.969408,63,11,2,-1,6,1,5,9,2
24.969477,-52,21,9,3,-6,1,3,0,2
24.969483,27,-45,-8,-5,-2,-2,-1,38,2
24.982272,23,32,6,-3,3,0,-9,-31,2
24.982302,-38,69,-12,-6,8,-7,-4,1,2
24.992269,4,19,3,3,-13,-5,-12,9,2
24.992276,35,-18,-16,-4,-3,6,19,-7,2
25.005508,-9,-28,-15,-6,-2,-4,-15,5,2
25.005527,-12,28,2,0,6,1,-6,7,2
25.007198,12,42,-10,-2,0,-2,-2,-6,2
25.007270,-4,-98,-6,-1,0,0,-1,-1,2
25.028185,60,51,-1,-2,-3,0,-7,23,2
25.028208,-2,-18,14,6,-10,-1,4,-21,2
25.030079,-31,33,-12,-11,13,16,3,5,2
25.030086,-69,-18,-7,7,-4,-12,-9,-15,2
25.041774,35,-92,-10,-8,3,1,5,-10,2
25.041792,-19,33,12,-1,-10,-3,-6,4,2
25.052968,-10,-106,1,-3,-7,-6,10,1,2
25.052972,4,95,17,3,1,4,-7,-3,2
27.067354,-3,-4,-2,-4,-1,-2,-2,0,0
27.068080,0,-2,-7,-10,-1,-1,-1,-3,0
27.075905,-2,-4,4,10,0,0,-2,0,0
27.075927,4,22,3,4,1,-1,1,2,0
27.090725,-2,-16,-3,1,-1,-1,-1,-2,0
27.090749,-1,-1,3,1,-1,0,-1,0,0
27.092088,-1,-18,-10,-8,-1,-2,-1,-2,0
27.092116,-1,15,-1,-2,-2,-3,0,1,0
27.113153,0,6,4,-1,-2,0,-2,-1,0
27.113170,-1,-5,-3,-4,-4,0,0,-1,0
27.114945,0,-3,-1,1,1,-1,-2,-2,0
27.114953,0,16,-3,-1,-4,-1,-1,-1,0
27.126868,-2,-22,-6,-2,-1,-3,0,-1,0
27.126885,0,-4,-2,1,-2,-4,-3,-3,0
27.137780,-1,4,3,-5,-2,0,-1,-1,0
27.137789,-2,-8,-4,-2,-1,0,-1,-1,0
27.150662,-2,10,2,-6,-1,-2,-1,-1,0
27.150683,-1,-1,2,8,-1,0,-1,1,0
27.152231,-3,-1,0,0,-1,-1,1,0,0
27.153592,-1,-2,2,-2,-1,1,-2,-2,0
27.173143,2,1,0,-2,-2,-1,-3,1,0
27.173165,1,0,-1,-3,-2,-1,-1,0,0
27.175958,-1,3,0,1,-2,0,-1,-2,0
27.175965,-3,-8,-2,-2,-3,-2,0,-1,0
27.186790,1,17,4,-1,0,-1,-2,-3,0
27.186812,-1,-16,-10,-1,-2,-2,-3,-3,0
27.196871,-5,-3,12,1,1,2,1,0,0
27.196880,3,-13,-4,-1,-1,-2,-1,-1,0
27.210607,2,10,4,1,-2,-1,-1,1,0
27.210631,-1,9,2,-3,2,-2,-1,1,0
27.212014,1,-10,-19,-5,-4,-2,-3,-2,0
27.212033,-4,4,19,5,0,0,-2,-2,0
27.233669,1,-4,-6,-6,2,-1,0,-1,0
27.233692,-4,4,-2,7,-3,-1,-1,1,0
27.235651,1,1,1,-3,0,-3,-2,-1,0
27.235654,-1,-8,-3,-1,-2,-2,-1,0,0
27.246849,-2,-10,-2,0,-1,-1,1,-2,0
27.246870,-1,-3,-3,-4,-1,0,0,0,0
27.257827,0,5,-1,1,-1,-1,-2,0,0
27.257837,0,0,-4,-3,-3,-2,-2,-2,0
27.271860,-2,2,3,1,-3,-1,-2,-2,0
27.271865,0,0,-3,-2,-1,-2,0,-1,0
27.272117,-3,-11,-5,-4,-2,0,-3,-1,0
27.272124,0,9,12,-1,1,-1,0,0,0
27.293077,-2,-4,-7,-3,-3,0,0,0,0
27.293100,0,-3,-9,-3,-2,-1,-2,-2,0
27.294694,1,9,11,3,0,-2,-1,0,0
27.294715,-3,-9,-6,0,-1,0,0,-2,0
27.316176,0,-6,-7,3,0,-1,-1,0,0
27.316204,0,7,15,-4,1,0,0,0,0
27.318544,0,-4,-13,1,0,0,0,-3,0
27.318548,-1,1,-4,-3,0,0,0,0,0
27.338409,-3,-2,-2,2,0,0,0,-1,0
27.338507,2,10,-3,-1,0,0,-3,-1,0
27.341713,-2,-18,1,-2,-1,-1,-1,2,0
27.341720,-3,4,-2,-1,-1,-1,-1,0,0
27.353172,-3,-15,-5,-1,-3,-2,0,-3,0
27.353196,-3,1,1,0,-2,-2,0,0,0
27.355389,1,6,4,-1,1,-1,0,1,0
27.355395,3,4,4,-1,-2,0,0,-2,0
27.375764,-3,-5,-2,-2,-3,-1,-3,3,0
27.375792,3,11,14,1,0,-1,0,-1,0
27.378047,-2,-3,-4,-6,-3,-1,-1,-2,0
27.378060,6,3,-4,1,-2,-2,-1,7,0
27.390865,-15,-4,3,-1,0,-2,-2,-26,0
27.390883,0,-8,0,6,0,-1,-1,0,0
27.392787,0,1,-1,1,-2,-3,-1,0,0
27.392793,3,-5,-4,-4,2,0,0,-1,0
27.413331,1,0,-4,-3,-4,-1,1,5,0
27.413354,-4,-2,-4,-3,-2,-1,-3,-10,0
27.414753,-4,2,12,1,-1,0,0,-3,0
27.414770,-2,3,-10,0,-1,-2,-2,-1,0
27.435696,0,-14,-1,-3,0,1,1,4,0
27.435721,-4,-10,-1,-2,1,0,1,-2,0
27.436994,1,6,-5,1,-1,-2,-1,1,0
27.436998,-5,-1,2,-2,-3,-2,-1,-2,0
27.450064,4,13,-2,2,-3,-1,-3,3,0
27.450121,0,-11,-5,-2,0,0,-1,0,0
27.458043,-2,-8,-5,-7,-1,-1,-1,-1,0
27.458052,-2,4,5,4,-2,-3,-2,-3,0
27.474614,1,3,4,0,2,0,-1,-2,0
27.474625,-1,3,-6,-2,0,-2,-1,1,0
27.479563,1,-1,-2,-2,-2,-1,-1,0,0
27.482182,-4,-11,-6,-2,-2,0,-1,-2,0
27.495703,1,10,4,-4,-3,-2,-2,1,0
27.495724,0,-3,-2,3,1,0,0,0,0
27.497132,-3,-1,3,0,-1,-1,1,-1,0
27.497136,-1,5,3,-5,-3,0,-3,-4,0
27.510029,-1,-17,-12,4,0,-1,-2,0,0
27.510045,-4,1,4,-1,-4,-1,0,0,0
27.519958,-1,0,-5,-1,0,0,-1,-2,0
27.519964,-1,1,3,3,0,-2,-1,0,0
27.534678,0,2,1,-10,0,-1,-2,-4,0
27.534682,0,1,-1,4,-3,-2,-4,6,0
27.534685,-6,-6,-7,3,0,0,-1,-4,0
27.534686,0,12,5,-1,-1,0,-1,-1,0
27.555545,-1,7,3,2,1,0,-1,0,0
27.555569,0,-6,-2,-3,-1,0,0,-3,0
27.557901,0,0,1,-4,-2,-3,-2,1,0
27.557912,-1,-13,-7,-1,-1,-1,0,-2,0
27.570286,1,1,0,-1,-1,-1,0,0,0
27.570357,1,0,-2,-3,-2,-1,-2,-1,0
27.576887,-2,3,0,-3,-2,-1,-3,1,0
27.576973,0,25,3,3,0,-1,0,-3,0
27.592414,-3,-40,4,1,0,-1,0,0,0
27.592433,-5,-5,-10,-1,-1,-2,-1,-4,0
27.594180,1,3,16,3,0,-1,-2,0,0
27.594188,0,3,-2,-2,0,1,-2,-1,0
27.615155,2,16,3,3,0,-1,0,-1,0
27.615183,0,-1,-6,-4,-2,-1,1,-1,0
27.617372,-1,-5,-9,-3,-1,-1,-1,-1,0
27.617376,-2,-9,-2,-3,-2,-1,-1,-1,0
27.629320,-2,7,-1,-3,-2,0,-1,1,0
27.629338,0,-8,-4,-1,0,-1,-1,-1,0
27.636887,0,8,1,-1,-2,-2,0,-1,0
27.636909,-4,-12,-4,-1,0,-2,-1,-1,0
27.652493,-3,2,-4,-2,-1,0,-1,-2,0
27.652515,-2,1,3,1,0,-3,-1,-1,0
27.654048,1,0,2,2,0,1,-1,-2,0
27.654053,-2,-20,-10,-3,-2,0,0,1,0
27.675330,1,27,9,1,-3,-2,-2,0,0
27.675341,0,-2,2,-5,-3,-1,-1,-1,0
27.675514,-1,-3,-6,2,0,1,0,-3,0
27.675520,-1,-10,-4,-4,-1,0,-1,-1,0
27.689545,-1,0,-2,1,-1,-1,-2,1,0
27.689551,-2,2,0,1,0,0,0,-2,0
27.696859,0,-2,-2,-4,-3,-1,-2,3,0
27.696880,-1,-3,-3,-1,-2,-1,-1,-3,0
27.712427,-1,0,1,3,-2,0,1,1,0
27.712445,-1,1,2,-3,1,0,-1,0,0
27.714433,-2,-8,-5,0,0,-2,-2,-1,0
27.714439,0,4,2,-2,-3,-4,0,0,0
27.735347,0,0,0,-1,0,-2,-1,-1,0
27.735353,0,-1,1,0,0,0,-1,-1,0
27.735474,-1,1,3,-3,-3,-2,-2,0,0
27.735506,0,11,-13,-7,-1,-1,-1,0,0
27.749289,-2,-7,21,5,1,0,-1,-2,0
27.749307,-1,-4,5,7,0,-1,-1,0,0
27.756735,0,4,-2,-4,-2,-1,-2,-1,0
27.756756,0,-7,-2,-4,-1,-1,-2,0,0
27.772517,2,5,-9,1,-1,-2,1,-2,0
27.772537,1,2,0,-3,-2,-1,-1,-1,0
27.774515,-3,-19,-30,-5,-4,0,-2,-1,0
27.774519,0,20,42,9,2,1,-1,-2,0
27.795237,-3,-4,-10,-7,0,1,-1,0,0
27.795264,-1,0,1,1,-5,0,0,-1,0
27.797648,-1,-1,0,-2,0,-2,2,-2,0
27.797653,-2,-12,-13,-2,-2,-2,0,-1,0
27.809495,1,-3,-2,-4,0,-2,-1,0,0
27.809513,-2,-3,1,-1,-2,0,-1,1,0
27.817038,-1,3,5,-3,0,-2,0,-2,0
27.819196,-4,-8,-14,4,1,0,0,-4,0
27.832452,-1,0,3,-3,-2,1,-1,0,0
27.832475,0,-7,-11,1,0,-1,-1,-1,0
27.833861,0,18,12,-2,0,0,0,0,0
27.833870,2,5,-2,-2,0,0,0,0,0
27.855174,-4,-11,-8,-5,-2,-2,-2,-1,0
27.855194,-2,-2,-2,1,1,-3,0,-2,0
27.857331,-1,-5,-5,-1,-2,-1,-1,0,0
27.857336,0,-7,1,2,1,0,-2,-2,0
27.869583,1,7,-2,0,-1,0,0,1,0
27.869607,-2,-4,-2,-6,1,-1,-2,0,0
27.876628,1,-6,1,6,0,-1,0,-2,0
27.876649,-1,-4,-6,-7,-3,-2,-1,0,0
27.892411,-4,-1,-8,-8,1,-2,0,-3,0
27.892435,1,6,2,8,0,1,1,0,0
27.893474,-3,-8,4,1,1,1,-1,0,0
27.893478,0,-7,-9,-3,-2,-1,-1,-2,0
27.915135,-3,-4,2,2,-2,-1,0,-2,0
27.915164,3,3,-1,-6,-1,-2,-2,-2,0
27.917489,0,4,0,0,-1,-1,-1,-2,0
27.917492,-1,-4,-1,1,-1,-3,-1,0,0
27.929653,-1,0,-3,0,-2,-1,0,0,0
27.929674,-2,-8,-6,-6,13,1,1,2,0
27.936724,0,7,4,2,-15,-3,1,-3,0
27.936739,-2,1,4,0,-1,1,-1,0,0
27.953889,1,11,-3,2,-4,-2,-1,1,0
27.953902,-2,-13,3,-5,-1,-1,-2,-2,0
27.954631,-1,-9,-3,-5,3,1,-2,2,0
27.954646,-2,0,6,2,-2,-2,-2,0,0
27.974980,-3,-6,-7,1,1,-1,-1,1,0
27.975004,-1,0,-8,1,-5,-1,0,1,0
27.976742,-1,3,3,-2,1,-1,-4,-1,0
27.976751,-1,0,-5,-3,-3,-1,1,0,0
27.989503,2,-3,-1,-3,1,-2,-1,-3,0
27.989543,-1,3,3,0,-5,1,-2,-2,0
27.997257,-2,4,10,3,1,-1,-2,0,0
27.997289,-3,-8,-5,-3,3,0,-2,1,0
28.014268,0,14,-12,-2,0,-1,-2,-2,0
28.014277,-5,-21,10,-1,-2,-1,0,-2,0
28.014281,-1,11,2,4,-2,0,-1,-2,0
28.014285,0,-3,1,-3,0,0,-1,-2,0
28.035475,3,-5,0,5,1,-1,-1,2,0
28.035502,0,7,-11,-3,-2,-1,-2,-2,0
28.036995,0,-2,-7,-2,0,0,-1,-2,0
28.037000,-1,-3,-1,-2,-1,-2,-1,-1,0
28.049599,-2,-8,-5,-2,-3,0,-1,-1,0
28.049630,1,12,6,-3,-2,-2,-2,-2,0
28.058626,-1,-8,-3,1,0,1,-1,0,0
28.058634,-2,3,-11,-1,-1,0,0,0,0
28.072718,-2,-3,10,0,-3,-2,-1,-2,0
28.072907,-3,1,0,-2,-2,0,-1,-1,0
28.074942,-3,-4,-1,-2,-1,0,1,1,0
28.074953,-1,0,0,2,-2,-1,-1,-1,0
28.095039,2,-1,7,2,0,0,0,-2,0
28.095062,-2,-1,-9,-1,0,0,-2,-3,0
28.095663,-1,3,-11,-3,0,-3,-2,-2,0
28.095687,-3,-6,8,-2,1,-1,0,-1,0
28.109456,-1,-4,-3,3,0,0,0,0,0
28.109490,1,2,-1,-7,-1,0,0,-2,0
28.117363,0,-2,-3,3,0,-1,1,-1,0
28.117391,0,0,0,2,-2,-1,0,-1,0
28.132422,-3,-1,1,-1,2,-1,-1,-1,0
28.132443,1,3,-1,0,-2,-1,1,0,0
28.133344,0,-3,-3,-4,-1,-2,-2,-1,0
28.133349,0,5,1,0,0,0,-2,-2,0
28.155238,0,-3,4,-3,-4,0,-3,-3,0
28.155261,-2,1,2,0,-2,0,-1,0,0
28.155789,-1,-2,4,-3,-1,1,0,1,0
28.155807,1,-8,-10,0,-1,-1,-1,0,0
28.169524,-1,7,6,-4,0,-1,-1,-2,0
28.169546,0,3,1,-1,-1,-1,-1,0,0
28.176986,0,-13,-5,-4,0,0,0,-1,0
28.177009,-1,6,0,-1,-1,-1,0,-2,0
28.192657,-2,5,-6,-3,1,0,1,1,0
28.192676,-3,-18,1,2,-3,-1,-2,-3,0
28.194552,1,2,-1,1,1,-2,-1,0,0
28.194561,-1,-7,-7,-3,-1,0,-2,-1,0
28.214919,-1,-2,2,4,-1,0,0,-1,0
28.214939,-1,7,3,-1,2,-1,1,-1,0
28.215592,0,0,-3,-3,0,1,-1,0,0
28.215607,-1,-2,3,-1,-1,-1,-1,0,0
28.237604,-1,-1,-10,-5,-4,0,-1,1,0
28.237633,0,4,-3,-2,-1,-2,1,1,0
28.240840,-2,0,7,3,-1,0,-2,-1,0
28.240848,-1,1,3,-2,-1,0,-2,-1,0
28.252537,0,-5,-1,0,-1,-1,-1,0,0
28.252558,1,-3,-7,1,0,-1,-1,-2,0
28.254498,-2,0,-2,-1,-1,-3,-1,-2,0
28.254503,0,-1,3,-3,-4,1,-3,-2,0
28.275584,-2,-5,-1,-1,-1,-2,0,-1,0
28.275598,-2,1,-2,3,0,-1,0,-2,0
28.275600,-1,5,3,-3,0,0,0,-2,0
28.275602,-1,-8,-8,0,-1,-2,0,-2,0
28.297611,-3,-8,-1,-1,0,-2,-2,-2,0
28.297632,0,-3,-4,-4,-1,0,0,2,0
28.299257,-2,-1,-2,2,-2,-1,1,0,0
28.299261,0,11,7,2,2,-1,-1,-1,0
28.312833,0,-1,-1,-3,-1,0,-1,-2,0
28.312851,-2,-4,0,-1,-5,-1,-2,-1,0
28.315211,-2,2,-2,-3,-1,-1,-1,-2,0
28.315220,-2,-4,-6,0,0,-1,-1,-1,0
28.335577,0,-1,-3,-8,0,0,0,-2,0
28.335615,2,20,8,7,0,-1,0,-2,0
28.337699,-4,-29,-15,-1,-4,0,0,0,0
28.337703,2,2,0,-3,2,-2,-1,-1,0
28.357536,-5,-1,3,4,-1,0,-3,0,0
28.357553,0,1,-1,-6,-2,-2,-1,1,0
28.358511,1,13,-4,-2,-1,0,-2,0,0
28.358526,-2,-15,5,2,0,0,-1,-1,0
28.372494,0,-1,-5,-1,-1,-1,-1,-2,0
28.372517,0,0,-1,-4,-1,-2,-1,-1,0
28.373252,0,7,6,0,1,-2,-1,0,0
28.373338,-2,-2,-3,-1,-3,0,1,-1,0
28.395752,-1,0,1,3,-1,-1,-2,0,0
28.395782,-2,-7,-9,-2,-1,-1,-1,-2,0
28.397717,-3,-4,-5,-3,-2,-2,-1,-1,0
28.397721,0,3,-2,1,0,-1,-1,0,0
28.417262,-1,-1,0,-6,-3,0,-1,0,0
28.417275,-1,-2,-1,6,-1,0,-2,0,0
28.418114,0,-1,3,-4,0,-2,-1,-3,0
28.418179,0,-1,-3,-1,-1,-1,-1,0,0
28.432274,-1,-3,-8,1,-2,-2,0,1,0
28.432295,-1,-9,8,-6,2,-1,-1,-1,0
28.434410,-1,2,4,1,0,0,-1,0,0
28.434414,-2,-3,0,-2,-3,0,0,0,0
28.454967,0,6,-1,-3,-1,-1,0,-3,0
28.457435,-1,1,-4,-7,-1,-2,-1,-1,0
28.457442,-1,-6,-3,5,0,-1,0,0,0
28.457445,-1,7,3,-2,-3,-1,-1,-1,0
28.478869,0,6,1,1,1,-1,-1,-1,0
28.478877,-2,-17,-3,1,0,-1,-1,-2,0
28.478879,-2,-12,0,-3,1,-1,-3,-1,0
28.478881,0,17,7,-5,0,-1,-3,-1,0
28.493569,-2,0,1,7,0,-2,0,-2,0
28.493575,0,7,2,3,0,-3,-1,-1,0
28.500141,1,1,-1,-3,0,1,0,-1,0
28.500174,-2,-5,-3,1,-1,-1,0,0,0
28.514953,0,-6,-3,-5,-1,-1,-1,-2,0
28.514977,-1,5,-1,-6,-2,1,0,-1,0
28.515946,-1,1,2,5,0,-1,-1,1,0
28.515950,-3,-3,-6,-2,-1,0,0,-1,0
28.537938,-1,-1,5,-2,-1,0,1,0,0
28.537970,0,-3,-7,-1,0,-1,-2,0,0
28.540051,-3,5,3,-4,-1,-2,0,-2,0
28.540056,-1,-2,-1,-1,0,-1,-1,0,0
28.560979,1,-4,-5,-3,-1,-2,-3,-1,0
28.561117,-1,-2,8,7,0,1,-1,-1,0
28.561613,1,11,-3,-1,-1,-1,-1,-1,0
28.561626,-3,-19,1,-3,1,-1,0,-2,0
28.574849,-1,-8,-2,1,-2,-2,-2,-1,0
28.574912,0,29,1,-1,-1,-1,-1,1,0
28.575523,-2,-17,-2,0,-1,0,-2,-2,0
28.575529,-1,1,-1,2,-1,-1,-1,-1,0
28.597797,-1,-9,-8,-8,-2,-1,-1,0,0
28.597819,-1,-5,0,-3,-2,-2,-1,-2,0
28.600230,-1,7,4,4,1,-1,-1,0,0
28.600236,2,3,-8,-3,-2,0,-2,-2,0
28.615913,-4,-3,4,0,-1,0,0,-1,0
28.615918,-1,-5,-7,-1,-2,0,-1,-1,0
28.615920,-1,5,3,-2,-2,-3,-2,0,0
28.615921,0,-4,-5,-3,-4,-2,-1,-1,0
28.634781,-1,2,-7,1,0,-1,0,-2,0
28.634787,-1,-3,2,-8,-1,-1,-1,1,0
28.635662,0,-4,-2,1,-3,-1,-1,-2,0
28.635739,-3,-6,-7,-2,0,0,-2,0,0
28.657805,0,10,10,-1,0,0,-2,-2,0
28.659766,1,-5,-4,2,-1,-2,-1,0,0
28.659771,-2,-9,-2,-5,-2,0,1,0,0
28.659772,-1,4,0,-1,-3,-3,-1,-2,0
28.672416,0,-1,2,6,1,-1,1,0,0
28.672442,-1,0,1,-2,-1,-2,-1,-1,0
28.674513,1,6,-4,-2,-2,-2,0,1,0
28.674521,0,6,3,1,-1,-2,-1,-1,0
28.697251,0,-7,-5,-5,0,-1,-2,-1,0
28.697257,-4,-12,-3,-1,-2,-2,-2,0,0
28.697259,-1,5,-3,-4,0,-1,-1,-1,0
28.697261,0,1,2,2,0,1,1,0,0
28.717524,-3,5,3,-3,-1,-2,0,-3,0
28.717551,0,1,-1,1,0,0,-1,-3,0
28.719915,-2,-8,-7,-3,-2,-1,-1,-1,0
28.719920,1,2,2,1,2,-2,-2,1,0
28.732426,-1,-1,1,-1,0,-1,-1,1,0
28.732474,-2,-4,-5,-2,-2,1,0,-1,0
28.733210,-2,0,4,-2,0,-1,-2,-3,0
28.734337,-1,-1,-8,-3,-1,0,0,-1,0
28.755519,2,-2,-5,4,-1,0,-1,1,0
28.755556,-1,3,6,2,0,-1,0,0,0
28.757490,0,1,-1,-1,-2,-2,-2,-2,0
28.757495,-2,-4,-3,-1,0,1,-2,0,0
28.777472,0,-6,-5,-7,-2,-1,-1,-2,0
28.777516,0,0,-3,-3,-2,0,-1,0,0
28.778011,-2,3,3,-2,0,0,-1,-1,0
28.778044,0,-3,2,3,-1,-1,0,-1,0
28.793767,-3,0,2,-5,-1,0,-2,-1,0
28.793791,0,0,-3,5,-2,-2,-2,0,0
28.794678,-1,-2,-3,-3,-1,-1,-2,0,0
28.794703,-2,2,10,1,0,-1,-1,-1,0
28.815058,-1,2,3,1,-1,-2,0,0,0
28.815087,1,11,-4,-3,-1,0,0,-3,0
28.818075,-5,-18,8,-3,0,-2,-1,-2,0
28.818079,1,-2,-3,1,-1,-2,0,-1,0
28.838693,-1,-1,-9,2,0,-1,-1,-2,0
28.838703,1,-1,-6,-5,-1,-1,-1,2,0
28.838707,0,5,-4,2,-1,-1,-1,0,0
28.838711,-1,0,-1,-2,0,0,-1,-2,0
28.851979,-3,-9,-8,-4,-1,-2,-1,0,0
28.853308,-1,-2,6,0,-1,-2,-3,-2,0
28.860014,1,4,3,-1,-2,-1,0,0,0
28.861673,0,-5,2,-1,-1,-2,0,-1,0
28.875022,1,2,-4,-4,-2,0,-1,-1,0
28.876692,-2,-3,-1,0,-2,-2,-1,-2,0
28.876698,1,3,2,5,3,0,-1,0,0
28.876700,-2,-2,0,-7,-1,-1,0,-1,0
28.898905,-1,1,7,6,-1,0,0,1,0
28.898910,-1,-1,-2,-3,-1,-2,-3,-2,0
28.898913,-3,-3,-3,-2,-1,0,-1,-1,0
28.898914,-1,1,-5,2,0,-1,-2,0,0
28.912060,-2,0,1,-4,-2,1,-1,0,0
28.914284,-1,-6,-2,-1,-2,-1,0,-1,0
28.919970,1,1,-5,1,-1,-2,0,0,0
28.919989,-2,1,1,-3,-1,-1,-2,-1,0
28.935251,-1,1,6,0,0,-1,-2,0,0
28.935273,0,7,-6,-3,-1,-2,-2,-1,0
28.937781,-4,-21,-7,0,-1,0,0,-2,0
28.937787,-1,-3,2,1,-1,-1,0,-2,0
28.957449,-2,-1,-1,3,-1,-2,1,-2,0
28.957473,0,3,2,-6,0,0,-1,-2,0
28.958858,-1,4,-4,2,-1,-1,-1,-1,0
28.958861,-1,-2,-2,-2,-1,-1,-1,1,0
28.972616,0,-5,-1,-4,-3,-3,0,-1,0
28.972641,-1,-8,-12,-1,0,0,0,0,0
28.980450,1,12,11,-4,1,1,-2,-2,0
28.980479,1,-3,3,6,0,0,0,0,0
28.995722,-2,5,1,-2,-2,-1,-1,-2,0
28.995751,-3,-8,-2,-2,0,-2,-1,-2,0
28.996259,-1,-2,4,-5,-3,-1,-1,0,0
28.996278,0,10,2,-7,-1,1,-1,-1,0
29.017626,-1,-14,-1,0,0,-2,-1,-1,0
29.017656,0,-4,10,4,-2,-1,1,-2,0
29.019766,-1,1,-2,-1,1,-1,-1,-2,0
29.019770,0,3,0,-2,-3,-3,-1,-2,0
29.031806,-1,3,-3,-8,0,2,-1,-1,0
29.031829,-4,-5,-2,4,2,0,-2,0,0
29.040037,-1,-8,-6,2,-1,-3,1,0,0
29.040057,-3,12,8,-4,-4,-3,-3,-2,0
29.054999,2,2,-3,-2,1,-2,-2,-3,0
29.055046,0,-1,4,3,1,0,0,-2,0
29.055702,1,4,1,-4,-3,0,-2,1,0
29.055716,-1,-9,-13,0,0,0,0,0,0
29.077681,-2,0,-1,-3,-2,-1,-1,0,0
29.077774,0,1,-2,-5,-2,0,-1,1,0
29.079641,-1,4,-2,5,1,0,0,-1,0
29.079646,-1,-10,7,-3,-3,0,0,-2,0
29.091776,-2,-1,-3,3,-1,-3,-3,0,0
29.091793,0,-2,0,-2,-1,-1,0,1,0
29.102633,0,0,-9,-5,-2,-2,-2,0,0
29.102638,1,-1,-5,-1,0,-1,0,-1,0
29.117595,0,0,-1,-1,0,-2,-1,-1,0
29.117599,-2,4,4,2,-1,-2,-2,-1,0
29.117601,-1,-1,-5,-4,-1,0,0,-1,0
29.117603,-1,1,0,-2,-1,0,0,0,0
29.137920,-2,-2,-5,1,-3,-2,0,-1,0
29.137941,1,-1,6,-2,-2,-1,-2,-1,0
29.140001,-1,2,6,0,0,-1,0,-1,0
29.140008,-1,-7,-6,0,2,1,-2,-1,0
29.151875,0,0,-1,-1,-1,1,2,3,0
29.151905,0,-1,-11,0,-2,1,-1,0,0
29.160156,0,-1,-3,-3,-2,-3,-1,-1,0
29.160178,-2,0,-1,-3,-4,-1,-2,-2,0
29.174824,-2,0,-1,-1,-1,0,-2,-3,0
29.174843,0,-4,1,4,1,-2,0,0,0
29.177099,1,-3,8,-3,0,0,-2,0,0
29.177109,-2,-4,-4,3,1,-1,-1,0,0
29.197410,0,1,4,0,-1,0,-2,-1,0
29.197431,0,1,-4,-3,-3,0,-1,0,0
29.198201,-2,-3,-5,-6,-1,0,0,-2,0
29.198220,0,1,1,2,-2,-2,-1,-1,0
29.220689,0,-1,0,2,-1,0,-1,1,0
29.220710,0,-1,-3,-4,1,-1,0,0,0
29.223608,-3,-6,-5,0,-2,-1,-1,-1,0
29.223617,-2,4,3,1,0,-1,-1,0,0
29.235088,1,2,3,0,-1,-1,-1,-1,0
29.235121,-2,-3,2,-3,-1,0,0,-1,0
29.236663,-2,1,-6,4,2,-1,-1,0,0
29.236671,-1,-4,-9,-1,-2,-2,-1,0,0
29.257616,-1,-1,1,-5,-2,-2,-1,-1,0
29.257624,-3,-11,-1,-1,1,-1,-2,-2,0
29.258477,-1,19,4,1,-1,-2,-2,-2,0
29.258492,-2,-7,2,2,0,0,0,-1,0
29.280728,-2,-2,1,-2,1,1,-1,1,0
29.280758,-1,3,-1,-4,-4,1,-1,0,0
29.286605,-1,-10,-4,1,-1,0,-1,-2,0
29.286625,1,3,-5,-2,-1,0,-1,-1,0
29.295187,0,3,0,0,-1,-3,0,-1,0
29.296461,-1,-1,-5,-1,-1,-2,-1,-1,0
29.296469,0,1,3,0,-2,-1,0,-1,0
29.296472,-2,0,-1,-4,-1,-1,1,0,0
29.318355,-1,-1,0,1,1,-1,0,-3,0
29.318362,1,1,-1,1,-2,0,-2,-2,0
29.318364,-1,-4,1,0,-1,0,-2,-1,0
29.318367,-2,-3,-1,-2,0,0,-2,-2,0
29.340822,1,0,-3,-6,-2,0,0,-1,0
29.340850,-1,2,1,4,0,-3,0,-1,0
29.342194,1,-4,-7,0,-1,-1,-2,-2,0
29.342207,1,-3,4,0,-3,-1,-2,0,0
29.354934,-1,-2,-6,0,0,-1,-1,-1,0
29.354952,-1,12,4,-5,-3,-1,0,-1,0
29.356072,-2,-10,-2,-7,-1,-1,0,0,0
29.356077,0,11,8,6,-1,-1,-2,-1,0
29.377718,-1,-5,-2,3,-1,-1,0,1,0
29.377748,-1,-1,-4,-3,-1,-3,-2,-1,0
29.378891,-1,-2,-3,-2,-1,-1,-1,-1,0
29.378896,0,-4,-8,-4,-2,-1,1,-2,0
29.400781,-1,2,1,-2,-2,-1,0,-2,0
29.400849,-1,-6,-2,0,0,1,0,-1,0
29.401345,-2,1,0,-1,-2,0,-1,0,0
29.401451,1,-1,2,-2,0,0,-1,0,0
29.414922,0,-1,-2,0,-1,0,-1,-2,0
29.414940,-2,-4,-4,-2,2,-2,-1,0,0
29.415780,-2,2,1,4,0,-1,-1,-1,0
29.415881,-1,-1,0,-2,-3,-2,-1,-1,0
29.437545,-2,3,3,-2,-1,-1,-2,-2,0
29.437575,-1,-6,-4,2,-3,0,-1,-1,0
29.439351,0,1,2,-4,-1,-2,-1,-1,0
29.439356,-3,-2,-5,-2,-1,0,1,0,0
29.460872,1,-2,-5,-3,-2,-2,-1,1,0
29.460885,0,0,2,0,0,-1,-1,-2,0
29.461620,0,2,2,3,-2,-1,-1,-1,0
29.461732,0,-1,-2,-1,0,-1,0,0,0
29.475054,-1,-4,-5,-2,-2,-2,-3,-1,0
29.475070,0,3,-1,-2,-1,0,-1,0,0
29.475638,-2,-4,-4,1,-2,-1,1,-1,0
29.475657,-1,-4,-1,-3,-3,-2,-2,-2,0
29.497877,-1,0,0,-4,-1,0,-1,0,0
29.497899,-1,1,-4,5,-2,-1,1,-1,0
29.499827,-1,5,9,0,1,-1,-1,-3,0
