timestamp,emg1,emg2,emg3,emg4,emg5,emg6,emg7,emg8,label
10.005550,-6,12,-5,0,-1,-1,-1,-1,-0.062940137
10.005621,5,25,11,6,3,0,-1,0,-0.062940137
10.006122,-1,-7,-1,1,3,-1,1,0,-0.062940137
10.006156,-11,-16,-9,-5,-1,-3,-1,-1,-0.062940137
10.028172,10,24,-6,-2,-2,-1,-1,-2,-0.062940137
10.028223,11,33,-5,-1,-2,-2,2,1,-0.062940137
10.029780,-24,-81,-6,-3,-2,-2,-2,0,-0.062940137
10.029794,2,1,-4,0,0,1,-2,-1,-0.062940137
10.043080,-8,7,-1,-3,-1,-1,-2,-2,-0.062940137
10.043102,-1,1,-2,0,-1,-3,-3,-4,-0.062940137
10.044272,4,29,6,0,-1,1,-1,1,-0.062940137
10.044287,0,28,-6,-1,-2,0,-1,-1,-0.062940137
10.066062,4,-33,-3,-2,-3,-2,-1,0,-0.062926617
10.066093,-5,-1,-3,0,-2,0,-1,0,-0.062926617
10.068179,2,1,5,0,-1,-1,-1,-1,-0.062926617
10.068188,6,2,8,2,0,0,0,-1,-0.062926617
10.088570,-14,27,-2,1,1,1,2,-1,-0.062926617
10.088597,-14,-45,-7,0,-2,-2,-3,-1,-0.062926617
10.089085,6,-25,-8,-4,-3,-1,2,-1,-0.062926617
10.089109,2,9,-5,-3,-2,0,0,-2,-0.062926617
10.111479,3,-2,6,0,1,-1,-2,-1,-0.062926617
10.113599,11,15,-5,-3,-1,-1,0,0,-0.062926617
10.113611,-11,16,0,-1,-1,0,-1,-2,-0.062926617
10.113614,-15,-23,-4,-1,-1,-2,-1,-1,-0.062926617
10.126695,3,19,0,0,-1,0,-1,-1,-0.062926617
10.126742,0,-3,-3,-4,-1,-1,-2,-1,-0.062926617
10.126751,14,21,1,-1,2,-1,-2,-2,-0.062926617
10.126760,-11,-45,-12,1,0,-2,-1,-1,-0.062926617
10.148016,4,19,17,-1,-1,-1,-1,-1,-0.062926617
10.148043,-7,3,-1,-1,0,1,0,-2,-0.062926617
10.148861,-15,-23,-15,-3,-1,-1,-1,-1,-0.062926617
10.148889,1,10,14,0,0,0,-1,0,-0.062926617
10.163182,10,10,-8,-3,0,-2,0,0,-0.062926617
10.163206,-4,-19,-3,-3,0,-1,1,0,-0.062926617
10.164245,-1,11,-8,-2,-1,0,0,-2,-0.062926617
10.164253,10,7,4,0,-1,0,0,0,-0.062926617
10.185418,-1,-12,-8,0,-1,0,-2,0,-0.062926617
10.185435,25,31,7,-6,-2,-2,-2,1,-0.062926617
10.186668,-17,9,-2,5,1,-1,-3,-1,-0.062926617
10.186681,7,-51,-5,-2,-2,-2,1,0,-0.062926617
10.208595,6,-17,9,0,-1,-1,-1,-2,-0.062926617
10.208605,-18,-13,-2,1,0,0,-1,-2,-0.062926617
10.215683,15,44,4,-3,-5,-3,-1,0,-0.062926617
10.215709,-9,0,-3,-3,-2,-1,-1,-3,-0.062926617
10.222945,-8,0,5,2,1,-2,-1,-1,-0.062926617
10.222962,-4,-33,-3,0,-2,-1,0,-1,-0.062926617
10.223711,18,46,2,0,-1,-2,-1,-1,-0.062926617
10.223726,-11,-50,-8,1,-1,-1,0,-1,-0.062926617
10.245670,-4,5,-4,-5,-1,0,-1,-2,-0.062926617
10.245695,-17,1,-3,0,0,0,0,-1,-0.062926617
10.247083,-4,-13,3,0,0,0,-1,1,-0.062926617
10.247095,17,27,-8,-4,-2,-1,-2,0,-0.062926617
10.270198,-8,-2,-2,-2,3,0,-1,1,-0.062926617
10.270216,-3,12,0,-1,0,-1,-1,-3,-0.062926617
10.270222,-1,-4,4,-2,-2,-4,1,-1,-0.062926617
10.270228,17,32,11,1,-2,-1,-2,-2,-0.062926617
10.284795,-22,-7,-15,-2,-4,-2,0,-2,-0.062926617
10.284811,3,-28,-6,-1,-1,0,-2,-1,-0.062926617
10.284818,-25,-34,-1,-1,0,0,-1,-2,-0.062926617
10.284823,3,4,-2,0,0,-2,1,-1,-0.062926617
10.305883,0,6,-1,-5,-4,0,-1,-2,-0.062926617
10.305912,12,22,1,1,-2,0,-2,0,-0.062926617
10.308132,-6,4,-6,-3,-1,-2,-1,-3,-0.062926617
10.308145,-11,9,8,2,1,1,-1,-1,-0.062926617
10.328050,-1,-2,-3,0,0,0,0,1,-0.062976192
10.328070,11,20,-3,-1,-2,-1,0,0,-0.062976192
10.329872,5,9,6,0,1,0,-1,1,-0.062976192
10.329883,-8,-38,-3,-2,-2,-3,-2,-1,-0.062976192
10.343122,0,-24,3,2,0,0,-2,-2,-0.062976192
10.343149,-2,3,-16,-6,-1,0,-2,0,-0.062976192
10.345053,12,15,28,4,-1,0,-1,-1,-0.062976192
10.345070,11,44,-5,-3,-2,0,0,-1,-0.062976192
10.365642,-20,-12,1,-2,-3,-2,-2,-4,-0.062976192
10.365668,-6,-30,6,3,0,-2,-2,-3,-0.062976192
10.366285,5,-23,-13,-3,-2,-2,0,-1,-0.062976192
10.366306,-12,-4,-9,-3,1,-1,-1,-3,-0.062976192
10.388536,21,36,3,2,-1,-1,-2,-1,-0.062976192
10.388568,-16,-36,10,0,0,0,0,0,-0.062976192
10.391173,5,16,-10,-2,-1,1,0,-1,-0.062976192
10.391181,15,-12,-4,-4,-1,-2,-1,0,-0.062976192
10.403011,1,-11,-2,1,1,-2,-1,-1,-0.062976192
10.403042,11,35,-6,-2,-2,-1,0,0,-0.062976192
10.405199,0,10,1,-1,-2,0,-2,-2,-0.062976192
10.405207,3,-7,3,2,-1,-1,0,1,-0.062976192
10.425575,-9,15,-7,-3,-2,1,0,0,-0.062976192
10.425652,-5,-11,5,2,-2,-2,0,-1,-0.062976192
10.426268,9,-38,-10,-6,0,-2,-1,0,-0.062976192
10.426289,-3,32,-1,1,-1,-2,-2,-2,-0.062976192
10.447994,2,19,12,1,0,-3,0,0,-0.062976192
10.448015,3,-6,-1,-2,-2,-2,-2,-1,-0.062976192
10.449440,-5,0,10,2,-1,0,-2,-1,-0.062976192
10.449450,-6,-43,-14,0,3,0,0,1,-0.062976192
10.463026,1,31,1,1,-1,-2,-4,-4,-0.062976192
10.463322,-28,-6,-13,-3,0,0,-1,-1,-0.062976192
10.464450,-4,-10,-5,-4,-4,-4,-2,-1,-0.062976192
10.464463,10,17,4,1,-1,0,-1,-1,-0.062976192
10.487701,15,-12,1,0,-3,-2,0,-2,-0.062976192
10.487718,-8,24,-2,1,0,-1,-1,-2,-0.062976192
10.487724,26,-11,1,0,1,1,1,1,-0.062976192
10.487730,-38,-12,7,-2,-2,-1,-1,-2,-0.062976192
10.508146,2,8,-6,-1,-1,1,0,-1,-0.062976192
10.508224,-1,-46,-1,-1,-2,-1,-3,-2,-0.062976192
10.508996,9,36,3,-1,1,-3,-1,0,-0.062976192
10.509017,3,46,0,-1,-3,-2,0,-1,-0.062976192
10.522761,-7,-55,-8,-1,0,-1,1,0,-0.062976192
10.522785,10,17,2,-3,0,-1,-1,-1,-0.062976192
10.530906,-15,6,10,-1,-1,-1,-1,-3,-0.062976192
10.530938,9,1,-3,-3,-1,-1,-1,0,-0.062976192
10.545531,0,6,7,0,2,0,0,-1,-0.062976192
10.545550,-26,-37,-7,0,1,-1,-2,-2,-0.062976192
10.547788,-6,-18,-12,1,-1,0,-1,-1,-0.062976192
10.547805,4,21,-7,-4,-2,-3,-3,-3,-0.062976192
10.567925,0,-7,3,1,0,0,1,0,-0.062976192
10.567978,9,4,0,-5,-4,-1,-1,-1,-0.062976192
10.568547,6,8,1,0,-1,0,-1,-1,-0.062836485
10.568582,-5,2,0,0,-1,0,-1,-1,-0.062836485
10.582447,3,-11,-8,1,-2,-1,-2,1,-0.062836485
10.582465,2,12,2,0,0,-2,2,-1,-0.062836485
10.590874,-8,2,-1,0,-4,-1,0,0,-0.062836485
10.590898,-9,-41,-6,1,-1,-1,-1,-2,-0.062836485
10.605785,-7,-24,4,-5,0,-2,-1,0,-0.062836485
10.605810,0,15,2,4,-1,1,1,1,-0.062836485
10.608566,-1,-16,2,2,1,-2,-1,1,-0.062836485
10.608580,9,-7,4,-2,0,-1,1,0,-0.062836485
10.629293,9,3,-15,-3,0,-3,-2,-1,-0.062836485
10.629305,-32,-27,2,-2,-2,-2,1,-1,-0.062836485
10.629308,-17,13,-13,-4,-1,-1,-1,-1,-0.062836485
10.629311,2,22,7,0,-1,0,0,-2,-0.062836485
10.642469,-4,-23,-8,-2,-5,0,0,-2,-0.062836485
10.644689,30,32,2,-1,-4,-1,-2,0,-0.062836485
10.650634,-10,-1,8,3,4,-2,1,-2,-0.062836485
10.650651,-2,-15,0,-2,1,-1,-3,-2,-0.062836485
10.665603,-1,33,-6,-3,-2,-2,-2,-2,-0.062836485
10.665660,0,-9,8,2,0,0,-2,0,-0.062836485
10.666327,-5,14,1,-3,-3,-1,-1,0,-0.062836485
10.666344,12,-10,-9,-1,-1,-1,-1,1,-0.062836485
10.688562,2,-11,2,1,1,-2,-1,-1,-0.062836485
10.688597,-20,-4,-13,-1,0,0,2,0,-0.062836485
10.690536,-21,1,-2,-3,-1,-1,0,-2,-0.062836485
10.690543,9,-4,2,4,1,0,-1,-2,-0.062836485
10.702559,2,30,-5,-6,-1,-2,0,1,-0.062836485
10.702591,4,-58,3,2,0,-1,0,-1,-0.062836485
10.710697,3,0,2,-2,-2,-2,-1,-1,-0.062836485
10.710718,-1,29,-7,-3,-2,-2,-2,-1,-0.062836485
10.726314,-14,-27,9,1,-3,-2,-1,-1,-0.062836485
10.726342,14,12,-5,-1,0,-1,-3,-2,-0.062836485
10.726348,10,-3,-4,-1,-3,0,-1,-1,-0.062836485
10.726354,-11,4,1,-1,-2,-1,0,0,-0.062836485
10.748100,3,-5,-3,-2,1,0,-1,-1,-0.062836485
10.748123,16,27,14,-1,-1,-2,0,-1,-0.062836485
10.750396,9,13,-6,1,1,-1,-1,-2,-0.062836485
10.750408,-15,-32,4,-1,-2,0,0,-1,-0.062836485
10.762775,-4,-2,-12,-1,-3,1,-1,-1,-0.062836485
10.762792,8,-3,-7,-2,-2,0,1,0,-0.062836485
10.770492,13,34,5,1,0,2,1,1,-0.062836485
10.770514,-22,-22,5,1,0,-1,-1,-3,-0.062836485
10.785445,-1,-3,-2,0,-1,-2,0,-1,-0.062836485
10.785474,-11,13,-10,-2,2,-1,0,1,-0.062836485
10.786151,1,-46,-14,-7,-2,-4,-1,-1,-0.062836485
10.786158,1,34,10,2,0,0,0,0,-0.062836485
10.808368,-6,-19,-3,-1,1,1,0,-1,-0.062836485
10.808393,9,23,6,2,0,0,1,2,-0.062836485
10.810576,-26,-27,-6,-2,0,-1,-1,-2,-0.062836485
10.810588,0,-17,-8,-5,-3,-1,-1,-1,-0.062836485
10.822619,-9,10,0,0,-1,-2,-1,-2,-0.062836485
10.822643,9,15,1,-2,-2,-1,-1,-1,-0.062836485
10.830942,-1,-5,0,0,1,0,-1,2,-0.062998723
10.830981,27,-3,-3,-2,1,-2,-1,-1,-0.062998723
10.847695,-14,33,0,-1,-1,-1,-3,-1,-0.062998723
10.847701,-7,-69,1,-1,0,-1,-2,-4,-0.062998723
10.847704,-5,-19,-7,-2,-1,-3,-3,-2,-0.062998723
10.847707,-3,29,8,-3,-2,-2,-1,0,-0.062998723
10.868147,13,12,3,4,0,-1,0,0,-0.062998723
10.868172,-12,13,0,1,1,-1,1,2,-0.062998723
10.868714,13,8,-5,-4,-2,-1,-4,-6,-0.062998723
10.870040,-8,-53,-9,-1,-2,-1,0,2,-0.062998723
10.891205,17,27,7,0,0,0,0,-2,-0.062998723
10.891222,4,-4,3,-4,0,-2,-1,0,-0.062998723
10.894498,-38,-8,-1,1,-2,-1,1,0,-0.062998723
10.894517,14,27,1,-1,-3,-1,0,0,-0.062998723
10.906014,-1,-25,0,-1,-2,-1,-1,-1,-0.062998723
10.906044,-18,7,-5,0,-1,0,-2,-3,-0.062998723
10.908765,15,4,-2,-3,0,0,1,-1,-0.062998723
10.908779,-10,11,-4,-1,0,-1,-1,1,-0.062998723
10.928305,8,-8,1,0,0,-1,0,2,-0.062998723
10.928329,-1,-4,-1,-3,-2,-1,-1,-1,-0.062998723
10.929053,0,2,-3,-1,-2,0,0,-1,-0.062998723
10.929119,26,54,3,3,0,1,0,0,-0.062998723
10.951117,-38,-64,3,-1,1,-1,0,-4,-0.062998723
10.951134,-9,35,1,-2,-4,-2,-3,3,-0.062998723
10.952687,29,-9,2,0,0,-1,1,0,-0.062998723
10.952698,4,32,1,-1,0,-1,-2,-1,-0.062998723
10.965533,11,42,10,2,-1,-2,0,1,-0.062998723
10.965735,-31,-77,-12,-2,-2,0,-1,-3,-0.062998723
10.967535,1,16,6,0,-3,0,-1,0,-0.062998723
10.967541,-2,-37,-6,-1,-2,-2,-2,-2,-0.062998723
10.987979,3,15,1,0,0,-1,-1,-4,-0.062998723
10.988012,12,35,-9,-2,1,-1,1,4,-0.062998723
10.988781,2,-14,2,1,0,1,-2,-2,-0.062998723
10.988788,-7,21,-5,-4,-4,-2,-1,-3,-0.062998723
11.011400,17,-13,5,-1,0,0,-2,2,-0.062998723
11.011475,8,2,4,2,0,1,0,0,-0.062998723
11.013116,6,0,6,1,-2,-1,0,3,-0.062998723
11.013125,-16,-18,-8,-5,1,-1,-2,-3,-0.062998723
11.025695,-13,-30,-8,-3,-4,-1,-2,-5,-0.062998723
11.025722,19,7,-3,2,1,-1,-1,-1,-0.062998723
11.027554,-7,-3,0,0,0,-1,-2,-4,-0.062998723
11.027584,-5,11,3,-1,-2,-2,0,-3,-0.062998723
11.050339,9,-4,-16,-4,-4,0,0,5,-0.062998723
11.050351,10,3,13,0,-1,0,-1,1,-0.062998723
11.050353,-33,28,1,0,-1,-1,-1,-4,-0.062998723
11.050356,-3,-38,-4,-3,-2,0,-2,0,-0.062998723
11.071540,-12,-48,-17,-1,-1,-1,1,0,-0.062998723
11.071572,-21,33,20,-3,-4,-2,-2,-2,-0.062998723
11.073337,2,-46,-9,-1,-1,0,-1,1,-0.062998723
11.073350,11,86,0,2,-2,-1,-1,0,-0.062998723
11.085465,7,-16,1,-1,-1,-3,-1,-2,-0.063007738
11.085482,8,14,-2,-1,1,0,-2,-4,-0.063007738
11.087164,8,7,6,3,3,-1,-2,1,-0.063007738
11.087174,-19,-28,-6,-2,-1,-2,-1,4,-0.063007738
11.108685,3,27,-3,-8,-2,-1,-1,-4,-0.063007738
11.108719,7,-40,1,8,2,-1,-1,-2,-0.063007738
11.111470,-20,0,7,-2,-1,-1,-3,-6,-0.063007738
11.111483,30,-34,-4,-1,-1,-2,-1,2,-0.063007738
11.131359,-23,17,5,-1,0,0,-4,-2,-0.063007738
11.131385,1,-18,-14,-6,-1,0,-2,-1,-0.063007738
11.132047,1,25,-3,-2,-3,0,-1,1,-0.063007738
11.132063,-3,-18,2,1,1,-1,1,-4,-0.063007738
11.145737,4,13,3,1,-1,-2,0,1,-0.063007738
11.145805,-7,16,0,-2,-3,-3,-1,-2,-0.063007738
11.146354,12,32,1,2,-1,-1,-1,2,-0.063007738
11.146376,-26,-67,-11,-3,1,1,-2,-2,-0.063007738
11.168614,7,24,16,3,0,-1,-1,-6,-0.063007738
11.168646,2,13,-8,-1,0,-2,1,0,-0.063007738
11.170663,-24,4,5,-2,-3,-3,-2,-1,-0.063007738
11.170671,0,34,0,0,-1,1,0,-2,-0.063007738
11.191165,0,-38,-9,0,-1,1,-1,3,-0.063007738
11.191206,5,4,-9,-5,2,-1,-2,-1,-0.063007738
11.192376,-11,-12,6,2,3,0,2,0,-0.063007738
11.192547,-13,15,-1,-2,-1,-1,-1,-7,-0.063007738
11.205813,11,-6,-4,-7,-2,-2,0,5,-0.063007738
11.205825,4,2,-4,-1,-3,-2,-2,-1,-0.063007738
11.206465,12,36,-14,-3,-1,-3,-1,2,-0.063007738
11.206506,-6,-65,3,0,-1,-3,-1,-1,-0.063007738
11.228144,-2,15,-4,-1,-2,-2,-3,-8,-0.063007738
11.228167,-12,-13,-6,-2,-1,-1,0,1,-0.063007738
11.230229,1,6,20,-2,-3,-1,-1,-2,-0.063007738
11.230241,13,23,1,0,-1,-1,0,0,-0.063007738
11.252404,-31,-23,-8,-1,0,0,-1,0,-0.063007738
11.252414,2,65,10,-4,-2,-1,-3,-7,-0.063007738
11.252417,0,-84,-10,-2,-1,-1,-1,-3,-0.063007738
11.252419,2,9,0,1,1,-2,0,-1,-0.063007738
11.268097,5,12,4,-1,-3,-2,-1,1,-0.063007738
11.268107,12,32,-15,-4,-4,-2,0,0,-0.063007738
11.268110,10,-5,10,1,-1,0,0,1,-0.063007738
11.268113,-49,-31,5,4,1,0,-1,-5,-0.063007738
11.288094,11,21,-9,2,-2,-2,-1,-1,-0.063007738
11.288119,5,18,6,-4,-2,-3,-2,0,-0.063007738
11.289206,15,-68,-27,-3,-1,0,0,0,-0.063007738
11.289220,-6,-14,17,-2,3,1,0,-2,-0.063007738
11.311511,4,-5,0,-4,0,-1,-2,0,-0.063007738
11.311540,-5,-13,3,-1,-2,1,-1,-1,-0.063007738
11.313095,4,26,-24,-7,1,-1,-1,-3,-0.063007738
11.313118,26,20,2,1,-2,-1,0,2,-0.063007738
11.325600,-10,-4,-4,-3,-2,-1,-1,9,-0.063007738
11.325626,7,-45,0,5,1,-1,0,-2,-0.063007738
11.326712,-18,26,11,-1,1,0,1,2,-0.063007738
11.326730,-2,-6,4,0,-1,-1,-1,-4,-0.063007738
11.348218,7,19,11,0,1,0,1,-2,-0.062922111
11.348246,-5,4,-1,-7,-2,0,0,1,-0.062922111
11.348847,-4,-62,-14,0,-1,0,0,-4,-0.062922111
11.348870,20,3,-8,0,-3,-4,-1,0,-0.062922111
11.371505,-9,6,12,1,-1,-1,0,-3,-0.062922111
11.371529,-14,0,-2,0,0,-2,-2,-4,-0.062922111
11.372598,-5,37,-1,-2,2,-1,-1,2,-0.062922111
11.372602,13,-7,-1,-3,-1,-1,-3,2,-0.062922111
11.385487,-8,-16,-11,-5,-2,-5,-3,-5,-0.062922111
11.385512,-7,23,-8,-1,0,0,1,-2,-0.062922111
11.386615,4,-40,2,4,-2,-1,-2,-1,-0.062922111
11.386625,-31,-1,-3,1,1,1,0,4,-0.062922111
11.410707,1,-6,-9,0,-1,2,-2,-4,-0.062922111
11.410723,5,13,15,-3,0,-3,-1,-3,-0.062922111
11.415897,6,-1,-5,-2,-2,0,0,-1,-0.062922111
11.415912,3,20,-2,-1,-1,-2,-1,-4,-0.062922111
11.431534,11,0,1,-2,-2,-2,-1,5,-0.062922111
11.431552,-6,-20,-9,-1,-2,-1,-1,0,-0.062922111
11.433330,7,28,2,1,-2,0,-1,1,-0.062922111
11.433343,-10,-11,2,-2,-1,-2,-2,-1,-0.062922111
11.445669,12,48,16,-1,2,0,-1,-4,-0.062922111
11.445695,-1,-76,-1,6,-1,-2,1,-1,-0.062922111
11.446272,1,7,-3,-3,-1,-3,-2,-1,-0.062922111
11.446288,-1,3,-9,-1,-2,0,1,0,-0.062922111
11.468387,12,32,-4,-2,-1,0,0,0,-0.062922111
11.468512,-9,-26,6,4,-1,-1,-1,3,-0.062922111
11.471338,-12,-14,0,-3,-2,0,1,0,-0.062922111
11.471347,12,1,-2,1,-1,-3,-2,-2,-0.062922111
11.491523,-8,5,-2,-4,-1,0,0,-5,-0.062922111
11.491550,-4,4,-4,-2,-2,-1,-1,2,-0.062922111
11.494366,-3,7,-12,1,-1,-2,0,-2,-0.062922111
11.494386,9,4,12,-1,0,-1,-2,0,-0.062922111
11.505134,3,20,9,4,0,-2,0,-2,-0.062922111
11.505174,-34,-83,-2,-3,-1,0,-3,-3,-0.062922111
11.520473,9,8,-7,-7,-2,-2,-1,-1,-0.062922111
11.520485,-5,23,-11,-4,-2,0,-1,0,-0.062922111
11.528207,19,-39,4,4,-2,-1,-2,-1,-0.062922111
11.528232,-7,79,12,-7,0,-1,0,-1,-0.062922111
11.530927,7,27,5,3,-1,-1,-2,-2,-0.062922111
11.530934,-12,-67,-2,1,-2,0,0,-5,-0.062922111
11.551159,16,-5,-9,-4,0,-1,-1,2,-0.062922111
11.551195,10,21,-14,-6,-3,-2,-1,0,-0.062922111
11.551825,-19,-15,17,6,1,0,-1,-5,-0.062922111
11.551832,2,48,2,-4,0,0,1,3,-0.062922111
11.573868,-3,-23,-9,-1,-2,-2,-2,-2,-0.062922111
11.573897,6,-9,1,1,-3,-1,0,0,-0.062922111
11.589553,-5,15,8,-2,1,-1,-2,-3,-0.062922111
11.589588,-2,-23,-12,1,-2,-1,-1,-1,-0.062922111
11.593544,-23,-1,-1,-2,-1,0,0,2,-0.063034778
11.593558,3,-5,4,-3,-1,-2,-1,-8,-0.063034778
11.593561,14,-38,-2,-2,0,-1,1,9,-0.063034778
11.593564,15,17,5,2,-1,-1,-1,0,-0.063034778
11.611774,-24,-28,-14,-5,-1,-2,0,-2,-0.063034778
11.611790,5,43,14,4,1,0,-1,-3,-0.063034778
11.612351,-18,-6,3,-4,-5,-2,-2,-7,-0.063034778
11.612360,26,29,2,-1,5,0,2,1,-0.063034778
11.627064,-23,-48,0,0,0,-2,-2,-2,-0.063034778
11.627077,6,-13,-15,0,-1,-1,0,3,-0.063034778
11.633012,8,45,8,-10,-4,-2,-1,0,-0.063034778
11.633748,-7,-30,-1,10,6,0,-1,-7,-0.063034778
11.648020,5,14,2,5,1,1,1,2,-0.063034778
11.648046,4,-6,-1,4,0,1,0,0,-0.063034778
11.649289,10,0,-10,-7,-1,-1,0,3,-0.063034778
11.649298,-12,24,11,-3,-7,-2,-4,-6,-0.063034778
11.673186,14,0,-4,-1,0,1,0,0,-0.063034778
11.673193,-31,-33,-4,4,-1,0,-2,-1,-0.063034778
11.673196,27,67,-8,0,-2,-1,0,4,-0.063034778
11.673198,-25,-73,-11,-6,-4,-2,-2,0,-0.063034778
11.684937,23,14,0,-1,-1,-3,-1,-1,-0.063034778
11.684969,-18,-10,0,-1,-1,-1,0,1,-0.063034778
11.693301,6,7,-9,-1,1,0,0,0,-0.063034778
11.693327,7,27,13,3,1,-1,2,2,-0.063034778
11.708392,-2,33,16,-1,0,0,-2,-3,-0.063034778
11.708420,-9,-30,-11,7,0,-2,0,0,-0.063034778
11.710621,-8,26,12,2,0,0,-1,-5,-0.063034778
11.710636,-11,-43,-6,-5,-3,-1,-2,-1,-0.063034778
11.731394,-14,-48,-14,-3,-2,-1,-1,-2,-0.063034778
11.732840,2,24,2,-4,0,-1,-1,-3,-0.063034778
11.732852,15,-25,-1,4,0,1,0,1,-0.063034778
11.732855,-5,27,-1,-9,-4,-1,0,1,-0.063034778
11.744910,21,92,7,7,-1,-1,0,2,-0.063034778
11.744933,-26,-72,-13,-6,0,0,1,1,-0.063034778
11.753493,6,-16,0,-1,-1,-1,-2,-15,-0.063034778
11.753525,2,27,-11,-4,-1,-2,-2,7,-0.063034778
11.767958,-2,5,-2,-4,0,-1,-1,-2,-0.063034778
11.768014,29,11,5,-1,0,0,1,0,-0.063034778
11.768577,-32,-10,6,2,-3,-2,0,0,-0.063034778
11.768614,27,-20,-6,-1,-1,0,0,3,-0.063034778
11.791205,-17,11,-8,-1,-2,-1,-1,-1,-0.063034778
11.791238,4,5,-5,-8,-3,-2,-2,-1,-0.063034778
11.793738,3,19,7,4,1,-2,-1,1,-0.063034778
11.793755,15,-34,-14,-4,-2,-1,-3,-2,-0.063034778
11.813710,-53,-27,-1,-1,-1,0,0,-4,-0.063034778
11.813725,14,11,2,-3,-2,-1,-2,4,-0.063034778
11.814368,-16,-15,1,-2,1,0,0,1,-0.063034778
11.814375,10,31,-10,2,0,-2,-2,-4,-0.063034778
11.828175,3,-7,11,-1,-2,-2,-2,-3,-0.063034778
11.828190,8,-9,2,-2,-2,-1,-1,-2,-0.063034778
11.828708,1,21,-8,3,3,1,0,2,-0.063034778
11.828717,-6,-33,-5,-7,-6,-4,-2,-2,-0.063034778
11.851133,-1,-18,7,-1,-6,-3,-2,-3,-0.063012243
11.851151,20,42,-2,10,4,-1,1,-1,-0.063012243
11.851858,-26,-33,6,-6,-2,-2,-1,1,-0.063012243
11.851863,12,23,15,-2,-1,-2,1,-2,-0.063012243
11.874248,-7,11,-9,2,1,-3,-3,4,-0.063012243
11.874255,12,13,-5,-8,-5,-3,-1,4,-0.063012243
11.874258,7,-25,-11,-1,0,-2,2,5,-0.063012243
11.874303,-5,6,1,2,-3,0,-1,-8,-0.063012243
11.889746,-47,-48,-12,-8,-1,-2,-3,-7,-0.063012243
11.889755,23,60,5,-1,-2,0,-2,-2,-0.063012243
11.889757,-17,-24,-8,-5,-1,-1,-2,0,-0.063012243
11.889760,-2,4,-1,2,1,1,2,4,-0.063012243
11.911395,19,-24,-4,0,5,1,1,0,-0.063012243
11.911444,-17,0,-5,-12,-4,-2,-5,-5,-0.063012243
11.912655,10,-1,-10,3,0,-1,-1,-2,-0.063012243
11.912670,-11,18,11,2,-2,-2,0,1,-0.063012243
11.934041,19,-8,-5,2,-2,1,0,-2,-0.063012243
11.934075,-3,-4,1,-2,1,-1,-1,-2,-0.063012243
11.936072,5,43,-4,1,-3,-2,-1,-4,-0.063012243
11.936084,-15,-53,-2,-2,1,0,-1,-2,-0.063012243
11.948571,-9,-11,-7,-11,-1,-2,1,3,-0.063012243
11.948604,1,-28,-1,6,-2,-1,0,3,-0.063012243
11.951005,23,15,4,-1,-2,0,-2,-3,-0.063012243
11.951017,4,50,2,4,2,0,-2,-4,-0.063012243
11.971089,7,26,2,-5,0,1,1,2,-0.063012243
11.971116,-30,-21,-3,-1,0,-1,0,-2,-0.063012243
11.971843,0,30,6,1,-1,0,-1,-4,-0.063012243
11.971865,-1,-45,-4,-2,-3,-2,-1,-1,-0.063012243
11.994102,17,-21,-6,-2,-2,-1,-1,0,-0.063012243
11.994124,-3,20,5,-6,2,1,1,-1,-0.063012243
11.996423,28,11,2,5,0,0,-1,2,-0.063012243
11.996436,-42,-15,14,3,1,0,0,6,-0.063012243
12.007996,-1,12,-3,-1,-2,-2,-3,-1,-0.063012243
12.008045,-3,3,-9,-1,-2,-1,-1,-2,-0.063012243
12.010155,-11,-4,3,-4,-3,-2,-2,-2,-0.063012243
12.010168,25,-1,-21,-8,-1,0,-1,-5,-0.063012243
12.031229,-5,-22,15,6,-3,-1,-2,-1,-0.063012243
12.031265,-1,35,7,5,1,1,0,-1,-0.063012243
12.031911,-17,-26,-3,-8,-2,-4,-2,-5,-0.063012243
12.031918,7,-4,0,6,-2,-1,-1,-1,-0.063012243
12.053666,6,-14,0,3,-1,-1,1,-1,-0.063012243
12.053680,14,52,10,6,0,0,-1,-2,-0.063012243
12.056152,-2,-23,4,-3,-1,-1,-2,2,-0.063012243
12.056160,-15,21,-9,0,-2,0,0,-6,-0.063012243
12.067975,9,-7,-6,-14,2,-1,1,0,-0.063012243
12.067991,-6,-25,-9,0,-1,-1,-2,-3,-0.063012243
12.068712,-12,7,4,-8,-3,-1,-1,-3,-0.063012243
12.068717,1,-28,-4,6,2,0,-1,2,-0.063012243
12.093950,10,35,5,4,-3,-1,0,-1,-0.063012243
12.093970,9,10,-10,-7,1,0,0,3,-0.063012243
12.093973,-28,-56,9,-5,-1,-2,-3,-3,-0.063012243
12.093976,21,12,1,-2,-1,0,-2,-3,-0.063012243
12.113632,5,26,-3,5,0,0,-2,-1,-0.062989713
12.113651,0,-16,0,1,-1,1,-1,-5,-0.062989713
12.114518,7,18,-18,1,-3,-1,-3,2,-0.062989713
12.114544,0,16,2,-7,-1,-2,-1,3,-0.062989713
12.128277,-5,-6,2,0,-1,0,-2,-1,-0.062989713
12.128296,-25,-31,-6,-2,-1,-1,-1,-4,-0.062989713
12.128748,15,7,3,0,1,-1,2,2,-0.062989713
12.128756,0,-3,3,-2,-1,-1,-1,-2,-0.062989713
12.151537,-17,14,0,0,-2,-2,0,-1,-0.062989713
12.151555,21,-31,-5,-2,-3,-3,-1,0,-0.062989713
12.154647,-18,-1,-2,3,-1,0,1,-2,-0.062989713
12.154656,4,24,28,2,-1,-2,-1,2,-0.062989713
12.173698,-2,-17,-13,-2,-1,0,-1,-1,-0.062989713
12.173731,13,-21,-10,1,-1,2,0,6,-0.062989713
12.174464,-67,-80,-2,-6,0,-1,-3,-13,-0.062989713
12.174471,51,95,-7,-1,-1,-1,-1,3,-0.062989713
12.187368,-6,-14,4,-5,-2,-2,-2,-4,-0.062989713
12.187404,3,26,2,-6,-4,-3,-2,1,-0.062989713
12.197332,14,-25,-9,8,1,1,0,3,-0.062989713
12.197346,-19,-15,-2,-2,1,1,0,-2,-0.062989713
12.211377,-1,-14,-3,0,-4,-1,-1,-5,-0.062989713
12.211396,-5,10,-3,-4,4,-1,-1,-2,-0.062989713
12.212789,14,19,8,1,2,-1,-1,-1,-0.062989713
12.212856,-15,-35,-3,-4,-2,-2,-2,2,-0.062989713
12.234119,6,15,0,3,0,0,-1,-2,-0.062989713
12.234137,-11,13,-2,-1,-2,0,0,0,-0.062989713
12.235187,2,-26,-4,-5,-4,-2,-1,-2,-0.062989713
12.235221,-25,-7,-5,-1,0,-2,0,-4,-0.062989713
12.248234,8,13,4,-4,-1,-1,-2,1,-0.062989713
12.248250,13,-19,2,3,-2,-2,-1,2,-0.062989713
12.258862,15,48,3,-1,1,0,0,-1,-0.062989713
12.258870,-15,-14,-8,-4,-2,0,-2,-6,-0.062989713
12.271593,1,-13,2,0,0,-1,2,-2,-0.062989713
12.271617,-8,-60,-4,-3,-5,-1,-3,-2,-0.062989713
12.273422,15,72,20,4,2,0,-2,0,-0.062989713
12.273428,1,-6,-5,-3,-1,0,1,-1,-0.062989713
12.294431,-13,18,-3,1,0,-3,-1,4,-0.062989713
12.294446,-4,21,11,5,2,0,-2,-7,-0.062989713
12.295391,0,-35,-10,-2,-2,-1,0,7,-0.062989713
12.295410,2,-25,-7,-2,-1,0,0,0,-0.062989713
12.310375,9,31,3,-2,-3,0,-1,-1,-0.062989713
12.310389,16,6,5,-3,0,-1,-2,4,-0.062989713
12.317032,-10,0,-10,7,0,0,-1,-5,-0.062989713
12.317044,17,11,-2,-4,-2,-1,-2,-2,-0.062989713
12.331386,-19,-19,-10,1,0,-2,-1,-6,-0.062989713
12.331410,-6,-20,-1,4,-1,-2,0,-1,-0.062989713
12.333297,27,51,4,-3,-2,1,1,6,-0.062989713
12.333307,-38,-72,-11,-3,-1,-2,-3,-1,-0.062989713
12.356530,-5,-18,-1,2,2,0,1,4,-0.062989713
12.356537,-3,17,0,3,0,-2,-2,-5,-0.062989713
12.356541,3,-11,-5,-5,-3,-3,0,0,-0.062989713
12.356543,11,38,-9,1,0,-1,0,1,-0.062989713
12.367841,1,13,5,-4,-2,0,-1,3,-0.063057309
12.367874,-6,-16,-4,-2,-1,1,1,4,-0.063057309
12.378234,17,2,-2,-2,-3,-3,-3,0,-0.063057309
12.378248,-22,0,-5,-2,0,-1,0,-3,-0.063057309
12.391832,3,-11,-1,-7,-5,-3,-2,-7,-0.063057309
12.391855,-3,-8,-1,1,-2,-1,-1,6,-0.063057309
12.393126,-1,-11,-2,0,-3,-1,-1,-1,-0.063057309
12.393161,-4,35,10,0,-1,-2,-3,-2,-0.063057309
12.413770,9,8,1,0,0,1,0,3,-0.063057309
12.413787,-7,-8,-5,-2,-3,-1,0,-7,-0.063057309
12.415479,-9,48,5,-2,1,-2,-1,-1,-0.063057309
12.415494,-12,-75,-4,-4,-3,-1,-2,-7,-0.063057309
12.427433,3,19,2,0,0,0,-1,-2,-0.063057309
12.429380,3,-6,-5,0,1,1,2,-4,-0.063057309
12.436420,-3,11,-1,-4,-1,-2,-3,-3,-0.063057309
12.436426,-24,58,0,2,-1,0,0,-2,-0.063057309
12.451105,17,-28,-6,-4,-2,-2,-1,2,-0.063057309
12.451112,9,5,-2,-3,-1,-3,-2,-7,-0.063057309
12.452659,-20,-28,0,0,-2,-1,-4,-3,-0.063057309
12.452680,15,13,6,0,-2,-1,0,1,-0.063057309
12.474049,-2,-18,-3,0,0,0,0,-1,-0.063057309
12.476284,-7,14,3,-2,-1,0,1,1,-0.063057309
12.476301,-1,-24,-10,-4,-1,0,-2,-2,-0.063057309
12.476304,6,-10,1,1,-1,0,-1,2,-0.063057309
12.487661,-5,3,1,2,3,1,-1,-6,-0.063057309
12.487700,9,13,-11,-4,-1,-2,0,2,-0.063057309
12.498221,-7,-19,2,-1,-2,0,-2,-7,-0.063057309
12.498231,24,9,-1,3,1,-1,1,4,-0.063057309
12.511575,-19,-7,3,-3,-1,-3,-2,-4,-0.063057309
12.511649,4,35,2,0,-2,-2,-1,-5,-0.063057309
12.513834,-7,-36,-8,-2,0,0,0,-3,-0.063057309
12.513846,7,-19,1,-2,-3,-1,-3,-1,-0.063057309
12.533708,3,31,-4,0,-4,-1,-2,0,-0.063057309
12.533732,-24,18,0,-2,0,-1,-1,-1,-0.063057309
12.535182,15,-1,2,1,0,0,1,4,-0.063057309
12.535187,16,40,1,-1,0,0,-1,-2,-0.063057309
12.547348,1,-39,3,-1,0,0,0,0,-0.063057309
12.547367,1,-15,-2,1,-2,1,0,4,-0.063057309
12.557404,-4,-4,-11,-1,-1,0,0,-1,-0.063057309
12.557418,-8,9,-5,1,1,-2,0,0,-0.063057309
12.570923,16,18,5,0,-2,-2,0,-2,-0.063057309
12.570944,-16,6,7,0,0,-1,-1,0,-0.063057309
12.577443,-6,-27,-6,-3,-1,-2,-3,-3,-0.063057309
12.577465,-3,-12,-2,0,-1,0,1,-1,-0.063057309
12.593723,0,24,4,0,-2,-1,-1,-2,-0.063057309
12.593739,15,-47,-14,-3,0,-1,-1,1,-0.063057309
12.595312,-8,8,9,0,-1,-1,0,2,-0.063057309
12.595328,-28,-28,8,-3,0,-1,-2,-5,-0.063057309
12.609113,5,20,-4,0,0,-1,-2,1,-0.063057309
12.609126,8,17,5,0,0,0,-2,-2,-0.063057309
12.616544,-11,-29,-4,0,-2,-1,0,-2,-0.062958162
12.616555,32,31,-8,-3,-3,-2,-2,9,-0.062958162
12.630626,-25,-37,-7,0,-2,-1,-1,-1,-0.062958162
12.631881,-12,-8,10,-1,-1,-2,-2,-3,-0.062958162
12.637696,9,52,11,0,0,0,1,-5,-0.062958162
12.640009,-1,1,3,-1,-2,0,0,-3,-0.062958162
12.656448,11,-8,-4,2,2,0,0,7,-0.062958162
12.656457,-25,-43,2,0,-2,-1,-5,-16,-0.062958162
12.656460,-5,9,-10,-3,-2,-2,-1,-2,-0.062958162
12.656463,8,-14,-3,-2,-3,-3,0,1,-0.062958162
12.667446,27,-1,-2,-4,-1,-1,1,4,-0.062958162
12.667478,-27,32,9,1,-1,-1,-1,-8,-0.062958162
12.678386,6,-38,-5,-3,-2,-1,-3,2,-0.062958162
12.678400,-17,36,3,-3,-1,0,-1,-8,-0.062958162
12.690855,0,-33,-7,-1,-2,-2,-1,1,-0.062958162
12.690883,12,-2,-10,-2,1,-1,2,7,-0.062958162
12.697421,10,26,-5,2,-2,0,-1,-2,-0.062958162
12.697446,-17,-18,2,1,1,-2,-2,1,-0.062958162
12.713845,-13,-1,-10,-5,-3,-2,-1,-5,-0.062958162
12.713862,-1,4,16,2,0,0,-1,2,-0.062958162
12.715374,7,-27,-1,-2,-1,-2,-1,2,-0.062958162
12.715389,9,8,-8,-2,-3,-1,0,-2,-0.062958162
12.727647,-11,-11,-13,-3,-1,-2,-2,-7,-0.062958162
12.727677,1,-7,9,0,-2,-2,0,-3,-0.062958162
12.744762,6,36,0,-2,0,-1,-1,0,-0.062958162
12.744779,10,-25,-7,-4,0,0,0,2,-0.062958162
12.751129,-30,-23,14,-1,0,0,-1,-5,-0.062958162
12.751160,28,19,-14,-4,-1,0,0,9,-0.062958162
12.757898,-34,-20,-5,7,2,-1,-1,-2,-0.062958162
12.757922,7,50,18,1,-2,-1,-2,-7,-0.062958162
12.774484,11,-42,-11,1,-3,1,1,3,-0.062958162
12.774506,-16,-1,-6,-6,0,-1,-2,-2,-0.062958162
12.777060,11,17,8,-1,-1,-2,-1,3,-0.062958162
12.777073,-2,-4,-10,1,0,-3,0,-3,-0.062958162
12.796989,25,5,9,-3,-1,0,-1,13,-0.062958162
12.797002,-37,20,0,0,-3,0,-2,-7,-0.062958162
12.798563,-10,-32,-10,-5,-1,-2,-3,-1,-0.062958162
12.798584,20,25,-8,-3,-1,1,0,4,-0.062958162
12.810810,-4,-20,6,1,1,0,-1,0,-0.062958162
12.810834,8,-21,-9,0,-1,1,-1,4,-0.062958162
12.817351,-3,22,4,2,-1,0,-1,-4,-0.062958162
12.817376,9,-19,3,0,1,-1,-1,1,-0.062958162
12.834086,-3,36,7,-1,-3,-1,-3,-2,-0.062958162
12.834118,-20,-6,-9,1,1,0,-2,-7,-0.062958162
12.837456,13,-66,-8,-5,-4,-1,0,18,-0.062958162
12.837463,-9,-9,-2,-3,-1,-1,-2,0,-0.062958162
12.856305,4,29,1,0,-1,-1,-1,-8,-0.062958162
12.856336,-10,-7,-8,-4,-2,0,0,-5,-0.062958162
12.857767,0,5,6,4,2,0,-1,-5,-0.062958162
12.857784,-9,-29,0,-2,-2,-1,-2,-1,-0.062958162
12.872508,-1,30,-8,2,0,-1,0,-4,-0.063034778
12.872516,39,-9,19,-1,-5,-2,-4,2,-0.063034778
12.884846,-8,0,1,-1,1,0,-1,-2,-0.063034778
12.884864,-8,-16,-9,-1,0,-1,-1,0,-0.063034778
12.894059,13,17,-4,-3,-3,-3,-1,-3,-0.063034778
12.894088,-25,-7,-1,-1,-1,-2,-1,-1,-0.063034778
12.896538,4,-29,-1,-2,-3,-1,0,-2,-0.063034778
12.896550,11,34,-11,-2,-3,-1,-1,-3,-0.063034778
12.916340,-18,-52,13,-3,-1,-1,-1,-5,-0.063034778
12.916364,7,31,8,3,-1,0,0,0,-0.063034778
12.917706,10,-4,-10,0,0,-3,-2,2,-0.063034778
12.917714,-13,-16,-10,-3,-1,0,1,0,-0.063034778
12.930594,0,43,5,2,1,0,1,3,-0.063034778
12.930623,9,-28,14,0,0,-1,-2,0,-0.063034778
12.937412,16,14,-1,-2,-1,0,0,0,-0.063034778
12.937444,-33,30,5,-2,-2,-2,-2,-5,-0.063034778
12.954707,-4,-6,-8,-4,-3,-2,-5,-3,-0.063034778
12.954743,-3,1,-8,4,0,-1,0,-3,-0.063034778
12.956710,-5,30,5,-5,-2,-2,-2,-1,-0.063034778
12.956717,17,-49,-1,1,-1,-1,0,6,-0.063034778
12.976262,9,14,-1,-5,-2,-2,-2,-5,-0.063034778
12.976286,-37,-5,11,4,1,-2,1,2,-0.063034778
12.978463,16,59,-1,-2,0,1,0,-5,-0.063034778
12.978476,-28,-40,9,3,-2,-1,-1,-8,-0.063034778
12.990444,-8,1,-27,-4,-1,0,0,-2,-0.063034778
12.990476,34,31,7,-3,-4,-2,-3,3,-0.063034778
13.000111,-22,-48,1,2,0,-1,-3,-1,-0.063034778
13.000124,1,18,6,1,0,0,-2,-6,-0.063034778
13.021981,-18,42,4,0,-2,1,0,-6,-0.063034778
13.022070,-5,-44,-27,-6,-3,0,-1,1,-0.063034778
13.024421,8,8,-31,-6,-5,-2,0,-1,-0.063034778
13.024427,-4,-9,48,4,1,0,-1,1,-0.063034778
13.036779,11,19,-25,3,1,1,-2,1,-0.063034778
13.036812,-9,-33,8,-4,-3,-1,-2,-1,-0.063034778
13.039032,-17,-7,-6,2,-1,-1,-1,-4,-0.063034778
13.039038,6,13,4,4,1,-1,0,-8,-0.063034778
13.049926,13,29,-9,-3,-1,-2,1,11,-0.063034778
13.049950,4,5,-4,-6,-4,-2,-2,0,-0.063034778
13.059717,-10,5,-11,-9,-3,0,-2,-1,-0.063034778
13.059732,2,-2,-10,1,0,-2,0,-1,-0.063034778
13.073715,11,17,24,5,1,-1,2,-1,-0.063034778
13.073757,16,-20,-18,-2,2,0,-2,-8,-0.063034778
13.075515,-10,-9,8,-1,-2,0,1,-3,-0.063034778
13.075537,10,49,-4,-5,1,1,0,1,-0.063034778
13.096331,0,-98,-5,-4,-2,-1,-3,-3,-0.063034778
13.096350,-15,39,1,-4,-2,-2,0,0,-0.063034778
13.097790,-6,-27,1,6,2,-1,-1,-4,-0.063034778
13.097858,18,19,19,-3,-2,0,0,2,-0.063034778
13.109925,-7,-9,1,2,0,0,0,-2,-0.063034778
13.109953,17,-5,-1,0,1,0,0,-1,-0.063034778
13.120126,-7,1,5,-2,-2,-3,0,-4,-0.063034778
13.120135,-5,23,-33,-8,-5,-2,-1,3,-0.063034778
13.136298,-5,-13,31,5,1,-1,-1,1,-0.062985203
13.136310,4,-14,-1,0,-3,-1,-1,1,-0.062985203
13.136313,2,20,-16,-2,-1,-2,-1,-1,-0.062985203
13.136316,-2,4,15,-4,-1,-2,-1,-1,-0.062985203
13.163930,5,-2,17,3,0,-2,-2,-12,-0.062985203
13.163964,-18,28,-15,0,-1,0,0,8,-0.062985203
13.166196,5,-85,9,-5,-1,1,-2,0,-0.062985203
13.166207,53,-6,-22,-3,-4,-2,-2,-9,-0.062985203
13.170188,-79,-29,-6,-3,-3,-2,-2,-6,-0.062985203
13.170209,7,12,29,4,2,2,2,-1,-0.062985203
13.180974,2,62,14,2,-2,0,1,-1,-0.062985203
13.180987,-12,10,-6,-1,-2,-2,0,3,-0.062985203
13.193986,21,-11,-7,2,3,0,0,2,-0.062985203
13.196238,-2,16,-8,-2,0,-3,0,-3,-0.062985203
13.196255,-17,30,11,1,0,0,-3,-2,-0.062985203
13.196258,-5,-77,-2,-2,-4,-2,-1,1,-0.062985203
13.216308,4,-6,-26,-5,-5,-1,0,2,-0.062985203
13.216325,-15,1,25,1,0,-1,-1,0,-0.062985203
13.217686,16,44,-2,0,2,0,-1,1,-0.062985203
13.217714,-8,-33,8,2,1,0,0,1,-0.062985203
13.230548,4,3,-15,-9,-4,-1,-1,0,-0.062985203
13.230566,8,31,-5,-2,-3,-3,-1,-3,-0.062985203
13.237598,-7,-39,4,1,-1,-1,-1,-3,-0.062985203
13.237631,-25,-81,-3,2,0,0,1,0,-0.062985203
13.254185,18,47,-1,-6,-1,-1,-2,3,-0.062985203
13.254210,6,-14,-22,-3,-2,-1,-1,-3,-0.062985203
13.255476,2,12,0,-1,-2,-2,-1,0,-0.062985203
13.255487,-9,47,-22,0,-1,0,-1,2,-0.062985203
13.276997,19,-27,34,7,1,1,-1,-3,-0.062985203
13.277013,6,44,-3,-1,-1,-2,-2,-1,-0.062985203
13.278062,-40,-63,-12,-5,-3,-1,-1,-2,-0.062985203
13.278086,-6,-10,-18,-2,-1,-1,0,0,-0.062985203
13.292606,-12,13,0,4,0,-1,-1,-1,-0.062985203
13.292623,31,32,20,2,0,0,-1,0,-0.062985203
13.299581,11,23,-1,-1,1,-1,0,1,-0.062985203
13.299590,-14,35,-8,-4,-3,-1,-1,-2,-0.062985203
13.313721,7,-60,16,-1,-2,-3,-1,2,-0.062985203
13.313740,-33,-28,-12,1,0,1,1,-1,-0.062985203
13.315456,20,48,3,-4,-3,-2,-1,-1,-0.062985203
13.315469,-12,-59,-2,5,1,0,-2,0,-0.062985203
13.339174,-1,21,-22,-7,-3,-1,1,0,-0.062985203
13.339185,-12,-14,13,5,3,0,-3,-2,-0.062985203
13.339188,2,-8,3,-1,-3,-2,-1,-1,-0.062985203
13.339191,7,56,-4,-5,-2,-1,-1,0,-0.062985203
13.350005,-6,-12,-18,-4,-3,0,0,-1,-0.062985203
13.350038,10,-5,13,3,2,-1,-2,1,-0.062985203
13.361054,-16,-16,9,4,2,1,-1,-4,-0.062985203
13.361068,6,5,-6,-4,-1,-3,-3,0,-0.062985203
13.374310,-5,36,14,-1,-1,-1,-2,-4,-0.062985203
13.374335,-6,-3,-48,-13,-7,-2,0,-5,-0.062985203
13.377027,36,-16,31,16,5,2,1,9,-0.062985203
13.377041,10,-6,16,0,0,-1,0,6,-0.062985203
13.396406,-61,-29,-6,0,0,-2,-3,-15,-0.062926617
13.396423,11,14,-9,-4,-2,-2,-1,-2,-0.062926617
13.397897,-13,12,-25,-9,-4,-3,-2,-4,-0.062926617
13.397968,5,-58,-4,0,2,-1,-1,0,-0.062926617
13.410394,25,31,8,0,0,-1,2,5,-0.062926617
13.410483,-9,-18,8,0,-1,-1,-2,-1,-0.062926617
13.421342,-5,-1,-17,-5,-1,0,0,-2,-0.062926617
13.421350,9,-4,14,-1,-1,-1,0,-2,-0.062926617
13.433671,-5,34,-3,-5,-3,-2,-2,-2,-0.062926617
13.433705,6,-56,-12,2,0,0,1,-1,-0.062926617
13.435150,-2,23,-19,-5,-4,-3,-2,0,-0.062926617
13.435157,-16,31,16,3,-1,-1,-1,-3,-0.062926617
13.456732,4,-57,-7,0,1,0,1,2,-0.062926617
13.456762,9,16,10,-1,-1,0,0,4,-0.062926617
13.459524,4,-8,0,-4,-3,-1,0,-3,-0.062926617
13.459541,-18,25,-22,-4,-1,-2,-3,-4,-0.062926617
13.470194,-1,-15,1,2,0,-1,0,1,-0.062926617
13.470238,17,-4,-3,0,-1,1,-2,-1,-0.062926617
13.480029,-22,7,-1,-2,0,0,-1,-3,-0.062926617
13.480036,10,13,-18,-3,-3,-2,-1,-3,-0.062926617
13.495329,-16,30,28,3,2,-1,0,-1,-0.062926617
13.495351,21,-72,-8,0,1,-3,-3,-1,-0.062926617
13.495571,-2,-8,-1,-3,-3,-1,-2,-1,-0.062926617
13.495581,-12,6,5,1,-1,2,0,-2,-0.062926617
13.517405,6,31,-6,-1,-2,-1,-2,-1,-0.062926617
13.517453,3,19,-11,-6,-3,-2,0,-1,-0.062926617
13.518984,-19,-34,9,6,1,-1,-1,-3,-0.062926617
13.518993,7,-15,-10,-2,1,-1,0,2,-0.062926617
13.530048,-11,-12,-7,-4,-2,-2,-1,0,-0.062926617
13.530072,-2,-43,-17,-7,-5,0,-1,-1,-0.062926617
13.540343,12,35,6,4,3,0,3,1,-0.062926617
13.540359,9,27,15,-2,-1,-1,-1,0,-0.062926617
13.553430,21,3,-14,-6,-2,-1,-1,1,-0.062926617
13.553461,-27,26,-8,2,1,-3,-1,1,-0.062926617
13.567970,10,-1,-16,-4,0,-1,0,-1,-0.062926617
13.567987,14,44,27,10,1,0,-2,-3,-0.062926617
13.576952,4,-93,-26,-6,-2,-2,-1,1,-0.062926617
13.576976,-13,25,19,-1,-3,-1,-1,-1,-0.062926617
13.579303,3,54,3,1,-1,-1,-3,-2,-0.062926617
13.579316,-1,-14,11,-4,-2,-2,-1,-1,-0.062926617
13.590527,10,17,-15,1,-2,-1,-1,0,-0.062926617
13.590552,-15,-16,3,2,-1,-2,1,-3,-0.062926617
13.599949,-3,-20,-6,-7,-3,-2,0,1,-0.062926617
13.599960,0,24,11,1,1,-1,-2,-2,-0.062926617
13.613160,-11,-3,-3,0,-1,-1,-2,-2,-0.062926617
13.613177,16,32,-5,-3,-2,-1,-1,-1,-0.062926617
13.619940,-2,-26,39,1,-2,-2,-3,-3,-0.062926617
13.619972,-26,2,-8,-6,-1,-1,0,-2,-0.062926617
13.636541,4,-35,4,0,-1,0,-1,0,-0.062926617
13.636569,-13,-35,4,3,0,0,-2,-3,-0.062926617
13.638974,1,-17,-2,0,1,1,0,-1,-0.062926617
13.638982,17,31,-7,-3,-3,-3,-1,-1,-0.062926617
13.649945,-8,17,7,-1,-1,-3,-1,-1,-0.062976192
13.649964,5,45,-5,-6,-1,-2,0,0,-0.062976192
13.661509,3,-30,-11,-2,0,-2,-1,0,-0.062976192
13.661524,8,32,4,2,0,-2,-1,-2,-0.062976192
13.673090,-19,-50,-10,-2,-2,-2,-1,-4,-0.062976192
13.673107,4,-17,-2,0,-1,-1,0,0,-0.062976192
13.679905,6,1,2,1,0,1,-3,-1,-0.062976192
13.679929,2,25,-5,-2,-1,1,0,2,-0.062976192
13.696349,2,27,-2,-3,-2,-1,0,-4,-0.062976192
13.696362,-11,-9,4,0,2,0,0,-2,-0.062976192
13.697700,3,24,4,2,-2,-2,-1,-3,-0.062976192
13.697709,-6,-3,-17,-3,-3,-2,-1,-2,-0.062976192
13.718725,-4,-33,11,4,2,1,1,0,-0.062976192
13.718742,0,-37,-4,-1,-4,-1,-2,1,-0.062976192
13.720426,12,21,-10,-4,-2,-3,-1,-1,-0.062976192
13.720496,-9,-15,-2,0,-2,-1,0,-2,-0.062976192
13.733152,7,13,3,1,-1,-1,-3,-2,-0.062976192
13.733185,2,17,6,-1,0,-1,-2,-1,-0.062976192
13.740038,-11,2,11,-1,-3,-3,-1,-2,-0.062976192
13.740061,21,-25,3,0,-2,-1,-1,-1,-0.062976192
13.757858,-20,19,-4,1,1,-1,-2,0,-0.062976192
13.757873,3,-39,-11,-3,1,0,-1,-3,-0.062976192
13.758126,-2,22,-5,-2,-2,0,0,-1,-0.062976192
13.758140,1,-21,7,-5,-2,-2,0,1,-0.062976192
13.778895,-16,42,-6,-1,-2,-1,0,-2,-0.062976192
13.778914,7,21,5,0,-4,-2,-2,-2,-0.062976192
13.780952,-3,-22,1,0,3,-1,-1,-1,-0.062976192
13.780965,-6,-12,-2,0,-1,-1,0,-2,-0.062976192
13.793344,8,46,1,-2,-3,-2,1,1,-0.062976192
13.793376,-3,-20,-8,-4,-1,-1,0,-2,-0.062976192
13.807809,-10,-25,-8,-2,-4,-2,-2,0,-0.062976192
13.807834,0,13,-2,-1,2,-1,1,1,-0.062976192
13.824927,6,-10,3,4,2,-1,-1,0,-0.062976192
13.827264,-11,-5,4,0,-1,-1,-1,-2,-0.062976192
13.827279,27,31,-10,-4,-2,-2,-1,0,-0.062976192
13.827282,-30,-62,8,0,0,0,-1,-3,-0.062976192
13.839555,18,44,-5,-3,-3,-2,-3,0,-0.062976192
13.839577,14,-39,-2,-2,-1,-2,-1,-2,-0.062976192
13.840463,-18,-9,-3,-1,-1,0,0,-1,-0.062976192
13.843256,-8,-8,-6,-2,-1,-1,-1,-3,-0.062976192
13.853048,6,48,1,-6,-3,-2,-3,-1,-0.062976192
13.853084,-2,-32,8,3,1,1,0,-1,-0.062976192
13.860101,-11,6,2,-1,-2,1,-1,-3,-0.062976192
13.860132,6,-15,5,5,1,-2,-2,0,-0.062976192
13.876643,-9,-9,-9,-2,0,-1,0,0,-0.062976192
13.876678,-1,72,10,-2,0,-1,1,1,-0.062976192
13.878398,-1,-47,-28,-5,0,-1,0,-1,-0.062976192
13.878419,-23,54,31,4,1,0,-1,-3,-0.062976192
13.898764,5,-72,-7,-4,-4,1,0,-2,-0.062949152
13.898773,12,23,0,1,-2,1,-4,0,-0.062949152
13.900289,-5,15,4,1,0,-1,1,0,-0.062949152
13.900321,21,1,-7,-5,-4,-1,-2,-1,-0.062949152
13.913666,-41,-8,-1,1,0,0,-2,-2,-0.062949152
13.913673,-5,25,10,0,-1,0,0,-1,-0.062949152
13.922414,23,-15,0,2,-1,1,-1,1,-0.062949152
13.922422,-18,8,-10,3,1,1,0,1,-0.062949152
13.936180,11,-47,-2,-4,0,-2,-2,-1,-0.062949152
13.936196,-1,9,2,-3,-3,-1,-1,0,-0.062949152
13.937895,-10,-27,-1,-1,-2,-2,-1,0,-0.062949152
13.937975,19,-7,-5,-3,-1,0,-1,1,-0.062949152
13.960825,17,44,8,-1,-1,0,1,1,-0.062949152
13.960838,-12,-14,-8,1,1,0,-1,-4,-0.062949152
13.973970,1,33,2,0,1,0,0,2,-0.062949152
13.974001,4,-33,2,-6,-3,0,-1,0,-0.062949152
13.977085,7,-5,-4,6,5,1,-1,0,-0.062949152
13.977102,-13,9,6,0,1,0,-2,0,-0.062949152
13.981753,1,16,-2,-6,-4,-1,-2,-3,-0.062949152
13.981780,-7,-11,-4,-1,-2,-1,-2,-1,-0.062949152
13.996336,-13,19,-2,-4,-3,-2,-1,0,-0.062949152
13.996353,1,19,13,2,-1,-1,1,2,-0.062949152
13.997943,-23,-21,-2,-1,0,-2,-3,-6,-0.062949152
13.997962,15,-19,-27,-3,-2,-2,-1,0,-0.062949152
14.018751,7,-23,3,-1,-1,0,1,1,-0.062949152
14.018849,6,29,5,-2,0,-1,-1,-2,-0.062949152
14.020365,1,14,0,0,0,0,-2,3,-0.062949152
14.020375,-10,28,5,0,-3,-3,-2,-4,-0.062949152
14.032597,21,-6,8,-1,-1,0,-2,0,-0.062949152
14.032629,-42,-44,-17,-4,-3,-3,-2,-5,-0.062949152
14.041955,3,13,-1,0,0,-1,-2,0,-0.062949152
14.041969,-4,-13,-2,-4,-2,0,-1,-1,-0.062949152
14.056256,2,20,0,1,-1,1,2,-1,-0.062949152
14.056264,9,4,2,2,0,0,-2,1,-0.062949152
14.057749,5,-80,6,-3,-2,-2,-1,1,-0.062949152
14.057756,-12,3,-13,-5,-2,-2,-2,-5,-0.062949152
14.078868,9,15,17,2,0,0,1,1,-0.062949152
14.078885,-16,1,-10,-1,-2,-1,-1,-2,-0.062949152
14.080663,5,0,-5,0,1,1,-1,-2,-0.062949152
14.080673,6,-21,-10,-4,-2,0,-1,2,-0.062949152
14.093009,9,33,-8,-5,-2,0,-2,-1,-0.062949152
14.093043,0,-18,14,0,-2,-1,-2,-1,-0.062949152
14.102282,-19,0,12,4,0,1,-1,-2,-0.062949152
14.102290,0,-49,-1,-5,-2,1,1,-1,-0.062949152
14.118432,-9,-3,-8,-2,-2,-1,-4,-3,-0.062949152
14.118441,29,36,-6,1,1,-1,-2,2,-0.062949152
14.118444,-20,-10,-1,-2,-3,-2,-1,-3,-0.062949152
14.118447,-7,40,4,5,1,-1,-1,1,-0.062949152
14.139090,0,-67,-7,-5,-2,-2,1,-3,-0.062949152
14.139110,-2,-8,-13,-5,-3,-1,-1,-1,-0.062949152
14.141250,-1,0,4,2,2,0,2,-3,-0.062949152
14.141263,-14,8,-3,0,-1,0,1,-2,-0.062949152
14.152818,2,17,1,0,-2,-2,-2,-2,-0.062895071
14.152844,-2,-34,6,2,1,0,2,2,-0.062895071
14.162883,13,8,-15,-7,-3,-2,-1,2,-0.062895071
14.162895,-15,-28,6,3,1,-1,-1,-1,-0.062895071
14.176410,3,26,3,1,0,-1,0,-1,-0.062895071
14.176430,0,-44,-8,-5,-1,-1,-2,-1,-0.062895071
14.178214,16,111,11,4,0,0,-1,-2,-0.062895071
14.178232,-18,-81,-16,-3,0,-3,-2,-1,-0.062895071
14.198938,0,55,5,1,1,-1,-2,-2,-0.062895071
14.198956,16,-22,-11,-2,-2,0,-1,0,-0.062895071
14.200245,8,7,-4,-2,-1,0,-1,1,-0.062895071
14.200261,-7,29,2,-3,-2,-2,-1,0,-0.062895071
14.212423,-2,-1,8,4,2,-1,-1,-2,-0.062895071
14.212440,0,18,-2,0,0,-2,0,-2,-0.062895071
14.223267,15,-8,-10,-8,-2,-1,0,0,-0.062895071
14.223273,15,6,2,2,1,0,-2,0,-0.062895071
14.236707,-13,-28,-10,-3,-2,-3,-2,1,-0.062895071
14.236740,5,34,-4,1,-1,0,0,-2,-0.062895071
14.239513,-18,-29,7,0,-2,-2,-3,-2,-0.062895071
14.239529,8,68,11,0,0,0,-2,0,-0.062895071
14.258907,-11,-103,-10,-3,-2,-1,-1,-3,-0.062895071
14.258932,5,-21,-5,-1,-3,-1,-2,-4,-0.062895071
14.260552,-15,3,1,-2,-2,-1,0,-1,-0.062895071
14.260568,15,24,3,0,-2,-2,0,0,-0.062895071
14.273237,-8,27,-20,-2,0,0,-2,-3,-0.062895071
14.273245,24,46,38,-1,-2,-2,-2,0,-0.062895071
14.281825,-14,-67,-8,-1,0,0,0,-1,-0.062895071
14.281843,-5,-4,-11,-3,-3,-2,-2,-3,-0.062895071
14.296622,6,13,3,-1,-2,0,2,-1,-0.062895071
14.296647,-11,-21,3,-1,0,-1,-1,-1,-0.062895071
14.299338,17,20,0,-1,-2,-3,-2,2,-0.062895071
14.299346,13,5,8,1,-2,0,0,-2,-0.062895071
14.319737,-27,1,0,-2,-1,0,-2,-5,-0.062895071
14.319752,-6,40,-8,-2,-1,0,-1,-2,-0.062895071
14.320200,-2,-64,1,-1,2,0,-2,-1,-0.062895071
14.320215,18,5,-5,0,1,-1,1,1,-0.062895071
14.334409,4,7,8,-1,-1,-2,-1,2,-0.062895071
14.334418,3,24,-4,-4,-1,0,0,-2,-0.062895071
14.341736,-18,-30,-4,3,0,0,-2,-2,-0.062895071
14.341743,2,42,0,-1,-3,0,-2,-1,-0.062895071
14.356557,20,2,6,0,1,0,0,-1,-0.062895071
14.356580,-3,-4,-2,0,3,0,0,0,-0.062895071
14.357871,-2,-12,5,-1,-1,0,0,-1,-0.062895071
14.357937,15,50,-7,-3,-2,-1,-2,0,-0.062895071
14.379003,15,34,5,-1,0,-1,0,4,-0.062895071
14.379031,-34,-95,-20,-2,-6,-1,-2,-11,-0.062895071
14.380698,30,52,-4,-3,0,-1,-1,2,-0.062895071
14.380709,-36,-51,9,4,1,1,1,-5,-0.062895071
14.392518,9,23,7,0,-2,-1,-1,0,-0.062895071
14.392539,5,13,0,4,0,-2,-1,-1,-0.062895071
14.412020,7,24,-5,0,-1,-1,-3,-3,-0.062989713
14.412035,-4,-28,-7,-4,-1,-2,0,2,-0.062989713
14.416972,-2,1,-4,-2,-3,0,-2,-2,-0.062989713
14.417009,-5,-32,-4,-1,-3,-2,0,1,-0.062989713
14.419634,3,15,14,0,-2,-3,-2,-4,-0.062989713
14.419643,2,6,-2,-1,0,0,-1,0,-0.062989713
14.439341,-15,-10,2,-1,0,-1,-2,0,-0.062989713
14.439369,4,20,-4,-4,-1,0,0,2,-0.062989713
14.443139,15,8,1,-2,-2,0,1,-1,-0.062989713
14.443159,-35,-10,-3,-1,0,-2,0,-6,-0.062989713
14.452384,8,-9,-1,-2,-1,-1,0,-2,-0.062989713
14.452401,-18,18,-3,1,1,0,1,2,-0.062989713
14.462414,22,42,7,0,-3,-1,1,0,-0.062989713
14.462428,-7,-31,-7,3,-1,-1,-2,0,-0.062989713
14.476379,-21,-88,-11,-1,0,-1,-2,-4,-0.062989713
14.476454,-27,-22,-7,-4,-3,-3,-3,-5,-0.062989713
14.477940,-5,25,18,1,-1,0,0,4,-0.062989713
14.477959,17,23,5,-2,-4,-3,-3,-5,-0.062989713
14.498806,-9,34,-3,-1,-1,-1,0,4,-0.062989713
14.498824,24,14,-2,0,0,0,-1,0,-0.062989713
14.500311,-26,-55,-14,-4,0,-4,-3,-4,-0.062989713
14.500348,-5,60,-2,-2,-3,-2,-3,-1,-0.062989713
14.512451,-12,-42,8,2,-1,0,-1,-1,-0.062989713
14.512517,11,11,2,-1,0,0,-2,2,-0.062989713
14.523105,2,-6,-9,-4,-1,-2,-1,0,-0.062989713
14.523112,6,10,4,-1,2,1,1,1,-0.062989713
14.535771,-7,-6,-1,-1,-2,-2,-1,-5,-0.062989713
14.535814,3,21,4,3,1,-1,1,-4,-0.062989713
14.550442,-7,-9,-1,-1,2,-1,1,3,-0.062989713
14.550474,1,-15,-5,-3,0,-1,-2,-3,-0.062989713
14.559221,21,37,3,-3,2,0,0,1,-0.062989713
14.559256,-13,4,0,-1,-2,-2,0,-1,-0.062989713
14.561280,-10,-22,-3,0,-3,-1,0,-2,-0.062989713
14.561295,-15,-48,-4,0,0,-1,-1,0,-0.062989713
14.572767,6,24,-2,0,-3,-1,-3,-2,-0.062989713
14.572783,17,22,-4,-6,-1,0,-1,0,-0.062989713
14.582234,-14,0,-7,3,1,0,-2,-10,-0.062989713
14.582246,3,-5,18,-1,-2,-2,-1,5,-0.062989713
14.595771,12,55,-3,1,2,-3,-2,-2,-0.062989713
14.595789,-22,-55,0,1,-2,0,-1,2,-0.062989713
14.602369,1,8,-7,-2,0,-1,0,6,-0.062989713
14.602387,6,0,-8,-4,-2,-1,0,-8,-0.062989713
14.618838,2,-12,-4,-2,-2,0,1,-2,-0.062989713
14.618847,-21,-17,-17,-6,-2,-2,-2,-2,-0.062989713
14.620254,-10,19,33,8,3,2,0,-1,-0.062989713
14.620289,8,10,4,3,2,-1,-2,2,-0.062989713
14.641415,14,-16,-5,-4,-4,-1,-1,1,-0.062989713
14.641428,4,57,-10,-5,-2,-1,-1,0,-0.062989713
14.644500,14,-69,-7,-1,-2,-1,-2,-3,-0.062989713
14.644514,-18,-25,-3,-2,-3,1,-2,-3,-0.062989713
14.656331,-16,3,3,0,-3,0,0,-1,-0.062989713
14.656374,23,-14,4,-2,1,0,-1,0,-0.062989713
14.662406,-22,36,-3,4,1,0,-1,-2,-0.062989713
14.662424,18,9,-5,-3,0,-3,1,1,-0.062989713
14.679340,-22,-24,-5,0,-1,-1,-2,-7,-0.062971682
14.679353,30,21,20,1,-1,-2,1,7,-0.062971682
14.680259,-11,6,-5,-5,-4,1,0,-2,-0.062971682
14.680267,-19,-17,-5,-1,0,1,0,-3,-0.062971682
14.701582,-11,-40,2,1,-1,1,-2,-3,-0.062971682
14.701613,-10,-21,1,1,-1,-3,-1,-9,-0.062971682
14.704134,26,45,-7,-3,0,-2,2,2,-0.062971682
14.704141,5,-6,-2,-2,-1,0,-1,1,-0.062971682
14.715710,27,35,13,-1,-2,-2,0,5,-0.062971682
14.715742,4,33,-7,2,1,0,0,2,-0.062971682
14.722733,-14,-54,-8,-5,-4,-4,-5,-14,-0.062971682
14.722754,-6,-57,-5,0,-2,-1,-1,5,-0.062971682
14.738979,0,3,-3,-3,3,0,0,-3,-0.062971682
14.738995,18,28,6,-2,-1,0,-1,5,-0.062971682
14.741286,-22,-7,-6,2,1,-1,-1,0,-0.062971682
14.741298,5,27,12,0,-2,0,0,0,-0.062971682
14.768796,-2,2,1,-6,-3,-1,-2,-2,-0.062971682
14.768814,-7,-37,-4,2,0,-1,-2,-3,-0.062971682
14.770589,8,7,-7,-2,-4,-1,1,1,-0.062971682
14.770603,16,-2,-1,3,1,0,-1,-3,-0.062971682
14.776186,-30,7,-8,-5,-3,-2,-2,3,-0.062971682
14.776207,-21,14,10,-3,-2,-1,-1,-5,-0.062971682
14.782512,7,-14,-2,-3,-1,-1,-2,-2,-0.062971682
14.782529,18,-11,-3,0,-1,-1,1,5,-0.062971682
14.798906,-7,-14,0,0,-2,-1,-1,0,-0.062971682
14.798923,-17,-14,0,0,1,0,0,-7,-0.062971682
14.800514,14,9,0,-1,-3,-3,-1,3,-0.062971682
14.800524,11,28,-2,-3,0,-1,-1,-3,-0.062971682
14.821006,-19,34,-4,0,0,-2,-2,-3,-0.062971682
14.821056,-3,-70,-4,0,-3,-2,-2,-1,-0.062971682
14.827639,-18,4,0,-2,-2,-1,-2,-3,-0.062971682
14.827662,-11,-3,-11,-6,-2,-1,-2,-2,-0.062971682
14.836170,17,17,3,5,1,0,-1,-1,-0.062971682
14.836202,-7,17,1,1,2,0,0,2,-0.062971682
14.842645,12,18,2,-2,-1,0,-1,-4,-0.062971682
14.842673,-9,41,1,-3,-3,-3,0,-5,-0.062971682
14.859131,-5,-83,-4,-2,-1,0,-1,-8,-0.062971682
14.859163,30,-8,-5,-1,-2,1,2,5,-0.062971682
14.861535,-25,-20,-9,0,0,-1,-2,-1,-0.062971682
14.861550,-1,5,4,0,-2,-1,-1,-2,-0.062971682
14.881392,10,25,-16,-3,-1,0,1,-2,-0.062971682
14.881409,5,24,16,1,-2,-1,-1,-2,-0.062971682
14.882989,-13,-17,-2,-1,0,0,-1,2,-0.062971682
14.883015,-10,-34,-2,-3,-2,-2,-2,-3,-0.062971682
14.897565,3,33,0,1,-1,-1,-2,5,-0.062971682
14.897573,-11,-31,-19,-5,0,-3,-4,-4,-0.062971682
14.902713,30,25,4,0,1,0,-1,2,-0.062971682
14.902731,-17,-51,0,-1,-3,-3,-2,-2,-0.062971682
14.918866,-10,-40,-3,3,4,0,0,1,-0.062971682
14.918895,-16,34,3,0,-1,-1,0,-4,-0.062971682
14.920669,0,-14,2,-1,-2,-1,0,0,-0.062922111
14.920677,10,48,2,-5,-1,-1,-3,-3,-0.062922111
14.944353,29,-48,-4,8,0,-1,-1,8,-0.062922111
14.944369,-8,3,3,0,1,0,-1,1,-0.062922111
14.944373,0,14,-10,-7,-1,-1,-3,-1,-0.062922111
14.944376,3,33,3,8,0,-1,-1,1,-0.062922111
14.956142,-10,-45,4,-6,-4,-2,-2,-2,-0.062922111
14.956174,20,-5,3,2,0,-2,0,-2,-0.062922111
14.962545,-12,10,9,2,-1,-1,0,6,-0.062922111
14.962570,14,14,1,-3,2,-1,0,0,-0.062922111
14.978912,9,21,-2,-2,-2,-2,-1,-5,-0.062922111
14.978967,-17,-24,-12,-2,-3,-2,-1,-1,-0.062922111
14.980311,3,15,5,-5,-1,-3,-2,-5,-0.062922111
14.980319,4,-13,-2,2,0,-1,-2,3,-0.062922111
15.001283,4,77,3,0,1,0,0,0,-0.062922111
15.002011,-12,-71,-15,-5,-3,-1,-1,-2,-0.062922111
15.002676,5,21,4,0,-2,-1,0,-6,-0.062922111
15.002698,13,-3,0,-3,-2,0,-2,1,-0.062922111
15.016339,-6,-2,-2,-3,-2,-1,0,3,-0.062922111
15.016463,0,25,1,-3,-2,0,-3,-2,-0.062922111
15.022995,4,-1,-4,7,1,1,0,-2,-0.062922111
15.023017,-11,-21,2,0,0,-1,-2,-5,-0.062922111
15.039200,-6,-4,9,0,-2,-1,0,0,-0.062922111
15.039225,1,35,-3,-2,-3,-2,-2,-1,-0.062922111
15.040244,24,-32,-7,-5,-1,-3,-1,3,-0.062922111
15.040258,-41,5,0,-6,-6,-2,-1,0,-0.062922111
15.061633,-7,-40,-5,5,5,0,-1,-2,-0.062922111
15.061659,17,63,15,1,-1,0,-1,-4,-0.062922111
15.063486,-43,-44,-5,5,0,-1,0,-3,-0.062922111
15.063499,5,-43,-18,-5,-1,-2,-2,-1,-0.062922111
15.076651,-12,46,1,-4,-1,0,-1,2,-0.062922111
15.076677,15,5,2,0,2,-1,0,3,-0.062922111
15.082465,12,18,-3,-6,-1,0,-1,-1,-0.062922111
15.082482,-5,2,-1,-3,-2,-1,-2,-3,-0.062922111
15.106903,-13,-15,2,2,-3,-1,0,-7,-0.062922111
15.106927,-4,-7,-6,-2,-2,0,0,-3,-0.062922111
15.109753,0,6,0,-1,-3,-1,0,2,-0.062922111
15.109770,23,4,-1,0,1,0,3,9,-0.062922111
15.121272,23,26,-2,0,-1,-3,-3,-10,-0.062922111
15.121296,-21,-49,8,-4,0,-1,-3,-4,-0.062922111
15.123137,8,33,2,0,-3,-4,-4,-7,-0.062922111
15.123150,6,2,-10,3,0,1,0,2,-0.062922111
15.134875,5,-15,-2,-9,-1,0,0,-1,-0.062922111
15.134893,9,25,-8,5,-2,-2,0,3,-0.062922111
15.146210,-2,-9,9,-3,0,1,0,4,-0.062922111
15.146227,-5,8,9,-4,0,0,-3,-13,-0.062922111
15.158705,11,-12,2,6,0,-2,0,9,-0.062922111
15.158731,1,24,-2,0,-1,-1,-1,-1,-0.062922111
15.165131,-9,-15,-5,0,-1,-1,-1,0,-0.062922111
15.165156,-26,-20,2,-1,-1,-2,-1,-6,-0.062922111
15.181344,-8,-9,4,-4,-2,-2,-2,1,-0.063057309
15.181362,-23,-10,-9,-1,-1,-2,-3,-1,-0.063057309
15.182866,23,-50,-11,-3,-2,0,-1,1,-0.063057309
15.182884,-1,-11,-10,0,0,0,-1,0,-0.063057309
15.195035,-38,-2,6,-1,-4,-4,-5,-6,-0.063057309
15.195053,15,0,1,-3,-2,-2,0,-2,-0.063057309
15.204452,-16,28,-6,-5,-2,-1,-1,0,-0.063057309
15.204503,18,14,2,3,0,-2,-1,7,-0.063057309
15.218765,19,-8,-1,1,-1,2,1,2,-0.063057309
15.220086,-23,-7,-3,-4,-1,-2,-2,-1,-0.063057309
15.220348,-11,29,-3,0,-2,-2,0,-6,-0.063057309
15.220425,18,-52,14,-5,-4,-1,0,3,-0.063057309
15.241662,-2,12,-5,-3,-1,-1,-1,-3,-0.063057309
15.241675,-19,-25,7,5,0,0,0,-2,-0.063057309
15.247932,6,17,-3,-1,-2,0,0,-1,-0.063057309
15.247965,4,19,5,1,-1,-2,-1,1,-0.063057309
15.256291,-4,-4,-17,-7,-2,-1,-2,1,-0.063057309
15.256303,16,5,18,-1,-1,1,2,4,-0.063057309
15.269953,-12,-17,4,-7,0,-1,-3,-3,-0.063057309
15.272355,-35,32,-7,2,1,1,-2,-3,-0.063057309
15.279011,5,-7,-1,1,-2,-1,0,-4,-0.063057309
15.279030,-12,-36,-13,-1,-3,-2,-1,-3,-0.063057309
15.280220,19,19,5,-1,-2,1,1,8,-0.063057309
15.280230,-6,38,8,1,0,0,-1,-7,-0.063057309
15.301419,-14,-37,-22,-1,-2,-2,-1,0,-0.063057309
15.301450,7,-2,-9,-4,-3,0,-1,3,-0.063057309
15.303491,-7,13,6,2,-1,1,0,-3,-0.063057309
15.303499,27,-8,-1,-3,0,1,-1,0,-0.063057309
15.315112,-63,49,12,2,2,1,3,0,-0.063057309
15.315138,-12,-87,-12,-5,0,-2,-5,-12,-0.063057309
15.326398,-3,-2,-3,1,0,-3,-2,0,-0.063057309
15.326415,-9,-14,-8,1,-3,-2,0,-1,-0.063057309
15.339290,21,15,-4,-5,-4,-1,-1,-1,-0.063057309
15.339347,15,40,6,0,-2,0,1,-1,-0.063057309
15.341276,-10,-1,-2,1,0,-1,-1,-1,-0.063057309
15.341283,3,-11,-4,-2,-2,-1,-2,1,-0.063057309
15.361434,26,-12,10,-1,3,0,0,-2,-0.063057309
15.361463,-3,9,2,-1,-1,-2,-2,5,-0.063057309
15.362792,25,11,-2,3,-1,0,-2,-2,-0.063057309
15.362802,-16,-30,-9,2,-2,-2,-3,-10,-0.063057309
15.384437,35,16,13,-1,-1,-1,-1,4,-0.063057309
15.384472,-9,27,-2,-2,0,-1,-1,0,-0.063057309
15.385343,4,3,1,-1,0,0,1,5,-0.063057309
15.387557,-19,9,1,1,-1,-2,-1,-3,-0.063057309
15.397806,-3,-10,-6,-3,0,-1,-3,-4,-0.063057309
15.397850,7,37,-1,3,0,-1,1,3,-0.063057309
15.409866,-3,-21,0,-2,-1,-2,0,-1,-0.063057309
15.409889,0,42,-1,-2,0,-2,-1,-2,-0.063057309
15.421369,-16,-80,-5,-2,-2,-3,-2,-4,-0.063057309
15.421394,16,10,0,-1,0,0,-1,1,-0.063057309
15.422963,-5,7,-2,-5,-4,-2,-1,-5,-0.063057309
15.422970,-34,-44,-9,-1,1,0,0,-1,-0.063057309
15.434967,37,21,14,0,-1,-1,0,6,-0.063030273
15.434991,-34,-5,-7,0,0,0,-3,-12,-0.063030273
15.445092,16,19,7,-2,0,-2,-2,4,-0.063030273
15.445105,11,31,-6,-4,-3,-3,-1,-2,-0.063030273
15.458780,15,-5,-3,-1,-2,-2,0,-2,-0.063030273
15.458798,4,-26,-8,-2,0,0,2,6,-0.063030273
15.460413,-28,6,-2,0,0,1,-1,-11,-0.063030273
15.460433,15,-44,-3,-8,-3,1,0,7,-0.063030273
15.489201,-9,12,3,8,0,1,-2,-2,-0.063030273
15.489209,13,33,14,1,0,-2,-1,-4,-0.063030273
15.490251,-14,-14,-8,2,-1,-1,0,-3,-0.063030273
15.490284,0,-2,1,-1,-1,-1,1,0,-0.063030273
15.495018,-1,29,-6,-2,-1,-1,0,0,-0.063030273
15.495037,-14,-9,-6,-2,-4,-1,-3,2,-0.063030273
15.512761,-1,-65,9,-1,0,-1,-3,-1,-0.063030273
15.512772,5,-8,-2,1,0,-3,-3,-1,-0.063030273
15.526430,-15,0,4,-2,-2,-1,-3,-4,-0.063030273
15.526518,1,14,6,0,-1,-1,0,-2,-0.063030273
15.528484,10,-15,-6,-2,-1,0,-1,0,-0.063030273
15.528496,-19,19,-3,-1,-2,-1,0,1,-0.063030273
15.542005,6,24,-7,-8,-3,-3,-1,-3,-0.063030273
15.542023,6,-8,11,5,0,0,-1,1,-0.063030273
15.544677,-17,-19,-4,-2,-4,-1,-1,-2,-0.063030273
15.544692,18,10,5,3,1,-1,-1,-2,-0.063030273
15.555056,-30,-2,-5,-4,-2,0,0,-4,-0.063030273
15.555086,37,-14,-11,-2,-2,-2,0,5,-0.063030273
15.565901,-19,-1,6,1,1,-1,0,-4,-0.063030273
15.565912,9,15,4,-1,0,0,-1,-5,-0.063030273
15.578242,-25,-12,-4,-1,-3,-1,-2,-5,-0.063030273
15.578263,16,6,4,2,-1,-1,-2,-2,-0.063030273
15.584969,12,22,4,4,0,0,0,5,-0.063030273
15.584995,-3,-8,-3,0,2,1,-1,2,-0.063030273
15.602228,6,-5,-2,0,-1,0,-1,-5,-0.063030273
15.602258,-2,0,-2,-2,0,-1,-1,-3,-0.063030273
15.604153,10,-3,-8,-7,-2,-2,0,8,-0.063030273
15.604171,-7,26,2,4,-1,1,-1,-6,-0.063030273
15.623946,-2,-15,15,3,0,-1,-1,1,-0.063030273
15.623971,-6,-8,-8,-1,-2,0,1,1,-0.063030273
15.625670,3,-14,-4,-7,2,-2,-1,-3,-0.063030273
15.625740,-1,10,1,-1,-5,-1,-1,1,-0.063030273
15.638265,2,22,-9,1,2,1,2,1,-0.063030273
15.638288,-17,-11,0,-5,-2,-1,-2,-2,-0.063030273
15.646353,6,-7,-8,4,0,-1,-1,2,-0.063030273
15.646366,-6,-29,5,-2,-3,-1,0,2,-0.063030273
15.661665,-35,-8,-4,-4,-1,-2,-3,-5,-0.063030273
15.661693,5,-6,0,-4,-1,-2,-1,2,-0.063030273
15.663091,-2,33,1,4,-6,-2,-1,-4,-0.063030273
15.663130,21,-25,-5,-2,0,-1,1,4,-0.063030273
15.684327,-2,-24,-8,0,-2,-2,1,-4,-0.063030273
15.686967,-5,6,5,0,-2,-1,0,3,-0.063030273
15.686975,-3,41,3,0,2,1,-1,-1,-0.063030273
15.686978,-8,-37,0,-2,0,-2,1,-3,-0.063030273
15.698633,24,32,0,-2,0,-1,-1,3,-0.062944642
15.698668,-29,-42,-16,-5,-3,-1,1,-5,-0.062944642
15.704872,7,24,13,0,-1,1,1,-7,-0.062944642
15.704896,-7,28,7,-1,-3,-1,-3,3,-0.062944642
15.723732,20,-16,-9,-3,1,0,0,3,-0.062944642
15.723748,-11,10,12,1,1,1,-2,-3,-0.062944642
15.723756,6,-32,-8,0,-4,-2,-3,2,-0.062944642
15.723761,0,63,-4,-2,0,0,0,-3,-0.062944642
15.744016,-32,-66,-3,1,-3,-2,-2,-2,-0.062944642
15.744037,10,15,-6,-2,-1,-2,-1,1,-0.062944642
15.745554,-5,-3,-5,-1,0,0,-2,-2,-0.062944642
15.745578,-1,-6,-4,0,0,-1,-1,0,-0.062944642
15.758355,16,30,4,-2,-2,0,-2,2,-0.062944642
15.758377,-3,15,-1,0,1,-1,0,-8,-0.062944642
15.765346,14,-6,-4,0,2,-1,0,5,-0.062944642
15.765379,-4,11,-4,-8,-2,-2,-4,1,-0.062944642
15.781580,-10,-24,8,11,1,0,1,-3,-0.062944642
15.781613,3,4,5,-7,1,-1,-2,-1,-0.062944642
15.784245,-16,-5,-2,7,0,0,1,-4,-0.062944642
15.784257,17,-9,-3,2,0,-1,-3,-3,-0.062944642
15.804172,-27,14,10,-5,-3,-1,-1,0,-0.062944642
15.804198,9,-6,-15,-2,-3,-1,-1,0,-0.062944642
15.805504,-16,-29,-7,-3,-2,-2,1,-1,-0.062944642
15.805518,4,3,1,-3,-3,-2,0,-3,-0.062944642
15.817487,17,55,0,-1,-1,0,-1,6,-0.062944642
15.817543,9,-55,-1,2,-2,-2,1,0,-0.062944642
15.827794,-15,1,-3,-5,-2,-2,-3,-4,-0.062944642
15.827808,-9,-26,-11,1,-3,-1,0,-4,-0.062944642
15.841295,10,13,-3,-1,0,1,0,-1,-0.062944642
15.841319,5,34,3,0,1,-1,0,1,-0.062944642
15.843083,7,-18,-10,-3,-2,-2,-2,-3,-0.062944642
15.843104,-7,1,6,0,-1,0,0,-1,-0.062944642
15.863839,-20,-25,3,0,-1,-2,-4,-3,-0.062944642
15.863853,-7,-51,-9,-2,-2,-2,-2,-5,-0.062944642
15.865365,14,-23,-7,-5,-4,-2,-1,4,-0.062944642
15.865401,13,29,7,-1,-2,-1,-1,-1,-0.062944642
15.878698,-12,1,-10,1,-1,-1,-2,-5,-0.062944642
15.878711,13,20,14,4,0,-1,2,6,-0.062944642
15.887992,2,13,-5,-2,0,-1,-1,-2,-0.062944642
15.888006,-18,-9,4,3,0,0,0,1,-0.062944642
15.901278,18,-43,-6,-4,-2,-2,-1,-4,-0.062944642
15.901295,-11,0,-7,-3,0,-1,-3,-3,-0.062944642
15.902670,19,45,0,-1,-2,-1,-3,-2,-0.062944642
15.902694,4,-40,4,1,1,0,1,4,-0.062944642
15.925826,6,34,-2,-1,0,2,1,0,-0.062944642
15.925842,-4,37,8,2,0,-1,-2,-1,-0.062944642
15.925846,-3,-14,0,-3,-3,-2,-1,-2,-0.062944642
15.925849,4,-16,-15,-9,-3,-2,-1,-1,-0.062944642
15.937893,-9,7,21,7,0,-3,-2,1,-0.062944642
15.937926,-1,9,-11,0,-2,0,0,0,-0.062944642
15.946553,-4,-8,4,-1,-2,0,-1,-2,-0.062913096
15.946570,-12,14,-5,-1,-1,-1,-1,-1,-0.062913096
15.961602,61,31,9,-3,-1,-1,1,3,-0.062913096
15.961694,-12,-4,11,0,-2,0,-2,-2,-0.062913096
15.963379,-9,-11,2,-1,0,-1,-1,-3,-0.062913096
15.963391,-5,30,-5,-2,-3,-2,-3,1,-0.062913096
15.983828,9,-6,-9,-2,-3,-1,-2,5,-0.062913096
15.983897,-5,-11,-6,-1,1,0,0,1,-0.062913096
15.985340,-5,6,0,-2,-1,0,-1,-2,-0.062913096
15.985361,8,0,1,3,-2,-1,0,0,-0.062913096
15.997523,-11,9,-3,-1,1,0,0,-5,-0.062913096
15.997556,8,-61,-6,-3,-3,-2,-2,1,-0.062913096
16.007901,0,-11,1,0,1,-1,-1,7,-0.062913096
16.007908,16,18,6,0,-1,-2,-3,-1,-0.062913096
16.021769,-21,-24,-11,-4,-3,-1,-1,-1,-0.062913096
16.021846,1,20,5,1,1,1,0,-4,-0.062913096
16.024040,-1,17,3,2,2,1,0,0,-0.062913096
16.024048,-2,-31,0,0,0,-1,-1,-2,-0.062913096
16.043062,-5,13,-2,-1,0,-2,0,-2,-0.062913096
16.045055,0,14,-12,-5,-3,-1,-1,-2,-0.062913096
16.051377,-6,-26,15,2,0,-2,0,-2,-0.062913096
16.051382,-5,-32,8,-2,-2,0,-3,-4,-0.062913096
16.057867,-4,-5,-10,-3,0,0,-1,-2,-0.062913096
16.057897,-7,3,-2,-4,-3,-1,-3,-2,-0.062913096
16.068802,-1,61,12,5,1,1,-1,-2,-0.062913096
16.068809,-2,23,-9,-2,1,-2,1,0,-0.062913096
16.081349,18,29,12,1,-3,-2,1,1,-0.062913096
16.081389,-16,-55,-8,-4,-1,0,-1,1,-0.062913096
16.082953,5,5,-10,-3,-2,-2,-3,4,-0.062913096
16.082962,-2,-17,-7,3,0,0,0,-1,-0.062913096
16.103830,-5,7,-1,-3,-1,0,-1,-3,-0.062913096
16.103845,8,53,8,1,-1,-1,-1,-1,-0.062913096
16.105456,-9,-45,-11,-3,-2,0,1,1,-0.062913096
16.105520,15,10,12,0,0,-1,1,0,-0.062913096
16.117853,-10,-36,5,3,0,0,-2,0,-0.062913096
16.117886,-4,12,5,-2,-1,-1,-2,-3,-0.062913096
16.127842,-2,-17,-8,-2,-3,-1,-2,-4,-0.062913096
16.127860,7,43,-13,-1,-1,0,0,1,-0.062913096
16.142751,-6,-45,-1,-3,0,0,-2,-6,-0.062913096
16.142769,8,6,-1,-2,-2,-1,1,3,-0.062913096
16.143012,2,18,-4,-3,-2,-1,-1,-1,-0.062913096
16.143026,11,10,-4,-4,-2,0,0,-2,-0.062913096
16.164224,-24,-2,-4,0,-1,-2,0,-1,-0.062913096
16.164257,-4,8,1,2,0,0,0,0,-0.062913096
16.166831,17,44,2,1,0,-2,0,-1,-0.062913096
16.166848,3,-36,-4,-6,-2,-2,-2,-1,-0.062913096
16.178005,-22,-21,-10,-4,-3,-1,-2,-2,-0.062913096
16.178040,-10,-1,-6,-1,0,-1,-2,-3,-0.062913096
16.188840,-8,-26,-3,-1,-1,-1,-1,-2,-0.062913096
16.188848,-20,14,14,0,-1,0,-4,-5,-0.062913096
16.201786,20,12,0,-2,-1,-2,0,3,-0.062962672
16.201818,9,5,-7,0,-1,0,1,1,-0.062962672
16.203160,-20,-18,-1,-1,-1,-1,-2,-5,-0.062962672
16.203179,-15,-28,-3,-2,-2,0,0,-1,-0.062962672
16.224376,5,26,6,1,-1,0,-2,0,-0.062962672
16.224404,-1,-23,-14,-1,1,-1,-1,-1,-0.062962672
16.226937,5,17,5,2,2,0,-1,-3,-0.062962672
16.226950,-2,-34,-9,0,-1,-1,0,1,-0.062962672
16.237949,3,13,-1,-1,0,0,0,-1,-0.062962672
16.237974,1,49,-2,-3,-3,-1,0,0,-0.062962672
16.247836,-8,-18,-2,-7,1,0,1,0,-0.062962672
16.247844,1,16,-1,7,1,-1,0,0,-0.062962672
16.261530,3,-39,10,0,0,-1,0,0,-0.062962672
16.261552,0,17,3,1,-1,0,0,-1,-0.062962672
16.263338,14,4,-3,-3,-1,-2,-1,-2,-0.062962672
16.263348,10,7,0,-2,-1,0,-1,0,-0.062962672
16.283815,-10,-20,-8,-1,-1,0,-1,-1,-0.062962672
16.283853,-22,6,-14,2,0,-1,-1,0,-0.062962672
16.285387,9,-39,28,1,-2,-3,-1,-1,-0.062962672
16.285394,-13,5,-1,0,-1,-2,-1,-1,-0.062962672
16.297508,13,-14,4,1,-1,1,-2,-1,-0.062962672
16.297543,3,-6,9,-3,-3,-3,-2,-2,-0.062962672
16.307176,-10,8,-16,2,-2,1,0,1,-0.062962672
16.307182,7,20,-9,-3,-1,-1,0,-1,-0.062962672
16.321725,-15,6,-6,-3,-1,0,-1,-1,-0.062962672
16.321757,12,7,3,-2,-2,0,0,1,-0.062962672
16.323484,-12,40,-9,-1,-1,-1,-3,-2,-0.062962672
16.323490,-25,-80,19,1,-1,-1,-2,-2,-0.062962672
16.345076,-2,-3,-11,-3,0,-1,0,-1,-0.062962672
16.345093,-4,-23,1,0,0,-2,-3,-3,-0.062962672
16.345481,-6,27,0,0,-1,0,1,1,-0.062962672
16.345494,7,22,-18,-6,-3,-2,-2,-7,-0.062962672
16.358061,-10,-18,10,3,0,0,-1,-1,-0.062962672
16.358094,-7,-6,5,1,-1,0,-1,-3,-0.062962672
16.368220,6,-14,-13,-2,-1,-1,-3,-1,-0.062962672
16.368233,-7,1,0,-1,-1,1,-1,1,-0.062962672
16.381118,3,-11,7,0,-1,-1,-1,0,-0.062962672
16.381140,30,-12,-6,-2,-2,0,2,1,-0.062962672
16.387689,-12,1,0,-2,-2,-1,-3,-2,-0.062962672
16.387720,-31,-22,-4,-2,0,-1,-1,-4,-0.062962672
16.404228,13,11,-9,-2,-2,-2,-1,-1,-0.062962672
16.404259,-16,4,-7,-3,0,-2,0,-2,-0.062962672
16.406681,30,7,4,-1,0,-1,1,-1,-0.062962672
16.406691,7,35,1,0,0,-1,1,1,-0.062962672
16.417757,-20,-14,2,0,-2,-1,-2,0,-0.062962672
16.417774,4,9,1,3,0,0,0,1,-0.062962672
16.432574,0,-19,11,-1,-1,-1,1,-3,-0.062962672
16.432591,-11,9,8,-1,1,-2,-1,-2,-0.062962672
16.440577,4,27,-3,-1,-1,0,-3,-3,-0.062962672
16.440614,-2,9,-3,0,0,-1,0,-2,-0.062962672
16.447484,4,7,-13,-1,-2,-1,-2,0,-0.062962672
16.447506,6,-40,4,0,1,0,-1,2,-0.062962672
16.464404,4,74,3,-3,-2,-3,1,0,-0.062935632
16.464437,-19,-95,3,1,-1,1,-1,0,-0.062935632
16.466494,-4,39,-2,-3,-2,-2,-2,0,-0.062935632
16.466502,26,11,-6,-1,-1,0,-1,-1,-0.062935632
16.477667,-2,-8,-7,0,-2,-1,-2,-1,-0.062935632
16.477764,0,14,8,2,1,-2,-1,-1,-0.062935632
16.494739,-6,6,3,0,-1,0,1,0,-0.062935632
16.494751,-3,-5,-5,-1,-2,-1,-2,0,-0.062935632
16.501752,16,-1,-5,-1,0,-1,-1,0,-0.062935632
16.501760,-29,-13,-19,-4,0,-1,-1,-2,-0.062935632
16.507805,10,-58,19,-1,-1,0,0,0,-0.062935632
16.507826,-16,25,-5,-3,-2,-3,0,-1,-0.062935632
16.524241,18,-24,-1,-1,0,-1,0,-1,-0.062935632
16.524321,-10,12,6,1,-1,0,-1,-3,-0.062935632
16.526675,10,-26,-14,-1,-2,-3,0,2,-0.062935632
16.526702,-22,-4,0,0,-1,-2,0,-2,-0.062935632
16.538210,-21,-5,-1,-3,-3,-1,-3,0,-0.062935632
16.538242,24,28,-3,-3,-1,-1,0,0,-0.062935632
16.548046,-23,-28,-1,0,1,-1,0,-2,-0.062935632
16.548060,29,3,0,-3,-2,-2,-1,-1,-0.062935632
16.560798,-13,14,-15,-2,0,-1,0,0,-0.062935632
16.560822,1,2,25,4,0,0,-3,-4,-0.062935632
16.567777,7,-15,-6,0,-2,0,-2,-2,-0.062935632
16.567804,8,10,-2,-1,-2,0,0,-1,-0.062935632
16.584133,11,14,-5,-4,-3,-1,0,0,-0.062935632
16.584165,-5,-31,-7,-4,-2,-2,0,1,-0.062935632
16.586264,-11,43,13,3,2,0,1,0,-0.062935632
16.586270,1,-48,-15,-5,-3,0,-1,1,-0.062935632
16.606734,-4,-22,12,3,2,-1,0,-3,-0.062935632
16.606758,2,2,-3,-4,-3,-3,-4,-2,-0.062935632
16.608727,-3,31,-11,-3,-1,-2,-1,-1,-0.062935632
16.608741,-7,-21,8,3,-1,-3,-2,-3,-0.062935632
16.621285,-8,7,-6,-2,-1,0,-1,1,-0.062935632
16.621317,13,2,-5,-2,-2,0,-2,0,-0.062935632
16.627548,-12,-29,3,-1,-2,0,0,-1,-0.062935632
16.627578,7,81,-3,-1,2,3,1,2,-0.062935632
16.643841,9,-46,-5,-1,-2,-2,-1,-1,-0.062935632
16.643867,2,23,6,-1,-2,-1,-2,-4,-0.062935632
16.645533,-3,2,-22,-5,-4,-2,-2,-1,-0.062935632
16.645601,-3,4,14,3,0,1,0,-1,-0.062935632
16.666347,-3,-1,-5,2,0,-1,-2,1,-0.062935632
16.666363,9,20,-11,-4,-3,-2,0,1,-0.062935632
16.667811,-19,-12,6,-2,-1,-1,-1,-1,-0.062935632
16.667835,0,-7,5,-2,-1,1,-3,-1,-0.062935632
16.679994,-2,-7,-13,-1,0,0,-1,-1,-0.062935632
16.680012,-12,-13,12,1,-1,-1,-1,0,-0.062935632
16.690048,2,17,-1,1,0,0,0,0,-0.062935632
16.690062,19,24,-5,-5,-4,-2,0,-3,-0.062935632
16.703787,-16,-42,-8,-5,-2,-2,-1,-1,-0.062935632
16.703798,10,30,6,4,4,0,0,3,-0.062935632
16.705566,-8,-64,-16,0,-1,0,0,-4,-0.062935632
16.705698,-11,-8,8,-4,-2,-3,-3,-2,-0.062935632
16.726583,14,20,-13,-4,-3,0,0,-1,-0.063057309
16.726615,1,14,-10,-3,-3,0,-1,0,-0.063057309
16.728223,20,22,20,2,1,-1,-2,-2,-0.063057309
16.728236,-17,14,-11,0,-1,0,0,0,-0.063057309
16.741067,-17,-63,4,-3,-2,-4,-1,-3,-0.063057309
16.741104,1,2,-8,-3,-2,-3,-1,-1,-0.063057309
16.747663,7,2,0,4,1,1,0,2,-0.063057309
16.747693,7,-19,12,1,1,-2,0,-1,-0.063057309
16.771319,8,29,-8,-5,-2,-1,1,1,-0.063057309
16.771333,-9,-20,5,0,-1,0,-1,-2,-0.063057309
16.774423,17,31,-11,-4,-1,-2,-2,0,-0.063057309
16.774430,-15,-51,-9,-5,-3,-1,0,-2,-0.063057309
16.786727,-1,41,7,4,4,0,-2,-2,-0.063057309
16.786752,-8,-33,2,4,2,0,-2,-2,-0.063057309
16.789157,0,36,3,-3,-1,-2,-1,2,-0.063057309
16.789164,-12,-1,0,-2,-2,0,0,-2,-0.063057309
16.800641,-6,38,-8,0,-3,-1,-1,-4,-0.063057309
16.800658,-6,-37,1,-2,-1,0,1,-1,-0.063057309
16.807554,-1,11,28,2,0,-2,-2,-3,-0.063057309
16.807587,-22,-35,-9,-3,-2,-1,-2,-1,-0.063057309
16.823643,21,50,4,-1,-2,-1,-2,1,-0.063057309
16.823667,3,44,-1,1,0,-1,-1,-1,-0.063057309
16.830139,2,-35,-2,0,-4,0,-1,-1,-0.063057309
16.830163,9,-17,-3,2,0,-1,0,0,-0.063057309
16.846405,-4,-16,12,2,1,-1,-1,-1,-0.063057309
16.846423,0,11,-10,-3,-2,-1,0,-1,-0.063057309
16.848073,-12,-1,-5,-3,0,0,0,-1,-0.063057309
16.848091,-1,-5,-4,0,-1,-1,-3,0,-0.063057309
16.859979,0,-11,1,0,-2,0,-2,-1,-0.063057309
16.859998,18,0,2,1,0,0,0,1,-0.063057309
16.876687,10,52,-14,-8,-3,-1,-1,-1,-0.063057309
16.876708,-33,-73,-4,2,-1,-1,0,-1,-0.063057309
16.884584,-4,3,15,0,-2,0,-1,-2,-0.063057309
16.884617,7,3,-5,1,-1,1,-1,-2,-0.063057309
16.886094,-1,16,3,2,0,-1,0,0,-0.063057309
16.886105,9,17,-2,-1,-1,-1,-1,0,-0.063057309
16.906322,6,-14,1,-2,-2,-2,0,0,-0.063057309
16.906338,1,-51,-11,-6,-2,-1,-2,-2,-0.063057309
16.907816,-23,24,-7,0,-1,-1,-1,-2,-0.063057309
16.907831,7,16,-3,2,-1,-1,-1,-1,-0.063057309
16.920630,-1,16,0,-7,-4,-1,0,0,-0.063057309
16.920641,-2,-31,1,4,1,-2,-1,-1,-0.063057309
16.930727,4,-33,-7,3,3,0,-1,0,-0.063057309
16.930740,-6,8,7,-2,-2,-3,-1,-3,-0.063057309
16.944141,-9,-1,-13,-2,-3,-1,-2,0,-0.063057309
16.944169,-1,29,2,-6,-3,-1,0,0,-0.063057309
16.946186,-15,-18,-10,-1,1,0,0,-3,-0.063057309
16.946200,20,16,11,3,0,0,1,-1,-0.063057309
16.969277,12,-13,-8,-2,-1,1,1,-1,-0.063007738
16.969287,-21,31,-8,-3,-3,-2,-1,-2,-0.063007738
16.969290,2,-36,-1,-5,-4,-4,-2,-1,-0.063007738
16.969293,-2,-2,-2,5,3,0,2,1,-0.063007738
16.988312,-5,-10,6,0,1,-1,-1,-2,-0.063007738
16.988335,16,31,-1,-1,-1,-2,-2,0,-0.063007738
16.997490,-5,4,-3,-2,-3,0,0,1,-0.063007738
16.997501,0,13,-9,-4,-2,-3,-1,0,-0.063007738
17.004203,-1,-15,7,4,2,-2,0,1,-0.063007738
17.004236,-13,-19,6,-3,-3,-1,0,-1,-0.063007738
17.006351,8,-10,-5,1,1,0,-1,0,-0.063007738
17.006357,-2,16,6,-1,-1,-1,-3,-1,-0.063007738
17.026982,-20,39,2,3,0,1,0,-3,-0.063007738
17.027071,-10,-66,-10,-2,0,-1,-2,-1,-0.063007738
17.028700,0,-10,1,1,-2,-1,0,-1,-0.063007738
17.028708,7,18,16,2,-2,-3,-4,-1,-0.063007738
17.048845,14,28,-8,-1,-1,-1,-1,-1,-0.063007738
17.048881,-1,9,-2,-1,-1,-2,0,0,-0.063007738
17.050341,-15,-42,-15,-5,-3,-1,-2,-2,-0.063007738
17.050375,16,25,1,0,1,0,-1,-1,-0.063007738
17.063866,1,-18,-2,-2,-1,0,-1,0,-0.063007738
17.063907,-8,10,1,1,-1,0,-1,-2,-0.063007738
17.065354,-1,-6,8,0,-1,-2,-2,-2,-0.063007738
17.065363,1,-3,-8,-4,-2,1,0,1,-0.063007738
17.087135,5,42,1,-2,-1,0,0,0,-0.063007738
17.087172,-1,-29,-8,0,-1,0,-1,-1,-0.063007738
17.089148,4,21,-1,-1,0,-2,1,0,-0.063007738
17.089155,-18,-9,-7,-3,-2,0,0,-3,-0.063007738
17.100040,-7,-34,-4,-1,-2,-2,-1,-2,-0.063007738
17.100058,13,6,7,0,0,-1,-3,1,-0.063007738
17.110693,1,26,1,0,1,-2,-2,-2,-0.063007738
17.110706,13,5,0,6,3,2,-1,1,-0.063007738
17.140754,5,7,9,-2,-3,-2,-2,-2,-0.063007738
17.140763,-8,-36,-4,-2,-1,-1,0,-1,-0.063007738
17.140766,-7,-5,-4,-6,-5,-1,-1,0,-0.063007738
17.140769,1,-10,0,-3,-4,-2,0,-3,-0.063007738
17.147078,9,-8,-9,-3,0,-1,-3,-1,-0.063007738
17.147097,3,6,6,5,2,-1,1,0,-0.063007738
17.148647,-2,-3,6,0,-1,1,0,-3,-0.063007738
17.148655,5,12,-12,-2,-2,-1,0,-1,-0.063007738
17.160409,-13,-13,3,-2,-2,-2,0,0,-0.063007738
17.160445,-5,-73,-7,-4,-5,-3,-2,-4,-0.063007738
17.170904,-1,-3,6,2,0,0,0,-1,-0.063007738
17.170916,-2,2,-3,-4,-2,0,-3,-1,-0.063007738
17.186989,5,5,3,1,-1,-1,1,-2,-0.063007738
17.186999,4,59,5,-2,0,-1,-1,-2,-0.063007738
17.190172,-6,-18,-2,3,1,0,0,-1,-0.063007738
17.190193,3,11,-2,-1,-3,-2,-1,0,-0.063007738
17.207230,-17,-33,3,1,-1,2,-1,-1,-0.063007738
17.207252,3,19,4,-2,0,-1,-1,-1,-0.063007738
17.210321,14,7,-7,-3,-2,-2,-1,1,-0.063007738
17.210345,-24,1,2,-2,0,-2,0,-2,-0.063007738
17.220090,14,-3,5,0,0,0,-1,0,-0.063007738
17.220132,-18,-2,-1,0,-2,-1,-1,-1,-0.063007738
17.230802,9,42,-3,0,0,-1,0,0,-0.062926617
17.230817,11,-17,2,-3,-2,0,1,0,-0.062926617
17.244075,-5,-10,-7,-2,0,-2,-3,-1,-0.062926617
17.244101,2,24,1,-2,-1,0,0,0,-0.062926617
17.245794,0,-20,-6,-2,-2,-1,0,0,-0.062926617
17.245804,-4,30,8,1,1,-1,-1,-1,-0.062926617
17.267302,3,-81,-4,-1,0,-1,0,-4,-0.062926617
17.267326,8,19,-2,-1,-1,-1,1,0,-0.062926617
17.267877,-27,-10,-5,-1,-1,-3,-2,-2,-0.062926617
17.267899,3,-12,-3,-3,0,-1,-1,-1,-0.062926617
17.279963,-5,24,0,-2,-2,-1,-1,0,-0.062926617
17.279976,6,16,-6,0,-2,2,-1,-1,-0.062926617
17.295810,8,-2,10,-5,-3,-1,-2,-2,-0.062926617
17.295838,-1,-11,-7,1,0,-1,0,0,-0.062926617
17.303179,1,6,2,2,1,-1,0,0,-0.062926617
17.303211,-11,9,-2,0,0,-1,-1,0,-0.062926617
17.304917,-7,12,2,-1,-2,-1,-1,-2,-0.062926617
17.304925,-1,-61,-1,1,-2,-1,0,-1,-0.062926617
17.326319,2,11,-7,-3,-3,-2,-1,1,-0.062926617
17.326332,9,3,3,-1,-1,-2,-1,-1,-0.062926617
17.327119,-15,11,-8,0,-2,1,-1,-3,-0.062926617
17.327137,3,2,0,-1,0,-1,-1,0,-0.062926617
17.348201,-15,-13,-1,0,-1,-1,1,-2,-0.062926617
17.348222,0,-5,-2,-2,-1,-1,-3,-1,-0.062926617
17.349578,4,1,0,-1,-2,-2,-1,1,-0.062926617
17.349589,2,22,-1,-1,0,-2,-1,-1,-0.062926617
17.363156,1,-13,-2,5,1,-2,-3,0,-0.062926617
17.363174,-7,3,5,0,2,-1,-1,-3,-0.062926617
17.363886,11,-4,-3,-2,-1,-2,0,-2,-0.062926617
17.363893,-11,-7,-3,-4,-5,-1,-1,-2,-0.062926617
17.387772,3,11,-11,-3,-2,-1,0,-2,-0.062926617
17.387786,1,-6,-4,0,0,0,-1,-1,-0.062926617
17.387792,4,-15,4,2,0,1,0,0,-0.062926617
17.387797,1,28,-5,-4,-2,-1,-2,-1,-0.062926617
17.408622,-12,-7,-11,-1,-1,0,-2,-1,-0.062926617
17.408650,-6,-17,8,0,-3,-1,-2,-3,-0.062926617
17.410739,-2,7,-6,0,0,-1,0,-1,-0.062926617
17.410753,-5,32,2,-2,-1,0,0,0,-0.062926617
17.423359,5,-52,3,3,-2,-2,-1,-2,-0.062926617
17.423380,24,44,6,0,0,-1,1,-1,-0.062926617
17.431152,-19,-10,-1,-2,-2,-1,-3,-3,-0.062926617
17.431184,10,9,-4,0,-1,0,0,-1,-0.062926617
17.445832,-12,25,-1,-4,-2,-1,1,0,-0.062926617
17.445851,-13,-10,-4,-2,-2,-2,1,0,-0.062926617
17.447380,9,-1,3,1,-2,-2,-1,0,-0.062926617
17.447391,3,-31,-8,1,1,0,0,-3,-0.062926617
17.468090,3,28,5,-3,-2,-2,0,-1,-0.062926617
17.468108,4,-12,1,0,-2,-1,0,-1,-0.062926617
17.468817,3,25,-3,-3,0,-2,1,2,-0.062926617
17.468825,-15,-50,3,1,-1,1,-2,0,-0.062926617
17.483104,19,16,-1,-1,-2,-1,-2,-1,-0.062926617
17.483222,-16,-6,-3,-1,-2,-1,0,-2,-0.062926617
17.483885,1,-33,-7,-3,-2,-2,-2,-4,-0.062926617
17.483890,-1,27,11,-2,-2,-3,-2,-3,-0.062926617
17.505952,10,-22,-2,-1,-2,-1,-1,-2,-0.062926617
17.505976,-5,24,4,-2,0,0,-2,-4,-0.062926617
17.507798,-5,-68,-13,-1,0,0,-2,-2,-0.062926617
17.507804,3,8,4,0,0,-3,0,1,-0.062926617
17.529572,-6,-1,-8,-3,0,-1,0,0,-0.062926617
17.529614,-6,2,1,0,-1,-2,0,-1,-0.062926617
17.529616,-3,-4,4,0,-2,-1,0,-3,-0.062926617
17.529620,-17,21,-5,-2,-1,0,1,-2,-0.062926617
17.545107,7,2,11,0,-1,0,0,-1,-0.062926617
17.545123,3,-27,-14,-4,-2,-3,0,0,-0.062926617
17.545534,9,23,6,0,0,1,-1,1,-0.062926617
17.545542,14,-12,6,0,-1,-1,-3,0,-0.062926617
17.565712,-25,14,-2,-2,-1,-2,-1,0,-0.062926617
17.565726,12,-35,-2,1,-1,0,0,1,-0.062926617
17.566341,-20,-1,-6,-2,-1,-2,-2,-3,-0.062926617
17.566375,16,19,-7,-2,-2,-1,0,1,-0.062926617
17.589311,-30,20,-1,-2,-1,-1,-1,-6,-0.062926617
17.589343,10,8,-4,-2,-1,-2,-2,0,-0.062926617
17.591568,1,-2,8,1,1,1,1,3,-0.062926617
17.591580,1,-4,-3,0,-1,-1,0,-3,-0.062926617
17.606124,5,-15,1,-1,-1,-2,-1,-2,-0.062926617
17.606140,-2,-2,-8,-3,-3,-2,-2,-1,-0.062926617
17.606147,8,13,5,0,1,0,-1,0,-0.062926617
17.606152,-7,-2,-5,-3,0,1,-1,0,-0.062926617
17.625710,1,-17,0,1,-2,0,-1,-1,-0.062926617
17.625736,-3,-7,-3,-2,0,1,0,0,-0.062926617
17.626626,16,36,-2,-2,-2,-2,-2,-2,-0.062926617
17.626654,-3,-3,-7,-2,0,-1,-2,-2,-0.062926617
17.648185,0,-21,-3,0,-1,-1,-2,-2,-0.062926617
17.648210,4,17,0,1,-2,1,-1,0,-0.062926617
17.649330,13,2,5,1,-2,0,0,-1,-0.062926617
17.649341,-20,-10,-5,-1,-2,-1,-1,-1,-0.062926617
17.662602,20,60,-4,-2,-2,-1,0,0,-0.062926617
17.662628,-9,-34,-2,0,2,-1,-1,-1,-0.062926617
17.670625,15,-2,4,-2,0,-2,-1,2,-0.062926617
17.670659,-23,-30,-4,0,0,0,-2,-4,-0.062926617
17.685840,10,33,1,-3,-1,-2,-1,0,-0.062926617
17.685873,0,20,1,2,-2,0,-1,-3,-0.062926617
17.686651,-30,-12,1,0,-1,0,-1,-1,-0.062926617
17.686673,15,-3,-5,-2,-2,-1,-1,-3,-0.062926617
17.708459,-11,13,8,2,0,0,-1,2,-0.062926617
17.708492,8,-79,-9,-2,-3,-2,-3,0,-0.062926617
17.715792,-3,20,-5,-1,-2,-1,-1,-3,-0.062926617
17.715824,-1,-13,-10,-2,-2,-3,-1,-2,-0.062926617
17.723195,-12,-22,3,-1,1,1,-1,-3,-0.062926617
17.723225,-9,7,-5,-4,-2,-1,-1,-1,-0.062926617
17.726751,-2,-10,-3,0,-1,-1,0,0,-0.062926617
17.726765,7,26,10,1,1,-2,-2,0,-0.062926617
17.745688,17,-22,6,0,-1,-2,-1,0,-0.062881551
17.745701,-15,34,-13,-2,1,0,-1,-1,-0.062881551
17.746286,-27,-89,-6,-2,-3,-3,-2,-5,-0.062881551
17.746294,13,-20,-2,0,-1,-1,0,1,-0.062881551
17.777071,3,12,-3,1,0,-1,-2,-1,-0.062881551
17.777084,2,28,4,-2,-1,0,-2,-2,-0.062881551
17.777334,15,15,-4,0,-1,-2,-1,-1,-0.062881551
17.777345,-1,8,7,-1,0,0,-1,0,-0.062881551
17.783228,-8,-8,-1,-1,-2,0,-2,1,-0.062881551
17.783251,3,26,2,0,-1,-1,-1,-1,-0.062881551
17.785593,8,-58,-9,-2,-3,-2,-1,-2,-0.062881551
17.785599,13,-27,3,-1,-1,0,0,-1,-0.062881551
17.807048,-16,29,-5,-3,-1,-1,-3,-2,-0.062881551
17.807055,8,1,3,-1,0,-1,-1,-1,-0.062881551
17.807057,3,45,-2,0,-1,-1,0,1,-0.062881551
17.807060,5,-5,12,1,-1,-1,-1,-4,-0.062881551
17.828233,-27,-47,-10,-2,-1,0,0,-3,-0.062881551
17.828254,14,59,22,0,-1,-2,0,1,-0.062881551
17.828890,2,-35,-1,-1,-1,-1,-2,-2,-0.062881551
17.828901,-6,0,-5,1,-2,-1,-1,-2,-0.062881551
17.842933,7,32,-3,-1,-1,-1,0,0,-0.062881551
17.842971,1,-8,7,1,1,0,-1,-2,-0.062881551
17.851064,-10,18,-3,-2,0,1,1,-1,-0.062881551
17.851088,-6,-12,-23,-4,-1,-2,-1,1,-0.062881551
17.865802,17,16,14,0,-2,-1,-1,0,-0.062881551
17.865822,1,-59,-11,-2,-1,-1,1,0,-0.062881551
17.866792,-13,84,8,0,0,-1,-2,-1,-0.062881551
17.866804,11,-65,-9,-4,0,0,-1,-1,-0.062881551
17.888502,-8,13,-4,-1,2,-2,1,2,-0.062881551
17.888534,-3,-39,-11,-1,-1,-1,-1,-2,-0.062881551
17.891108,0,8,3,-3,0,-1,-1,-1,-0.062881551
17.891122,-19,19,3,-1,0,0,-2,-3,-0.062881551
17.902448,21,-13,-5,-2,-2,-2,1,-1,-0.062881551
17.902484,-5,5,7,-1,-2,-2,-1,0,-0.062881551
17.910840,3,1,0,2,-2,0,0,0,-0.062881551
17.910867,8,58,12,1,-1,-1,-1,3,-0.062881551
17.926378,-29,-46,-4,-2,-1,-1,-3,-5,-0.062881551
17.926401,0,15,-4,0,-1,0,-1,-2,-0.062881551
17.928046,-17,-34,-17,-4,-1,-2,-2,-1,-0.062881551
17.928060,5,42,11,-1,-1,0,1,-3,-0.062881551
17.948315,3,-41,19,6,1,-1,1,0,-0.062881551
17.948323,-12,26,10,1,-1,0,0,0,-0.062881551
17.948872,18,-2,-3,-2,-1,0,-2,0,-0.062881551
17.948906,-16,-20,-4,-1,0,-1,-2,-3,-0.062881551
17.971522,2,47,-13,-4,-1,-1,-2,1,-0.062881551
17.971551,9,-27,-3,0,-1,-2,-2,-2,-0.062881551
17.973978,-6,10,7,1,-1,-1,1,-2,-0.062881551
17.973984,-9,-20,-1,-3,-2,-3,-1,1,-0.062881551
17.994766,-15,-14,-8,0,0,-1,-3,-5,-0.063030273
17.994786,-11,2,-9,-4,-2,-2,0,1,-0.063030273
17.994789,4,42,2,-2,-2,-1,1,-1,-0.063030273
17.994792,5,-9,1,0,-2,-2,0,-2,-0.063030273
18.008756,9,20,3,-2,-1,-2,0,0,-0.063030273
18.008789,11,6,-9,-2,0,-3,0,-1,-0.063030273
18.011843,-52,-67,8,0,1,0,-1,-1,-0.063030273
18.011868,1,41,1,-1,-1,-1,-4,0,-0.063030273
18.023501,-3,-18,-4,-1,-2,-1,-1,-2,-0.063030273
18.023587,1,8,-4,-2,-1,0,-1,-3,-0.063030273
18.026281,19,6,2,0,-3,-2,0,0,-0.063030273
18.026300,-13,-3,-3,-2,0,-2,1,-2,-0.063030273
18.045791,9,-30,4,1,-2,-1,-1,-1,-0.063030273
18.045810,-11,3,-8,-3,-1,-1,-1,-2,-0.063030273
18.046448,7,2,0,-2,-1,-2,-2,-3,-0.063030273
18.046488,13,-13,-18,-3,-2,-1,0,0,-0.063030273
18.068101,-36,19,30,0,0,-1,-2,2,-0.063030273
18.069114,-14,-39,-2,1,0,-1,-1,-2,-0.063030273
18.069119,12,11,17,1,0,-1,-1,-2,-0.063030273
18.069122,13,-5,-6,-1,-1,0,0,1,-0.063030273
18.083322,8,19,-12,-2,1,-1,1,-3,-0.063030273
18.083353,17,25,4,1,0,0,1,5,-0.063030273
18.085896,-5,-7,-18,-5,-1,-1,-1,4,-0.063030273
18.085902,-5,-19,1,2,-1,0,-2,-5,-0.063030273
18.106251,9,-7,-5,-1,-1,-1,-1,3,-0.063030273
18.106263,-28,-29,1,-2,1,-2,-3,-4,-0.063030273
18.106265,28,26,-2,2,2,0,0,0,-0.063030273
18.106268,-18,-6,-5,-4,-1,-2,1,-1,-0.063030273
18.128311,14,-31,-5,1,-1,1,0,-4,-0.063030273
18.128339,17,25,-1,0,-2,-3,0,2,-0.063030273
18.129738,-32,-6,-1,-2,-1,-1,1,-3,-0.063030273
18.129746,12,28,5,-1,-2,-2,-2,-2,-0.063030273
18.142498,-11,-48,-3,-1,-2,-3,0,0,-0.063030273
18.142519,10,7,0,1,-1,0,-2,-2,-0.063030273
18.158479,14,-17,-21,-5,-1,0,-2,-3,-0.063030273
18.158504,-25,23,6,-3,-1,-1,-1,0,-0.063030273
18.166038,14,-17,-1,3,0,-1,-2,1,-0.063030273
18.166069,-9,5,-1,-2,-2,-2,0,-2,-0.063030273
18.168366,-1,-12,7,2,2,-2,1,1,-0.063030273
18.168379,5,0,-15,-2,-1,-2,-1,1,-0.063030273
18.188697,-11,43,-1,-3,-2,1,2,-1,-0.063030273
18.188718,-23,-39,3,0,1,0,0,-4,-0.063030273
18.190434,6,25,-3,-2,-3,-1,-2,-3,-0.063030273
18.190440,13,14,0,1,0,-2,-2,1,-0.063030273
18.205740,-15,22,-1,-2,-2,-2,-1,-1,-0.063030273
18.205747,1,-13,-1,0,-2,-2,-1,-2,-0.063030273
18.210952,-5,-11,0,-2,-2,0,-1,-2,-0.063030273
18.210979,0,13,4,0,-1,0,0,1,-0.063030273
18.226033,3,-7,-5,0,-1,-1,-2,-3,-0.063030273
18.228231,5,13,-1,-1,-3,-1,-2,-1,-0.063030273
18.228255,-1,27,1,-1,-2,0,-1,-3,-0.063030273
18.228258,7,-60,0,-1,-1,1,0,0,-0.063030273
18.248172,-5,27,-3,-5,-2,0,0,0,-0.063030273
18.248196,8,-39,-8,0,1,-1,-2,-4,-0.063030273
18.248840,-13,37,10,1,-1,-1,-1,2,-0.063016753
18.248877,-5,-29,0,-2,1,1,-1,-1,-0.063016753
18.262564,17,3,8,-4,-1,-1,1,1,-0.063016753
18.262582,-36,-4,-8,0,-1,0,-1,-2,-0.063016753
18.271020,17,-21,-15,-3,-3,-3,-1,-4,-0.063016753
18.271054,1,8,-2,-1,-1,-2,-1,-3,-0.063016753
18.285642,10,-2,4,2,-1,0,-3,0,-0.063016753
18.285659,7,18,4,-2,-1,-2,-1,2,-0.063016753
18.287425,-2,-3,-3,0,-1,2,-1,0,-0.063016753
18.287438,-13,-3,-1,-1,0,-3,-1,-1,-0.063016753
18.317185,5,-2,-1,-3,-2,0,-3,-1,-0.063016753
18.317230,8,7,-2,-1,0,-1,0,1,-0.063016753
18.318403,-49,-46,-2,0,0,-1,-1,-1,-0.063016753
18.318408,-1,33,6,3,-1,0,0,-4,-0.063016753
18.322596,2,-15,-11,-1,-1,-2,-2,-2,-0.063016753
18.322620,19,4,1,-3,-2,0,1,6,-0.063016753
18.330718,9,24,3,0,0,-1,-1,1,-0.063016753
18.330742,-21,5,-2,0,-1,-3,0,-3,-0.063016753
18.345809,8,5,-1,0,-1,-2,-1,-3,-0.063016753
18.345826,-3,23,0,-4,0,-1,-1,-1,-0.063016753
18.348212,11,-12,-1,0,-1,-1,0,2,-0.063016753
18.348220,8,-11,-5,0,-2,-1,-2,-2,-0.063016753
18.369696,-8,-13,8,0,0,1,-1,-1,-0.063016753
18.369708,-2,33,-4,-1,-2,-1,-2,-4,-0.063016753
18.369710,-1,-11,2,-1,0,0,-2,-1,-0.063016753
18.369713,-20,-7,-2,0,-2,-1,-2,-2,-0.063016753
18.382992,13,-17,-7,1,0,-1,0,-1,-0.063016753
18.383025,-5,16,5,-3,-2,-1,-1,-1,-0.063016753
18.391088,-4,21,-7,0,1,-1,0,-2,-0.063016753
18.391108,10,9,18,-1,-3,0,-3,-2,-0.063016753
18.406018,-16,-8,-9,-4,0,-2,0,-1,-0.063016753
18.406042,-5,-34,4,2,1,0,0,-2,-0.063016753
18.408079,25,9,1,-2,-2,-3,-3,-2,-0.063016753
18.408085,-31,-26,-11,-3,1,0,0,-2,-0.063016753
18.428072,2,8,-3,-3,1,-3,-2,2,-0.063016753
18.428092,-1,-12,8,1,0,-2,-1,-3,-0.063016753
18.436456,4,1,4,-1,-1,-1,1,0,-0.063016753
18.436486,6,1,-1,-2,-1,0,1,0,-0.063016753
18.442920,-3,3,-2,-1,-1,-1,-1,-1,-0.063016753
18.442954,1,7,3,2,0,-3,-1,2,-0.063016753
18.451153,0,-26,-4,1,-1,0,-2,0,-0.063016753
18.451181,15,19,13,0,-2,-2,-1,-2,-0.063016753
18.465841,-34,-14,-13,-3,-2,0,-1,-3,-0.063016753
18.465867,12,-8,-16,-4,-2,-2,0,0,-0.063016753
18.466575,-4,7,0,1,0,0,-2,-1,-0.063016753
18.466583,3,-15,-1,-1,0,0,0,2,-0.063016753
18.488746,17,-6,-1,0,-1,1,0,-1,-0.063016753
18.488917,-16,48,9,0,-1,1,-1,-3,-0.063016753
18.491141,-5,-20,-5,-3,-2,-1,-2,-3,-0.063016753
18.491147,-15,-16,-11,-2,-1,-1,-2,-2,-0.063016753
18.511497,1,24,6,0,-2,-1,0,0,-0.062904086
18.511523,2,-68,-10,-5,-2,-1,0,-1,-0.062904086
18.512047,3,10,5,4,1,-1,0,1,-0.062904086
18.512055,4,0,-3,-1,1,-1,-3,-2,-0.062904086
18.526617,6,22,-4,0,-1,-1,-1,2,-0.062904086
18.526673,-13,-30,0,0,-3,-2,-1,-4,-0.062904086
18.526676,7,10,-3,-5,-1,-1,-1,0,-0.062904086
18.526678,-11,-14,8,2,0,-2,0,0,-0.062904086
18.548855,-2,-6,-5,-3,-3,-3,-1,-4,-0.062904086
18.548873,16,29,0,0,2,0,-2,2,-0.062904086
18.549564,-4,2,-3,-2,0,-1,-1,-1,-0.062904086
18.549569,22,9,-1,1,-1,-1,-1,2,-0.062904086
18.571360,-28,-13,-4,0,-1,-1,-1,-5,-0.062904086
18.571376,4,0,9,0,-2,-1,-2,0,-0.062904086
18.571985,-1,-17,-3,2,0,-2,-1,-4,-0.062904086
18.572016,-1,33,-5,-2,-2,-1,-1,2,-0.062904086
18.586640,32,38,11,-1,0,-2,-1,2,-0.062904086
18.586648,-16,10,-2,1,0,0,1,-1,-0.062904086
18.586650,-7,-17,-4,-3,-1,-2,1,-1,-0.062904086
18.586653,-1,-13,-5,0,0,-1,-1,-3,-0.062904086
18.608894,9,-20,-3,-1,-2,1,-1,-1,-0.062904086
18.608924,-3,21,-15,-2,-1,-1,1,1,-0.062904086
18.611257,16,-8,22,1,-3,-2,-2,-1,-0.062904086
18.611282,-41,-44,-2,2,0,-3,-1,0,-0.062904086
18.633785,11,25,8,-1,0,-2,-2,0,-0.062904086
18.633796,0,-17,-9,-2,0,-2,-1,-2,-0.062904086
18.633798,-4,-6,2,-2,-2,1,-1,0,-0.062904086
18.633801,0,24,-8,-3,-1,-1,1,-5,-0.062904086
18.645803,5,-19,10,-2,-1,-2,-1,5,-0.062904086
18.645821,-5,10,-7,0,0,0,0,-2,-0.062904086
18.647910,-14,1,-8,-2,0,0,1,0,-0.062904086
18.647921,33,3,7,0,-1,0,-2,1,-0.062904086
18.668140,-35,-18,-13,-3,-3,-2,-1,-6,-0.062904086
18.668157,23,18,9,0,-1,-1,-1,-1,-0.062904086
18.669072,-10,3,-1,1,0,-1,0,0,-0.062904086
18.669087,4,-14,-4,-2,-3,0,-1,-1,-0.062904086
18.691408,2,14,-6,2,1,-1,-1,-2,-0.062904086
18.691431,16,1,-3,-4,-2,-2,-2,0,-0.062904086
18.694647,-1,25,5,-1,0,-1,-2,-4,-0.062904086
18.694663,11,-21,-6,-4,-2,-2,-2,1,-0.062904086
18.705941,-17,1,-4,-1,-1,0,0,1,-0.062904086
18.705965,-13,-44,2,-1,-2,-1,-1,-5,-0.062904086
18.707866,-10,4,-6,-3,-1,0,-3,-2,-0.062904086
18.707873,-11,-14,2,1,-1,0,0,0,-0.062904086
18.728372,27,46,3,-1,-1,1,-1,-1,-0.062904086
18.728390,-14,-13,1,0,-1,-2,-2,0,-0.062904086
18.728968,1,4,-6,-2,-1,-2,0,1,-0.062904086
18.728985,15,7,-8,-2,-2,-1,-2,0,-0.062904086
18.751345,-14,-3,5,1,1,-2,1,-2,-0.062904086
18.751362,27,2,4,0,0,0,1,4,-0.062904086
18.752297,-12,-3,1,0,-3,-3,0,-2,-0.062904086
18.752302,1,2,1,-1,0,-2,-1,-1,-0.062904086
18.766323,-10,-5,-7,-2,-2,-2,-4,-4,-0.062917602
18.766341,-3,16,-6,-2,-1,1,-2,-2,-0.062917602
18.767925,-1,-19,5,-1,-2,-1,-1,1,-0.062917602
18.767931,11,16,-3,0,1,-1,0,-1,-0.062917602
18.791125,-4,-4,5,0,-1,0,0,0,-0.062917602
18.791133,-21,-20,2,-1,-2,-2,-2,-3,-0.062917602
18.791136,13,-22,-8,1,-1,0,1,2,-0.062917602
18.791139,-22,25,-2,-2,-1,0,-2,-5,-0.062917602
18.811546,19,-20,-6,-4,0,1,-2,1,-0.062917602
18.811569,-2,15,1,0,0,0,1,0,-0.062917602
18.812489,-4,-1,4,0,1,-2,-3,-3,-0.062917602
18.812496,3,-4,-8,-3,0,-1,1,0,-0.062917602
18.825959,-1,-9,1,1,-3,0,0,-1,-0.062917602
18.825985,-4,1,-3,-1,-2,-1,-1,-1,-0.062917602
18.827578,10,23,-1,-2,-1,0,1,-1,-0.062917602
18.827593,-7,-15,-1,-3,-1,-3,-1,-1,-0.062917602
18.848356,9,29,-1,0,1,-1,-1,1,-0.062917602
18.848375,-8,-56,-3,-2,-1,-2,-2,-4,-0.062917602
18.849828,5,-5,-6,-1,-1,-1,1,1,-0.062917602
18.849847,7,10,6,0,-1,0,0,0,-0.062917602
18.871727,-1,4,-2,-1,0,-2,-1,-3,-0.062917602
18.871751,-5,0,1,1,-1,-1,-2,-2,-0.062917602
18.873200,-6,24,-1,-1,-1,-2,-3,-1,-0.062917602
18.873213,-6,-12,11,1,0,-1,0,-1,-0.062917602
18.885662,3,-21,-11,-3,-2,-2,-3,1,-0.062917602
18.885678,5,40,6,0,1,0,0,-1,-0.062917602
18.886627,-6,-44,-2,-1,0,0,-2,-1,-0.062917602
18.888353,-2,-35,1,-2,-3,-1,-3,-2,-0.062917602
18.908466,-1,39,1,0,0,0,-1,-2,-0.062917602
18.908498,-6,4,1,-2,0,0,-1,1,-0.062917602
18.911460,6,0,-8,-2,-1,0,-1,2,-0.062917602
18.911475,26,20,-1,-1,-2,0,-1,0,-0.062917602
18.931482,-25,-20,4,0,-1,-1,-1,-3,-0.062917602
18.931507,-2,-13,-8,-3,-2,0,-2,0,-0.062917602
18.932171,-1,5,1,0,-1,-2,-1,-3,-0.062917602
18.932189,-5,-2,-5,-3,-1,0,-1,0,-0.062917602
18.945847,4,-8,-2,-1,-1,0,0,-2,-0.062917602
18.945866,-3,9,-7,-2,-2,-1,1,0,-0.062917602
18.946376,-10,4,-1,-2,-2,-1,-2,-4,-0.062917602
18.946384,-6,-13,2,3,0,0,-2,0,-0.062917602
18.968180,1,9,8,2,1,0,1,-1,-0.062917602
18.968197,9,-3,2,-1,-1,-1,0,1,-0.062917602
18.969286,-14,5,-9,-1,-1,0,-2,-3,-0.062917602
18.969296,0,-5,-4,-3,-2,-2,-2,-1,-0.062917602
18.993032,-11,-13,-1,1,-2,-1,1,-1,-0.062917602
18.993104,10,-3,-5,0,-1,-1,-1,-1,-0.062917602
18.993106,7,24,4,0,-1,-2,1,3,-0.062917602
18.993109,0,15,-2,0,0,-1,-2,-1,-0.062917602
19.008162,29,44,-14,-1,-1,-2,-2,1,-0.062917602
19.008178,-20,-32,4,0,0,0,-2,-1,-0.062917602
19.008184,-9,-10,-2,-4,-1,-1,0,-4,-0.062917602
19.008189,-3,3,0,0,0,0,-1,1,-0.062917602
19.028323,0,-4,1,0,-1,-1,-1,1,-0.063007738
19.028379,2,7,-1,1,-1,0,-2,1,-0.063007738
19.028970,6,6,3,0,0,-1,-1,-1,-0.063007738
19.028989,3,2,-11,-4,-1,-1,-1,-4,-0.063007738
19.051955,-5,-25,7,1,0,0,-1,-2,-0.063007738
19.051987,-3,15,2,-1,-2,-1,1,0,-0.063007738
19.053909,-4,-18,-10,-4,0,-2,-2,-1,-0.063007738
19.053918,-3,24,19,1,1,-1,0,-1,-0.063007738
19.066136,-2,-15,0,1,0,-1,0,0,-0.063007738
19.066168,11,-46,6,2,1,-1,0,-1,-0.063007738
19.068555,-5,36,-2,0,-2,-1,0,-1,-0.063007738
19.068565,-21,-17,-5,0,0,0,-1,-2,-0.063007738
19.088488,0,-17,-5,-3,-2,-2,-2,0,-0.063007738
19.088511,8,16,-12,-3,-1,-1,0,2,-0.063007738
19.089197,-2,-4,1,1,-1,-1,-2,-2,-0.063007738
19.089218,-1,-19,7,1,2,-1,0,0,-0.063007738
19.111558,-15,32,0,-2,0,1,-1,-3,-0.063007738
19.111577,9,29,-3,-1,-4,-1,-2,-1,-0.063007738
19.113482,-9,-35,-2,0,-1,-2,1,2,-0.063007738
19.113494,18,4,-8,0,-2,0,-1,-2,-0.063007738
19.125309,-28,-46,2,0,0,-2,-1,0,-0.063007738
19.125334,-18,-6,-2,-4,0,-1,-2,-1,-0.063007738
19.133412,12,27,18,0,0,0,-3,-1,-0.063007738
19.133443,-4,10,-8,1,-2,-2,2,3,-0.063007738
19.150667,6,-31,4,-1,-1,1,0,-2,-0.063007738
19.150679,-3,10,-3,-3,-3,-2,-2,-2,-0.063007738
19.150682,3,31,-11,-1,0,0,-2,-2,-0.063007738
19.150684,-6,-45,12,-2,-1,-1,0,-1,-0.063007738
19.171461,22,29,13,0,0,-2,-1,1,-0.063007738
19.171490,-16,15,3,0,1,-1,-1,-1,-0.063007738
19.173383,5,-13,-4,0,-1,-2,0,-2,-0.063007738
19.173396,2,8,-15,-3,-1,-1,-2,-1,-0.063007738
19.185593,0,-7,-6,-3,-1,-3,-1,-1,-0.063007738
19.185618,-4,-40,3,-2,-1,-1,0,-1,-0.063007738
19.193341,4,25,-1,-1,0,0,2,-1,-0.063007738
19.193362,-3,16,0,0,-2,-2,-2,-3,-0.063007738
19.216530,-7,9,1,-2,-2,-1,-2,-1,-0.063007738
19.216556,9,-50,-5,-1,0,-1,-1,-4,-0.063007738
19.217161,-1,-28,-2,-1,-1,1,0,1,-0.063007738
19.217176,1,18,1,-2,-1,0,0,1,-0.063007738
19.231837,-2,16,-3,2,2,-1,-2,-2,-0.063007738
19.231857,3,5,0,0,-1,-2,0,-3,-0.063007738
19.232702,-2,18,11,1,0,0,0,0,-0.063007738
19.232720,11,10,-2,-2,-1,-2,-2,-2,-0.063007738
19.254073,5,-53,-8,-3,-3,0,-1,1,-0.063007738
19.254105,-6,-5,-4,0,-3,0,-2,0,-0.063007738
19.256008,-1,4,10,-1,1,0,1,1,-0.063007738
19.256016,5,1,-10,-1,-1,-1,-1,0,-0.063007738
19.268360,-12,2,-4,-1,-3,-3,-3,-2,-0.063007738
19.268391,5,27,11,-1,0,-1,-1,0,-0.063007738
19.269732,27,7,-7,-3,-2,-2,-1,-3,-0.063007738
19.269738,-28,-5,-2,-2,-2,-1,-2,0,-0.063007738
19.291383,-3,-1,4,1,1,0,1,-2,-0.062940137
19.291416,2,21,-3,2,-1,0,0,-1,-0.062940137
19.292241,-17,-33,-6,-2,-4,-3,-2,0,-0.062940137
19.292293,-3,3,-4,0,-2,-2,-1,-2,-0.062940137
19.305872,-9,-10,4,-3,-2,0,-1,-2,-0.062940137
19.305884,-8,14,-3,1,1,0,1,1,-0.062940137
19.313364,12,13,15,-1,-2,-1,-2,-1,-0.062940137
19.313382,9,17,3,1,0,-1,-1,-3,-0.062940137
19.328291,-5,-30,-17,-6,-2,-3,-2,5,-0.062940137
19.328316,-2,5,-4,-1,-3,-1,0,-2,-0.062940137
19.329708,-4,-13,-1,0,-1,-2,0,-1,-0.062940137
19.329721,4,-9,6,-1,-1,-1,0,-1,-0.062940137
19.352736,14,62,-3,-1,1,0,1,-1,-0.062940137
19.352746,-1,-15,6,-1,1,0,-2,0,-0.062940137
19.352749,12,6,-8,0,-2,-1,-1,-3,-0.062940137
19.352752,-18,3,-6,-5,-2,-2,-1,0,-0.062940137
19.365483,-17,3,2,0,-2,-2,-2,-3,-0.062940137
19.365515,-3,29,6,-3,-1,-2,-1,-2,-0.062940137
19.373715,-9,-64,-3,0,1,-2,-1,-1,-0.062940137
19.373746,14,3,4,0,0,-1,0,1,-0.062940137
19.388614,12,4,-17,-2,-2,-2,-1,-1,-0.062940137
19.388654,4,-4,-2,-4,-2,-2,-1,-1,-0.062940137
19.390379,5,20,14,3,0,-2,1,2,-0.062940137
19.390385,-17,-13,-2,0,-1,0,-1,-1,-0.062940137
19.410833,-1,-29,1,-1,1,1,-1,-3,-0.062940137
19.410854,-6,-1,-6,-1,1,-1,-2,-1,-0.062940137
19.413338,7,13,-15,-4,0,-2,-1,0,-0.062940137
19.413352,15,15,-9,-4,-3,-1,0,-2,-0.062940137
19.433946,-8,22,4,-1,-1,-2,-1,-2,-0.062940137
19.433970,0,5,0,1,1,0,0,-2,-0.062940137
19.434949,-8,-57,-11,-3,-1,0,-3,-3,-0.062940137
19.434963,-1,-15,2,0,0,-1,0,0,-0.062940137
19.448672,3,0,-4,0,-1,-2,1,0,-0.062940137
19.448700,6,-5,-6,-3,-2,-2,0,-10,-0.062940137
19.449036,-8,-22,-7,-4,-3,-1,-1,1,-0.062940137
19.449056,10,34,18,4,1,0,0,-1,-0.062940137
19.471772,-18,-49,3,1,0,-1,0,14,-0.062940137
19.471796,6,-4,1,-2,-2,-1,-2,-2,-0.062940137
19.472892,-11,26,-9,-3,-1,-1,-1,-5,-0.062940137
19.472902,0,-6,-8,-3,-2,-4,-2,0,-0.062940137
19.494029,8,18,5,-1,-1,-2,-1,-17,-0.062940137
19.494127,-13,-12,10,2,1,1,0,0,-0.062940137
19.494729,2,43,0,0,1,1,-3,-2,-0.062940137
19.494806,-7,19,-4,-2,0,0,-1,1,-0.062940137
19.509023,7,-15,-9,-6,-4,-3,-2,0,-0.062940137
19.509045,28,-2,16,5,0,0,-2,2,-0.062940137
19.509052,-54,16,5,1,-1,-2,-1,3,-0.062940137
19.509058,-2,-57,-3,-3,0,-1,0,-1,-0.062940137
19.530683,2,1,-7,-1,-2,-1,0,3,-0.062953657
19.530733,14,24,-21,-2,-1,-2,-1,3,-0.062953657
19.532235,18,-17,8,3,2,-1,-1,-4,-0.062953657
19.532251,2,15,-4,-2,0,-1,-1,-2,-0.062953657
19.554016,5,-4,4,-2,-3,1,-1,1,-0.062953657
19.554031,-43,-15,-17,-6,-3,-2,-2,0,-0.062953657
19.556120,5,23,-18,0,-1,2,0,1,-0.062953657
19.556128,3,-37,-1,1,0,0,-3,-1,-0.062953657
19.570550,18,-7,6,2,0,0,-2,5,-0.062953657
19.570559,-16,12,-6,-2,1,-1,-1,-5,-0.062953657
19.570562,5,-5,-10,-2,-3,-2,1,1,-0.062953657
19.570565,0,12,-5,-2,-2,-2,1,0,-0.062953657
19.591645,3,28,-2,-5,-3,0,0,-3,-0.062953657
19.591667,11,-25,9,4,1,1,0,1,-0.062953657
19.593622,-11,-3,2,-4,-2,-1,-3,-3,-0.062953657
19.593636,5,-3,0,4,0,-1,1,-1,-0.062953657
19.614154,-4,10,-1,0,0,0,-1,-2,-0.062953657
19.614197,-18,8,-3,-3,-1,0,0,2,-0.062953657
19.616678,3,-17,-7,-1,-2,-1,-1,-1,-0.062953657
19.616690,7,24,-16,-5,-1,-3,-2,0,-0.062953657
19.628352,-5,2,26,7,3,2,-1,-7,-0.062953657
19.628384,-3,-6,2,-5,-3,-2,-3,3,-0.062953657
19.630965,16,12,11,1,-1,0,0,-1,-0.062953657
19.630973,-33,-59,-21,-6,-2,-1,-2,-4,-0.062953657
19.651980,18,24,-8,-3,-1,-1,-2,-3,-0.062953657
19.652003,5,-20,-10,1,1,-2,0,-3,-0.062953657
19.652201,15,20,-2,-5,-3,-2,-1,1,-0.062953657
19.652220,3,1,-14,4,1,1,-2,-1,-0.062953657
19.673922,-19,-30,21,3,2,0,-1,-3,-0.062953657
19.673947,3,74,-1,1,-1,0,-2,-4,-0.062953657
19.675849,-3,-70,-15,-6,-3,-4,-1,-1,-0.062953657
19.675861,9,42,11,-2,-2,0,1,0,-0.062953657
19.688637,4,-9,4,-2,-2,-1,-2,0,-0.062953657
19.688658,24,21,-1,-1,-2,0,-1,2,-0.062953657
19.690962,-14,-13,-5,3,2,0,1,-2,-0.062953657
19.690968,-7,5,7,-1,-2,-1,-1,-1,-0.062953657
19.711433,-5,0,-14,-1,0,-1,1,3,-0.062953657
19.711447,-19,-30,12,0,1,-1,0,-2,-0.062953657
19.718208,4,-21,-3,-1,-1,-1,-2,-1,-0.062953657
19.718221,19,-3,4,-2,-1,-1,-1,-1,-0.062953657
19.734044,-33,-39,2,4,2,1,0,-2,-0.062953657
19.734072,-10,13,-6,-5,-1,-2,0,-1,-0.062953657
19.735928,-12,17,6,2,0,1,-1,0,-0.062953657
19.735936,8,3,5,-4,-1,0,-2,1,-0.062953657
19.748239,14,-3,-19,-9,-6,-4,-3,-2,-0.062953657
19.748275,13,36,6,3,0,-1,0,-1,-0.062953657
19.748920,-3,-49,12,6,2,0,-1,-3,-0.062953657
19.750861,-10,9,11,0,-1,-1,-1,-3,-0.062953657
19.771377,8,19,1,-2,-2,0,0,-2,-0.062953657
19.771409,-21,-66,-19,-3,-2,-1,-1,1,-0.062953657
19.774320,4,100,9,0,-1,0,-1,-1,-0.062953657
19.774332,-8,-28,4,6,0,-1,1,-1,-0.062953657
19.794029,-11,-38,15,2,-1,0,0,0,-0.063048299
19.794056,4,-39,-4,-6,-4,0,-1,-1,-0.063048299
19.794957,5,56,-12,-5,-3,-2,-1,-1,-0.063048299
19.795020,-2,2,-1,-1,-1,-1,-1,1,-0.063048299
19.808383,6,27,-5,1,0,-1,0,-1,-0.063048299
19.808412,12,-19,1,0,-2,0,-2,0,-0.063048299
19.809165,-33,-50,-9,-4,-3,-4,-2,-3,-0.063048299
19.809241,10,22,14,1,0,0,-1,-1,-0.063048299
19.830860,11,-11,-2,0,1,-1,1,0,-0.063048299
19.830884,-8,54,0,0,1,0,-1,0,-0.063048299
19.832008,-11,-64,0,-2,-1,-1,0,-2,-0.063048299
19.832024,-8,6,-5,-3,-3,-3,-3,-1,-0.063048299
19.853870,-26,-39,-33,-6,-2,-1,-1,-1,-0.063048299
19.853888,16,11,43,3,-1,-1,-1,-2,-0.063048299
19.854513,13,29,-3,-3,-1,1,-2,-1,-0.063048299
19.854531,-12,-2,-8,-5,-2,-2,-1,-3,-0.063048299
19.868221,-8,24,8,2,2,-3,-1,1,-0.063048299
19.868238,7,37,-14,0,0,0,0,-1,-0.063048299
19.868800,33,-33,-17,-7,-2,-3,-2,-3,-0.063048299
19.868827,-25,-31,14,1,-1,1,0,-1,-0.063048299
19.891938,11,43,1,-4,0,-1,-1,-5,-0.063048299
19.891970,-7,9,-10,0,0,0,-2,2,-0.063048299
19.894169,-5,36,27,3,1,-1,1,3,-0.063048299
19.894185,18,7,-4,3,2,0,1,-1,-0.063048299
19.916072,13,33,-8,-2,-2,-1,1,0,-0.063048299
19.916086,-7,-60,-9,-1,-1,-2,-1,-4,-0.063048299
19.916089,-9,-54,-4,-3,-3,2,0,1,-0.063048299
19.916091,8,48,12,-2,0,-2,-3,0,-0.063048299
19.928328,-25,-10,8,1,-1,1,1,-1,-0.063048299
19.928349,10,-4,1,-1,-2,-3,-2,-2,-0.063048299
19.930047,-13,20,-3,-3,-3,-2,-1,0,-0.063048299
19.930059,11,42,-27,-3,-4,-3,-2,-2,-0.063048299
19.950674,-1,-44,13,-1,-1,0,0,-1,-0.063048299
19.950692,-21,-21,-3,-2,-1,1,0,-2,-0.063048299
19.951437,2,27,2,3,0,-2,-1,0,-0.063048299
19.951454,18,-59,-1,0,-1,0,1,0,-0.063048299
19.974261,-40,-31,-19,-4,-3,-3,-4,-3,-0.063048299
19.974285,6,12,1,2,2,-1,-1,-1,-0.063048299
19.977380,0,-5,6,4,2,0,0,-1,-0.063048299
19.977394,-11,-11,6,-2,-1,-1,0,-1,-0.063048299
19.988245,18,8,-8,-4,-2,-2,-3,0,-0.063048299
19.988268,-2,-9,-2,-2,0,-1,-1,1,-0.063048299
19.989984,8,99,11,3,0,-1,0,-1,-0.063048299
19.989998,19,-42,-1,-3,-1,-1,-3,1,-0.063048299
30.025147,5,-9,-4,-7,-2,0,-1,-1,-0.062886056
30.025162,-3,9,-3,3,0,0,0,-1,-0.062886056
30.039479,14,21,-1,-1,-3,1,1,0,-0.062886056
30.039551,-10,21,16,4,0,-1,0,-1,-0.062886056
30.040868,-6,13,-9,-5,-3,-2,-1,-2,-0.062886056
30.040944,-1,-28,-6,-3,0,-1,0,0,-0.062886056
30.077990,8,-39,-22,-1,-1,0,0,-1,-0.062886056
30.078029,-11,25,3,1,1,0,-2,-1,-0.062886056
30.080391,19,-9,-8,-3,-2,-2,-1,-1,-0.062886056
30.080399,-10,35,3,0,-1,1,0,-2,-0.062886056
30.080402,1,-50,-13,-3,-2,-1,0,-1,-0.062886056
30.080405,12,10,16,1,0,0,0,1,-0.062886056
30.093074,-19,9,1,-1,1,-2,0,-1,-0.062886056
30.093089,11,14,-1,-3,-2,-3,-1,-1,-0.062886056
30.099219,0,22,11,2,0,0,-1,-1,-0.062886056
30.099237,-5,-11,-18,-4,-3,-2,0,0,-0.062886056
30.100937,8,-14,-1,2,-2,1,-1,-1,-0.062886056
30.100944,3,-5,18,-1,0,-1,0,0,-0.062886056
30.130994,-10,68,4,0,-1,0,0,-2,-0.062886056
30.131005,2,-31,-13,-3,0,0,-2,-2,-0.062886056
30.131009,7,-4,-4,-1,-1,1,0,-1,-0.062886056
30.131011,3,13,0,-2,-1,-1,0,-3,-0.062886056
30.135328,-20,10,-1,1,-3,-2,-2,-1,-0.062886056
30.135349,-17,6,-5,-3,-2,-1,-2,0,-0.062886056
30.145734,9,6,1,-4,-2,-1,-1,-1,-0.062886056
30.145746,-7,-5,7,0,0,-1,-2,-2,-0.062886056
30.159499,28,-12,-4,-6,-1,0,-1,-1,-0.062886056
30.161554,-3,21,-5,0,-2,-3,-1,-3,-0.062886056
30.161569,-3,-46,20,2,1,-1,0,0,-0.062886056
30.161572,4,-11,-1,-1,-1,-2,-1,0,-0.062886056
30.182448,-6,-9,-4,-1,-1,-2,-2,0,-0.062886056
30.182465,1,43,-4,-3,-1,-1,-2,-1,-0.062886056
30.183950,-13,-41,-14,1,1,-1,0,0,-0.062886056
30.183967,8,3,-2,-2,-1,-1,-2,-2,-0.062886056
30.195422,-12,-19,-1,1,2,-1,0,-2,-0.062886056
30.195440,4,16,3,1,-1,-1,0,-1,-0.062886056
30.207264,6,31,-1,-3,-3,-2,0,0,-0.062886056
30.207274,-13,-28,-5,0,-2,-2,-1,-2,-0.062886056
30.219891,2,-14,-3,2,-1,-2,-1,-2,-0.062886056
30.219915,7,-28,3,1,0,1,-1,1,-0.062886056
30.222718,8,40,2,1,-2,-2,-2,1,-0.062886056
30.222726,-43,-95,-15,-3,-1,0,0,-2,-0.062886056
30.242185,3,18,12,0,1,-2,-2,-1,-0.062886056
30.242248,-3,-4,-2,2,0,-1,0,-1,-0.062886056
30.244042,10,10,11,-1,-2,-2,-1,-1,-0.062886056
30.244110,-7,7,1,-1,-2,-3,-2,-2,-0.062886056
30.255289,20,70,12,0,0,-1,-1,-1,-0.062886056
30.255326,-12,-47,8,2,0,-1,-1,-1,-0.062886056
30.264755,-4,23,-8,-5,-3,-1,0,-1,-0.062886056
30.264769,13,-44,-12,-3,-2,-2,-2,-1,-0.062886056
30.287067,-5,-12,7,-3,-3,-1,-1,1,-0.062917602
30.287110,-7,5,-7,3,1,0,-1,-1,-0.062917602
30.292890,-3,13,3,0,0,1,0,-2,-0.062917602
30.292913,6,39,-7,-5,-1,0,0,0,-0.062917602
30.301651,3,-24,5,0,-1,0,0,1,-0.062917602
30.301689,-41,-27,-4,-4,-2,-2,-3,-4,-0.062917602
30.303117,1,-20,-4,1,-1,-2,-2,-1,-0.062917602
30.303140,-8,9,5,0,-1,0,-1,-1,-0.062917602
30.315949,-6,-6,-15,-3,-2,-2,-3,-1,-0.062917602
30.315961,9,11,11,1,0,-2,0,-1,-0.062917602
30.325176,-20,-5,-6,0,0,-1,0,-2,-0.062917602
30.325183,23,46,6,1,0,-1,-2,-1,-0.062917602
30.339312,5,-1,1,-4,-3,-1,-1,-2,-0.062917602
30.339329,-3,-41,-14,0,0,0,-1,0,-0.062917602
30.340801,5,-4,-2,-4,0,-1,-2,0,-0.062917602
30.340872,-10,12,-4,1,0,0,1,-2,-0.062917602
30.369654,-10,22,9,-1,0,-1,-1,-2,-0.062917602
30.369690,18,9,-9,-4,-2,-2,0,0,-0.062917602
30.370863,-3,2,6,-2,-2,0,-3,-3,-0.062917602
30.370868,20,11,-3,1,1,1,-1,1,-0.062917602
30.375634,-33,-7,-10,-3,-1,-2,-2,-1,-0.062917602
30.375661,1,-70,0,0,1,0,1,-1,-0.062917602
30.386861,-1,-8,1,0,-1,0,0,-1,-0.062917602
30.386869,10,16,1,-3,-1,-1,0,0,-0.062917602
30.398872,14,-5,0,2,1,-1,-1,1,-0.062917602
30.398902,-13,18,-1,-3,-3,-2,-2,-2,-0.062917602
30.405738,-14,29,-5,-1,-2,-2,-2,-2,-0.062917602
30.405763,5,6,0,-4,-2,-2,0,0,-0.062917602
30.422108,7,-60,0,3,1,0,-2,-1,-0.062917602
30.422141,-5,20,4,-1,-1,0,0,1,-0.062917602
30.425022,2,2,-5,-2,-1,-2,-2,-2,-0.062917602
30.425044,2,3,5,-1,-1,-3,-1,0,-0.062917602
30.435810,0,22,-8,1,0,0,-1,0,-0.062917602
30.435842,16,56,9,-2,-1,1,0,-1,-0.062917602
30.445853,1,-50,-3,1,0,1,0,0,-0.062917602
30.445866,-14,9,1,-4,-2,-3,-2,-3,-0.062917602
30.459245,18,-19,-10,-4,-2,-2,-3,-2,-0.062917602
30.459267,-5,-11,-3,1,0,0,0,2,-0.062917602
30.461037,3,19,5,1,1,-2,1,-1,-0.062917602
30.461134,4,3,1,1,0,0,0,-2,-0.062917602
30.481919,-27,-35,-1,0,-1,-1,-1,-3,-0.062917602
30.481944,32,23,-7,-5,-4,-1,-2,-1,-0.062917602
30.483127,-31,-41,0,-1,-1,-1,0,0,-0.062917602
30.483138,2,10,-3,-1,-3,-1,-2,-4,-0.062917602
30.495406,10,-5,0,0,-1,-2,0,1,-0.062917602
30.495424,-9,22,3,0,-1,-1,-1,0,-0.062917602
30.504656,3,-33,-6,-2,-1,-1,0,1,-0.062917602
30.504733,-17,-8,7,0,0,1,-1,1,-0.062917602
30.519816,45,46,-13,-3,-2,-1,0,1,-0.062917602
30.519824,-40,-22,15,4,1,1,1,1,-0.062917602
30.520617,58,15,0,-5,-3,-3,-5,-1,-0.062917602
30.520624,-29,-11,-2,-2,0,0,-4,-6,-0.062917602
30.541945,-7,8,0,0,-1,-2,0,-2,-0.062917602
30.544197,10,1,-6,-1,-1,0,0,-2,-0.062917602
30.544223,3,21,-4,1,1,0,2,2,-0.062917602
30.544291,13,3,4,2,-1,1,1,0,-0.062917602
30.555766,2,31,-1,-4,-1,-3,-2,-4,-0.062917602
30.555791,6,-16,-4,0,-2,-3,-2,1,-0.062917602
30.567148,-18,31,10,0,1,-2,-2,-3,-0.062917602
30.567160,5,-36,-16,-2,-3,-2,-2,0,-0.062917602
30.579259,-12,-19,14,0,-3,-1,-1,-1,-0.062917602
30.579278,-27,-2,0,-1,-2,-2,-2,-4,-0.062917602
30.581314,-13,-5,-5,0,0,0,-1,-1,-0.062917602
30.581331,0,17,2,1,0,-1,1,0,-0.062917602
30.601698,-2,9,-9,-5,-2,-1,-2,0,-0.062917602
30.601715,30,11,2,-2,0,0,-2,-2,-0.062917602
30.603311,-19,-12,-4,0,-2,1,0,-3,-0.062917602
30.604638,-2,-13,-7,0,-1,-2,0,-1,-0.062917602
30.615429,-4,-7,7,1,-1,0,1,7,-0.062917602
30.615447,1,19,-1,-2,-1,-1,-1,-2,-0.062917602
30.626303,-10,27,-8,-1,0,-1,-1,-2,-0.062917602
30.626318,-1,-57,5,1,-1,-1,0,-1,-0.062917602
30.646735,2,0,-3,1,-1,-1,0,-2,-0.062917602
30.646750,9,9,-6,-2,-1,-2,-1,-1,-0.062917602
30.648158,5,20,4,2,-3,0,1,0,-0.062917602
30.648194,-14,4,-1,-2,-2,-1,0,-2,-0.062917602
30.669210,8,9,0,-1,-1,0,-3,-3,-0.062917602
30.669234,6,-7,-3,1,-2,-2,-1,0,-0.062917602
30.670672,-2,4,5,-2,1,-3,-2,-2,-0.062917602
30.670677,-2,-28,-2,0,-2,0,-2,0,-0.062917602
30.675708,10,10,14,-1,-1,-1,-1,-2,-0.062917602
30.675733,-35,4,-7,0,-1,-1,-1,0,-0.062917602
30.692187,-9,-31,-5,-3,-2,-1,-3,-4,-0.062917602
30.692199,6,13,-5,-1,-1,-1,-1,2,-0.062917602
30.697962,4,1,-3,0,0,0,1,0,-0.062917602
30.697982,7,-44,-6,1,-1,-1,-1,-2,-0.062917602
30.707981,19,70,-5,-3,-2,-3,-1,1,-0.062917602
30.707988,-2,-26,5,-2,-1,-2,-2,0,-0.062917602
30.724552,11,32,-3,-4,-4,-2,-2,-2,-0.062917602
30.724560,-14,-18,-9,0,-1,1,0,0,-0.062917602
30.724563,6,-15,7,2,-1,1,0,-1,-0.062917602
30.724566,2,19,13,-1,-1,1,-1,0,-0.062917602
30.735787,-19,-37,-6,0,-1,-1,0,-1,-0.062917602
30.735819,16,26,7,-3,-2,-1,-1,1,-0.062917602
30.746365,-21,-18,-9,-4,-3,-2,-2,0,-0.062917602
30.746377,12,5,-8,-2,-1,-1,-1,-1,-0.062917602
30.759611,-9,3,10,2,2,1,-1,-5,-0.062917602
30.759648,-16,-13,-12,-6,-2,-3,-1,5,-0.062917602
30.765452,5,-4,-3,-2,-1,-2,0,0,-0.062917602
30.765477,-15,4,0,-2,-1,-2,-1,1,-0.062917602
30.780759,2,16,-6,0,0,-1,-2,-2,-0.062917602
30.780778,4,-12,-4,-1,0,0,1,-5,-0.062917602
30.791219,7,-4,7,-1,2,0,-1,0,-0.063021258
30.791228,-6,-8,-9,2,-1,-1,1,1,-0.063021258
30.804167,1,-6,-5,-4,-3,-1,0,-2,-0.063021258
30.804204,-3,45,40,8,1,0,-2,-2,-0.063021258
30.805847,-2,-27,3,1,0,0,0,1,-0.063021258
30.805869,0,7,-4,0,1,1,1,-3,-0.063021258
30.826971,9,-7,-17,-3,1,-2,0,2,-0.063021258
30.827004,-14,-39,-10,-3,-1,-2,0,-1,-0.063021258
30.828931,-2,-18,-5,-3,-3,0,-1,-2,-0.063021258
30.828938,10,39,1,0,-1,-3,-3,-1,-0.063021258
30.842113,-3,3,2,-1,-2,-1,0,1,-0.063021258
30.844647,0,9,-5,-4,-1,-1,-1,-3,-0.063021258
30.844665,2,-19,-1,1,0,-1,-1,1,-0.063021258
30.844668,14,14,-8,-4,-1,1,-2,0,-0.063021258
30.864701,-35,-23,3,0,-2,-2,-1,-3,-0.063021258
30.864739,6,-1,4,2,1,0,0,-2,-0.063021258
30.870338,4,34,-13,-2,-3,-3,0,2,-0.063021258
30.870351,20,-18,0,-5,-2,-1,-2,-1,-0.063021258
30.878935,-32,30,1,4,0,0,-3,-7,-0.063021258
30.878947,-15,-83,-7,-2,0,0,-1,0,-0.063021258
30.885402,4,0,1,-3,-2,-3,0,-1,-0.063021258
30.885424,-16,-6,3,1,1,0,0,1,-0.063021258
30.901668,23,10,-1,0,0,-2,-1,0,-0.063021258
30.901686,7,38,-5,-1,0,-2,0,-2,-0.063021258
30.903300,-11,-14,5,-2,0,-1,-1,2,-0.063021258
30.903350,3,-56,-4,2,-1,-2,0,0,-0.063021258
30.925749,2,-21,3,-1,-1,1,1,2,-0.063021258
30.925763,-7,4,-10,0,-1,-1,-1,-2,-0.063021258
30.926332,-18,-46,2,-2,-1,-1,0,-2,-0.063021258
30.926351,-17,11,-10,-2,-1,0,0,-2,-0.063021258
30.938577,5,27,6,-4,-2,-1,-3,-1,-0.063021258
30.938594,17,48,17,1,-1,-2,-2,1,-0.063021258
30.945501,1,-22,-10,-4,0,0,-2,-2,-0.063021258
30.945520,-11,11,3,1,-1,-1,1,-2,-0.063021258
30.961724,7,-25,-10,-1,-1,-1,2,1,-0.063021258
30.961748,1,-28,-5,-2,-2,-2,-1,-2,-0.063021258
30.963132,-1,9,3,0,-1,0,-3,-3,-0.063021258
30.963150,-10,-24,-1,-3,0,-3,-2,-6,-0.063021258
30.984178,11,34,-1,-2,-1,-2,-1,1,-0.063021258
30.984195,-4,7,-2,-3,-2,-1,-1,0,-0.063021258
30.985768,3,-21,0,-1,1,0,2,-1,-0.063021258
30.985786,8,43,-2,-3,-3,-2,-2,0,-0.063021258
30.997893,-11,-15,-1,1,-2,0,-1,-1,-0.063021258
30.997910,6,29,-2,0,-1,1,-1,0,-0.063021258
31.009399,-1,-71,-2,-2,1,-2,-1,-3,-0.063021258
31.009477,-10,37,-3,-2,-1,0,-1,-6,-0.063021258
31.022933,-15,12,-9,-3,-1,-2,-1,1,-0.063021258
31.022960,-6,-23,0,1,-2,-1,0,-2,-0.063021258
31.024872,8,38,3,-4,0,-1,-1,0,-0.063021258
31.024887,24,10,5,5,-2,-1,-2,3,-0.063021258
31.044445,-19,-34,5,0,1,-1,-1,-4,-0.062985203
31.044466,12,40,-10,-3,-2,-2,-3,-5,-0.062985203
31.045943,-2,-48,-4,-1,-4,-1,-2,1,-0.062985203
31.045982,-3,-8,1,0,0,2,1,0,-0.062985203
31.057843,12,-9,-4,-1,-1,-1,-3,0,-0.062985203
31.057867,2,-7,4,0,1,1,1,1,-0.062985203
31.068795,9,30,-5,1,0,0,0,-2,-0.062985203
31.068802,-6,-20,-1,-4,-1,-1,-1,-1,-0.062985203
31.089918,0,13,-2,2,-2,1,0,2,-0.062985203
31.089946,10,-25,4,-1,-1,-1,-2,-2,-0.062985203
31.092513,-32,73,3,4,0,1,0,0,-0.062985203
31.092528,15,-11,2,-1,0,0,-2,1,-0.062985203
31.104189,0,-15,-4,-3,-2,-2,-1,3,-0.062985203
31.104207,-4,-41,6,0,-2,-2,-2,-3,-0.062985203
31.107511,8,36,-9,-1,-3,-1,-2,-1,-0.062985203
31.107518,29,33,1,-2,-2,-2,-1,2,-0.062985203
31.117906,-21,3,-2,-3,-2,-1,0,-2,-0.062985203
31.117938,15,-7,-4,-1,0,-1,1,1,-0.062985203
31.136254,-15,-43,-13,-3,-2,1,0,-1,-0.062985203
31.136261,0,18,0,-2,-1,-1,-1,-2,-0.062985203
31.149742,11,-39,13,0,-1,-1,-2,-2,-0.062985203
31.149770,3,25,2,0,1,-2,-1,1,-0.062985203
31.152046,7,12,8,2,1,0,-1,-1,-0.062985203
31.152056,-48,-14,-15,-4,-1,0,0,0,-0.062985203
31.164759,24,8,3,-3,-2,-1,-1,-3,-0.062985203
31.164791,-25,2,-2,0,-3,0,-1,-2,-0.062985203
31.167432,-10,47,2,0,-1,-1,-2,-3,-0.062985203
31.167442,-2,-114,-5,-1,-2,-1,-2,-2,-0.062985203
31.177998,-6,42,4,2,0,0,0,0,-0.062985203
31.178024,-9,-24,-7,-4,-2,-2,-2,-1,-0.062985203
31.188927,9,3,3,-2,-2,-2,-1,2,-0.062985203
31.188935,-2,30,2,-2,-1,-1,-2,-4,-0.062985203
31.201735,14,5,1,1,-1,-1,-1,-3,-0.062985203
31.201767,0,6,-12,-5,-1,-1,-2,-1,-0.062985203
31.204186,-21,15,14,3,0,2,-1,-2,-0.062985203
31.204204,-2,-48,2,-1,0,-2,-1,-1,-0.062985203
31.224863,4,-15,-11,0,0,-1,-2,0,-0.062985203
31.224891,0,22,2,0,0,0,-1,0,-0.062985203
31.227630,3,-30,-5,0,-2,-3,-1,-2,-0.062985203
31.227643,7,19,2,-2,0,0,0,1,-0.062985203
31.238574,4,27,-5,-5,-3,-2,-1,-1,-0.062985203
31.238614,-5,0,15,6,3,0,0,0,-0.062985203
31.246940,1,16,-3,-4,-2,-2,-2,-3,-0.062985203
31.246949,-9,10,-3,-1,-1,0,-1,-2,-0.062985203
31.261913,-1,-5,-10,-2,-1,-1,-1,-3,-0.062985203
31.261945,4,-4,-6,-3,-2,2,0,2,-0.062985203
31.264101,1,-24,6,3,-1,-1,0,0,-0.062985203
31.264109,-7,1,6,0,0,0,-1,-1,-0.062985203
31.284226,17,16,1,0,-2,-2,-1,1,-0.062985203
31.284260,-2,43,-2,-3,-1,-2,-1,-2,-0.062985203
31.285824,14,-13,-3,0,0,-1,-2,-1,-0.062985203
31.285905,-12,12,2,0,-1,-1,-2,-1,-0.062985203
31.299759,-5,-30,2,1,1,0,0,-1,-0.062998723
31.299768,-4,-5,-7,-3,-2,-1,-1,2,-0.062998723
31.307174,12,8,-1,-2,-1,-1,0,-1,-0.062998723
31.307185,-4,10,4,2,1,-1,-2,0,-0.062998723
31.322107,-17,-34,2,-4,-1,-3,-2,-1,-0.062998723
31.322132,20,29,4,6,2,0,0,1,-0.062998723
31.324019,-23,-60,-7,-5,-4,-2,-2,-3,-0.062998723
31.324026,5,30,-13,-1,-3,0,-1,0,-0.062998723
31.346401,-3,1,10,0,-1,0,-3,-1,-0.062998723
31.346414,-7,-58,-9,-1,-2,0,0,0,-0.062998723
31.346418,3,-11,-4,-2,0,0,0,1,-0.062998723
31.346422,-1,16,3,-1,-2,-1,0,-3,-0.062998723
31.358595,-2,-6,-8,1,0,1,0,-2,-0.062998723
31.358627,-5,30,5,-1,-2,1,-2,-2,-0.062998723
31.368481,0,8,3,2,-1,1,-1,-2,-0.062998723
31.368489,-5,-12,-6,-5,-4,-5,0,0,-0.062998723
31.382044,-5,16,-3,1,1,0,0,-1,-0.062998723
31.382066,-16,43,-5,1,-1,-2,-2,-1,-0.062998723
31.383377,9,-82,17,4,1,1,0,0,-0.062998723
31.383464,-15,-7,6,2,0,0,-1,0,-0.062998723
31.404674,7,-9,-16,-2,-1,-1,-1,-1,-0.062998723
31.404707,-7,-36,-7,-4,-2,-3,-2,-3,-0.062998723
31.406155,0,74,-7,-4,-2,-3,-1,1,-0.062998723
31.406161,21,18,3,-1,-3,-2,-1,1,-0.062998723
31.417784,-18,-1,3,2,0,-1,0,-2,-0.062998723
31.417800,1,-46,-3,0,0,-1,-1,-2,-0.062998723
31.428335,16,85,7,1,0,-1,-1,-1,-0.062998723
31.428345,-21,-90,6,0,0,-1,-2,-3,-0.062998723
31.441617,5,9,0,-5,-2,0,0,0,-0.062998723
31.441632,8,11,10,3,0,-1,-1,0,-0.062998723
31.443430,-10,-34,-22,-5,0,-1,0,1,-0.062998723
31.443449,3,61,-5,0,0,0,-1,-1,-0.062998723
31.464310,-1,-38,1,-1,-1,-1,-1,1,-0.062998723
31.464342,10,65,-13,-8,-2,-3,-1,-3,-0.062998723
31.466519,-6,-42,21,3,0,-1,-2,0,-0.062998723
31.466526,-19,-30,-3,-1,-1,1,1,-4,-0.062998723
31.478070,7,-1,3,1,0,0,0,6,-0.062998723
31.478100,19,11,-6,-2,-3,-1,-1,0,-0.062998723
31.487664,-3,33,0,0,-2,0,1,0,-0.062998723
31.487671,25,-8,2,-2,-2,0,-1,2,-0.062998723
31.503945,-33,-36,-2,-3,-1,-2,-3,-7,-0.062998723
31.503954,-15,-35,-6,-6,-1,-2,-2,-1,-0.062998723
31.503958,-1,8,-3,2,-1,-2,-2,-4,-0.062998723
31.504005,18,18,-4,1,1,0,-1,0,-0.062998723
31.524506,9,72,2,2,0,0,0,3,-0.062998723
31.524542,-2,-28,-4,0,0,-1,-2,0,-0.062998723
31.530425,-4,-16,-5,-2,-1,-1,0,1,-0.062998723
31.530450,3,34,3,-2,-2,-2,0,-2,-0.062998723
31.538087,10,-10,-1,-3,-3,-1,1,-3,-0.062998723
31.538100,-16,58,-2,-2,-1,0,-1,-2,-0.062998723
31.548633,13,-59,-15,-1,0,0,0,0,-0.062998723
31.548668,7,15,19,2,0,-1,-1,0,-0.062998723
31.561313,-10,-25,10,3,-1,-3,-1,-2,-0.062958162
31.561337,-30,-39,-6,-6,0,-1,0,-3,-0.062958162
31.575720,9,26,-6,-2,-1,-2,-2,1,-0.062958162
31.577427,-1,-11,-11,-4,-2,0,0,0,-0.062958162
31.584199,-4,2,3,5,-2,0,0,-2,-0.062958162
31.584216,3,24,10,1,-1,1,0,-2,-0.062958162
31.585656,3,-14,-3,-5,-3,-3,-2,-2,-0.062958162
31.585671,0,-22,-10,0,1,-1,-1,3,-0.062958162
31.597870,-5,20,-17,-5,-1,-1,-2,-5,-0.062958162
31.597904,-2,-20,19,6,0,0,0,1,-0.062958162
31.609419,-1,-8,2,-2,0,-1,0,0,-0.062958162
31.609443,-3,-2,-2,0,-3,-3,-1,-1,-0.062958162
31.622429,5,11,-7,-2,-3,-3,-1,-2,-0.062958162
31.622474,-7,-39,5,0,1,-2,-3,-2,-0.062958162
31.624811,-9,6,2,0,0,1,0,-1,-0.062958162
31.624825,-12,21,0,-3,-4,-2,-2,-1,-0.062958162
31.645224,20,2,-10,-3,-1,-2,0,3,-0.062958162
31.645247,-1,-32,-4,-2,-2,-2,0,-2,-0.062958162
31.645944,4,36,7,-1,-1,-1,1,-1,-0.062958162
31.645987,2,-3,-3,3,2,1,-1,-2,-0.062958162
31.661567,-11,25,5,-3,1,0,-1,1,-0.062958162
31.661586,2,-44,-7,0,0,0,-1,0,-0.062958162
31.666788,34,-30,0,-2,-3,-2,-2,-1,-0.062958162
31.666803,-67,-1,-11,-4,-2,-1,-1,-3,-0.062958162
31.681268,-1,-3,-4,-4,-2,-1,-4,-2,-0.062958162
31.681299,5,34,11,5,2,0,0,-1,-0.062958162
31.688336,7,22,-20,-7,-2,-2,-2,2,-0.062958162
31.688357,4,-21,34,11,3,1,-3,-2,-0.062958162
31.705660,-1,-37,-2,-2,-3,-2,-2,-1,-0.062958162
31.705668,-3,-16,2,-2,-2,-3,-1,0,-0.062958162
31.705899,2,61,2,0,-2,0,-1,-1,-0.062958162
31.705933,-4,-6,-10,-7,-4,-2,-1,-3,-0.062958162
31.718058,-4,-2,0,-1,-1,-1,-2,-1,-0.062958162
31.718090,14,13,-9,-1,-1,-2,-3,0,-0.062958162
31.727062,-9,25,2,1,-2,0,-2,0,-0.062958162
31.727086,-1,28,4,-4,-2,-1,-1,-2,-0.062958162
31.741153,7,-27,1,2,-1,0,-1,-2,-0.062958162
31.741176,9,15,-6,-2,-3,0,2,0,-0.062958162
31.747921,-6,-12,12,0,1,0,0,-3,-0.062958162
31.747940,-1,-12,-7,-3,-1,-2,-1,2,-0.062958162
31.764244,2,20,0,-5,-1,0,-2,-1,-0.062958162
31.764266,2,27,9,6,1,0,-2,-1,-0.062958162
31.765888,-7,-3,8,3,0,1,-2,0,-0.062958162
31.765903,35,-3,-8,-4,-2,0,-1,2,-0.062958162
31.787079,-2,-24,-18,1,2,0,1,-1,-0.062958162
31.787093,12,24,17,-5,-3,-2,0,0,-0.062958162
31.788241,-29,12,-12,-2,0,0,-1,-3,-0.062958162
31.788262,8,-49,-8,-3,-2,-1,-2,0,-0.062958162
31.800997,13,22,15,2,1,0,0,-3,-0.062958162
31.801015,-30,-21,-12,-3,-2,-1,-2,-2,-0.062958162
31.808042,16,3,5,1,-2,-2,0,-1,-0.062958162
31.808062,-16,21,-5,-3,0,-2,0,0,-0.062958162
31.824728,-8,-24,-6,-3,-3,-1,-1,-2,-0.062895071
31.824758,18,24,2,-1,-2,-1,-1,0,-0.062895071
31.827399,-11,-67,-12,-8,-3,-3,-1,-1,-0.062895071
31.827411,-14,-4,-3,5,0,-1,0,-1,-0.062895071
31.846741,4,-10,5,0,-2,-2,-1,1,-0.062895071
31.846754,4,12,-5,-2,-1,-1,-1,0,-0.062895071
31.848249,-3,15,5,3,1,-1,-1,-2,-0.062895071
31.848258,9,-2,-11,-3,-1,-1,-1,-1,-0.062895071
31.869566,-5,15,-4,-3,-2,-2,-1,0,-0.062895071
31.869588,-17,-9,23,0,-1,0,0,-1,-0.062895071
31.871210,11,14,-21,-3,-2,0,-1,-2,-0.062895071
31.871217,-10,-69,-7,-2,-2,-2,-3,-4,-0.062895071
31.884220,14,17,16,3,0,2,-1,0,-0.062895071
31.884237,-25,-5,-11,-1,-1,-1,-2,0,-0.062895071
31.885641,8,32,2,-1,0,-2,-2,-1,-0.062895071
31.885665,10,27,7,1,2,-1,-1,-1,-0.062895071
31.908284,-7,0,-5,-1,-2,-2,-1,-2,-0.062895071
31.908296,16,35,-17,-6,-3,-2,-3,0,-0.062895071
31.908299,-17,-15,30,5,2,0,-1,-2,-0.062895071
31.908302,0,-10,0,-1,-2,0,-1,-1,-0.062895071
31.920800,-8,-24,-4,-5,-3,-3,-2,0,-0.062895071
31.920828,-15,10,3,-2,0,-2,-1,-3,-0.062895071
31.929336,-3,-27,-19,-10,-4,-3,-1,-1,-0.062895071
31.929360,8,25,10,6,0,0,0,0,-0.062895071
31.953378,9,22,9,4,2,-1,0,-1,-0.062895071
31.953386,-13,-24,3,2,-1,1,-1,-2,-0.062895071
31.953777,-8,-11,-9,-2,-3,-1,-2,-1,-0.062895071
31.953799,-1,10,4,-7,-3,-1,-1,-2,-0.062895071
31.966727,2,43,-4,-2,-1,-1,0,-2,-0.062895071
31.966744,15,-97,-18,-3,-1,-2,-1,1,-0.062895071
31.968143,7,2,10,5,4,1,0,0,-0.062895071
31.968151,-7,21,-20,-7,-3,-1,-1,-2,-0.062895071
31.980527,-2,15,16,1,0,-2,-1,-1,-0.062895071
31.980560,-11,37,-6,-3,-2,-2,0,-5,-0.062895071
31.991496,-3,-56,-12,5,3,1,1,2,-0.062895071
31.991505,12,55,9,4,1,-1,-1,1,-0.062895071
32.011820,-14,-51,-17,-9,-4,-1,-2,-3,-0.062895071
32.011840,23,3,7,-2,-1,0,-1,0,-0.062895071
32.014586,-18,-20,-12,0,-3,-3,-2,-2,-0.062895071
32.014595,12,35,5,-1,0,-1,-1,0,-0.062895071
32.025942,-17,-41,-1,1,-1,-2,-1,0,-0.062895071
32.025970,-8,-40,-2,1,0,0,1,1,-0.062895071
32.035412,32,64,-5,-4,-2,1,-1,-2,-0.062895071
32.035418,5,-62,-6,-4,-3,0,-1,-2,-0.062895071
32.040263,-28,-14,-4,0,-1,0,-2,-1,-0.062895071
32.040280,-1,-4,13,1,-2,-1,0,-4,-0.062895071
32.050723,-3,50,-3,0,1,-1,2,-2,-0.062895071
32.050758,-25,-27,-3,-2,-1,0,0,0,-0.062895071
32.064249,13,9,-12,-3,-3,-2,0,-2,-0.062895071
32.064261,6,-5,-1,2,1,2,-1,-1,-0.062895071
32.065821,2,40,7,3,-1,-1,-2,0,-0.062985203
32.065851,5,-7,9,-2,-2,-2,2,-1,-0.062985203
32.086879,-29,-1,-9,-5,-2,0,-1,-3,-0.062985203
32.086901,-5,-10,-9,-3,-2,-2,-3,0,-0.062985203
32.090941,-15,-48,0,0,-1,-2,-2,0,-0.062985203
32.090948,14,-6,-9,-1,0,-1,-2,1,-0.062985203
32.100758,13,4,5,0,0,-1,1,1,-0.062985203
32.100782,-6,27,4,0,-1,0,0,0,-0.062985203
32.110898,8,22,2,-2,0,-1,0,0,-0.062985203
32.110914,-4,-24,-5,-1,0,-3,-2,0,-0.062985203
32.131808,-5,70,3,0,-2,-1,-1,-1,-0.062985203
32.131826,10,-33,-4,1,-2,-1,-1,0,-0.062985203
32.133235,-25,-47,5,-2,-2,-1,0,0,-0.062985203
32.133260,2,20,-1,1,1,-1,0,0,-0.062985203
32.147247,2,-21,3,2,1,0,0,-1,-0.062985203
32.147274,16,37,-12,-9,-5,-2,-2,-1,-0.062985203
32.148843,3,-10,1,-2,-3,-1,-1,-1,-0.062985203
32.148858,-47,-7,12,5,1,1,-3,-4,-0.062985203
32.160639,4,-7,-4,-3,0,-1,-1,-1,-0.062985203
32.160661,0,-1,3,2,2,-1,0,-1,-0.062985203
32.175984,5,-12,3,0,0,0,0,-2,-0.062985203
32.176016,0,86,-4,-3,-3,-3,-2,1,-0.062985203
32.184317,7,-84,-9,-1,-1,-1,0,-2,-0.062985203
32.184348,0,16,10,-3,-3,-2,-3,-2,-0.062985203
32.187331,-10,-13,-10,-1,-2,0,-2,-2,-0.062985203
32.187342,10,22,16,2,-1,-2,-2,-2,-0.062985203
32.207484,-7,0,9,4,1,0,0,-1,-0.062985203
32.207510,14,33,-8,-3,0,-2,-1,-1,-0.062985203
32.210074,-15,-31,-6,-2,-4,-2,-1,-1,-0.062985203
32.210088,11,2,-12,-2,0,0,-1,-1,-0.062985203
32.220320,6,28,-3,-3,-2,-2,-2,0,-0.062985203
32.220358,1,-37,10,2,-1,0,1,1,-0.062985203
32.229820,-16,-12,-1,-2,-1,0,-1,-3,-0.062985203
32.229827,15,23,-4,-4,-2,-1,0,1,-0.062985203
32.244342,-19,-57,-2,-4,-3,-3,-2,-3,-0.062985203
32.244372,8,46,-3,0,2,-1,-1,-1,-0.062985203
32.245861,-2,19,-7,-2,1,0,0,0,-0.062985203
32.245869,17,-5,9,1,-1,-1,-1,0,-0.062985203
32.266948,-11,26,14,0,0,-2,-3,-1,-0.062985203
32.266956,-9,-11,-8,4,2,0,0,-3,-0.062985203
32.268181,8,33,-5,-5,-2,0,-1,1,-0.062985203
32.268214,2,-61,-6,-1,-2,-2,-2,0,-0.062985203
32.282254,8,9,-9,0,-2,-2,0,1,-0.062985203
32.282263,-6,1,15,-5,-6,-2,-4,-1,-0.062985203
32.291340,5,-2,7,8,2,1,-1,-1,-0.062985203
32.291347,-8,-21,-7,-1,1,-2,-1,-1,-0.062985203
32.313212,17,12,3,-4,-1,0,-1,-1,-0.062985203
32.313227,25,7,-3,3,0,0,-1,-2,-0.062985203
32.313289,-12,34,1,-9,-4,-2,-2,0,-0.062985203
32.313322,-14,-49,-5,-2,-2,-2,-2,-3,-0.062985203
32.327362,-8,-29,-7,2,0,0,-1,0,-0.062962672
32.327403,-12,-5,-9,-3,-1,-2,-1,-2,-0.062962672
32.329247,12,4,6,1,1,0,1,0,-0.062962672
32.329260,17,47,-3,-6,-4,-2,0,0,-0.062962672
32.340991,7,16,5,-1,-1,-2,-1,1,-0.062962672
32.341032,-38,-20,-2,4,3,-2,0,-2,-0.062962672
32.349517,5,-1,-4,0,-3,-2,-1,-1,-0.062962672
32.349541,-15,9,3,0,0,0,-1,-2,-0.062962672
32.364280,10,-8,-1,-2,-2,1,-1,-1,-0.062962672
32.364298,11,26,-3,-2,-1,0,0,0,-0.062962672
32.365827,-17,-49,-12,-2,-1,-2,-2,-1,-0.062962672
32.365846,-2,41,9,0,-2,1,-1,-1,-0.062962672
32.387178,-1,14,2,1,0,-1,-4,-1,-0.062962672
32.387208,3,-22,-3,0,0,-2,-1,1,-0.062962672
32.389378,-6,12,2,-3,-1,0,-3,-1,-0.062962672
32.389384,8,-13,-7,0,-1,-1,0,0,-0.062962672
32.400961,43,36,4,0,-1,-1,1,3,-0.062962672
32.400993,-57,10,-16,-5,-2,-2,-1,-4,-0.062962672
32.411055,2,-71,3,1,-1,-2,-1,-3,-0.062962672
32.411077,-6,1,0,1,1,0,0,0,-0.062962672
32.424198,-8,-38,-5,1,-2,-1,-1,-1,-0.062962672
32.424233,23,28,-2,-4,-3,-1,-1,2,-0.062962672
32.426227,-14,17,2,-3,-1,0,-1,-2,-0.062962672
32.426256,3,-39,-4,1,0,-1,-2,-2,-0.062962672
32.447520,-5,22,-1,2,0,0,0,0,-0.062962672
32.447552,-9,-33,-2,0,0,1,0,0,-0.062962672
32.450158,5,-13,-9,0,0,-3,0,-1,-0.062962672
32.450165,12,16,3,0,-2,-1,-1,0,-0.062962672
32.460648,-18,2,-3,-2,-2,-2,0,-3,-0.062962672
32.460683,-14,-28,-3,-1,0,-2,0,-3,-0.062962672
32.470080,26,-1,5,0,-1,-1,0,1,-0.062962672
32.470099,-14,43,-14,-10,-2,-2,-3,-2,-0.062962672
32.484869,4,13,5,4,0,0,0,-1,-0.062962672
32.484882,13,2,6,0,0,0,0,3,-0.062962672
32.485900,-1,-10,-5,-2,-1,-2,-1,-1,-0.062962672
32.485918,-10,8,6,0,0,0,1,-1,-0.062962672
32.506701,-11,-4,-9,-2,-2,-1,-4,-1,-0.062962672
32.506714,9,-16,1,-2,-3,-3,0,-2,-0.062962672
32.508188,21,36,8,-2,-1,-1,-1,1,-0.062962672
32.508249,-33,-53,-5,-2,0,-1,0,-2,-0.062962672
32.521071,5,7,1,-1,0,0,-1,0,-0.062962672
32.521095,-7,-29,-4,-1,-2,-1,-1,-1,-0.062962672
32.531205,14,40,2,1,-1,-2,0,1,-0.062962672
32.531217,-2,10,4,-1,0,-1,-1,-1,-0.062962672
32.544350,-5,2,0,-1,-1,0,-1,-1,-0.062962672
32.544381,1,-20,-6,1,-1,-1,-1,-1,-0.062962672
32.546351,-14,6,1,1,-1,-2,-2,-3,-0.062962672
32.546397,-13,-45,-1,0,0,0,-1,-3,-0.062962672
32.567649,7,16,-3,-5,-1,0,0,0,-0.062962672
32.567684,14,72,4,-3,-2,0,-1,0,-0.062962672
32.569141,-14,-46,-8,-2,1,-1,0,-1,-0.062962672
32.569146,-5,-9,-8,-2,0,0,0,-1,-0.062962672
32.589332,23,27,19,-2,-2,-3,-1,1,-0.062836485
32.589362,-17,10,-4,2,0,0,-2,-2,-0.062836485
32.591726,9,11,12,1,-2,-2,-1,-2,-0.062836485
32.591737,-4,-29,-9,0,0,-1,0,1,-0.062836485
32.603631,2,7,-9,-2,-2,-1,-3,-2,-0.062836485
32.603662,14,4,-1,1,-1,-2,-1,2,-0.062836485
32.610580,-7,31,-1,-2,-1,2,0,-1,-0.062836485
32.610598,12,-63,-1,-3,-5,-2,-1,0,-0.062836485
32.626850,-27,-28,-5,-1,-1,0,-2,-2,-0.062836485
32.626868,13,17,-8,-2,0,-1,-3,-3,-0.062836485
32.628354,2,13,-2,0,2,-2,-1,0,-0.062836485
32.628438,11,29,7,3,0,1,-2,1,-0.062836485
32.641754,-4,2,-2,-2,-2,-1,1,-3,-0.062836485
32.641765,-15,14,4,-1,-1,-3,-3,-2,-0.062836485
32.653496,-10,-45,-1,-2,0,-1,1,3,-0.062836485
32.653511,17,30,2,-3,-3,-1,-2,-1,-0.062836485
32.663611,-6,-27,-4,2,1,-1,0,1,-0.062836485
32.663634,8,-24,-2,-3,-2,-1,-1,-4,-0.062836485
32.670712,-3,-11,-1,1,-2,1,-1,-2,-0.062836485
32.670730,-1,23,-1,-1,-1,-1,0,1,-0.062836485
32.685881,-8,-20,4,-2,0,-1,-3,-4,-0.062836485
32.685898,23,18,10,1,-2,2,1,0,-0.062836485
32.694983,-35,-15,-14,-5,-3,-1,-2,-1,-0.062836485
32.694997,-2,8,13,4,-2,0,-2,-3,-0.062836485
32.725535,23,-8,-7,-3,-3,-1,-1,0,-0.062836485
32.725561,1,23,15,-1,-1,-1,0,0,-0.062836485
32.727028,9,-56,-6,-1,-1,0,-3,-3,-0.062836485
32.727043,-10,-4,-9,-2,-2,-2,1,-2,-0.062836485
32.727768,-10,12,-5,-2,-1,-2,-1,1,-0.062836485
32.727783,5,-47,-3,-2,-1,-1,-1,2,-0.062836485
32.732008,6,29,2,-1,-3,-1,-1,1,-0.062836485
32.733113,-4,15,7,1,0,-2,-3,-2,-0.062836485
32.748592,19,2,-5,0,0,-1,0,2,-0.062836485
32.748610,-55,-42,-5,-1,0,0,0,-2,-0.062836485
32.748618,4,37,3,-1,-2,-1,-2,-2,-0.062836485
32.748624,-4,-31,0,-3,0,0,-3,0,-0.062836485
32.793305,3,26,5,0,1,-1,0,-1,-0.062836485
32.793331,29,9,-4,1,-2,-1,0,2,-0.062836485
32.795800,7,-10,-4,-1,-1,-1,1,-2,-0.062836485
32.795813,-53,-50,-10,-2,1,-2,-2,-6,-0.062836485
32.795816,-8,-12,0,0,1,-1,-1,-1,-0.062836485
32.795819,12,65,-7,-4,-2,-1,-2,3,-0.062836485
32.808390,14,-46,-3,-1,-1,-1,-1,-1,-0.062836485
32.808422,28,25,4,1,-2,-2,-1,2,-0.062836485
32.811152,-30,-20,6,0,-1,0,1,-4,-0.062836485
32.811165,-39,-32,-14,-2,-2,-2,-2,-4,-0.062836485
32.811168,6,47,4,-2,-1,-3,-1,-1,-0.062836485
32.811171,9,4,5,0,0,0,0,-3,-0.062836485
32.845095,2,14,0,0,0,-2,-3,-1,-0.062953657
32.845116,15,26,-3,0,0,0,-2,0,-0.062953657
32.846559,5,-9,-2,-6,-2,-2,-3,0,-0.062953657
32.846578,-7,-49,-16,-4,-2,-2,0,-3,-0.062953657
32.847319,4,10,-2,1,1,-1,-1,0,-0.062953657
32.847334,13,20,2,0,0,-1,-2,1,-0.062953657
32.869401,-2,-17,-4,2,0,-2,0,-1,-0.062953657
32.869415,-9,39,9,-1,0,0,0,-1,-0.062953657
32.869835,4,-13,-6,1,-1,0,1,1,-0.062953657
32.869850,4,-25,3,-2,-1,-1,-1,-2,-0.062953657
32.872741,-8,37,-4,1,-1,-1,0,0,-0.062953657
32.872754,8,6,-6,-3,-2,-2,-2,1,-0.062953657
32.891354,-2,-9,6,-1,-1,-1,-2,0,-0.062953657
32.891363,-10,9,8,2,2,2,2,-1,-0.062953657
32.891366,10,-38,-7,-3,-1,-1,-2,-4,-0.062953657
32.891369,12,14,5,1,0,-2,-1,0,-0.062953657
32.904214,1,-51,-8,-3,-2,-2,-1,0,-0.062953657
32.904246,-2,-34,-8,-3,-1,-2,-1,-4,-0.062953657
32.910568,-10,46,5,0,1,-2,0,4,-0.062953657
32.910621,10,15,-8,-1,-1,0,0,5,-0.062953657
32.926949,6,32,4,-1,-2,-1,-1,0,-0.062953657
32.926972,-18,-23,-3,-3,-2,-2,0,-3,-0.062953657
32.928474,20,-34,-2,-1,0,-1,-1,-2,-0.062953657
32.928486,7,12,-3,-2,-1,0,-1,-1,-0.062953657
32.949404,-30,4,-2,-1,-2,0,-1,-3,-0.062953657
32.949429,21,21,-3,1,-1,0,0,0,-0.062953657
32.950958,-20,-1,22,0,-3,-1,-1,-1,-0.062953657
32.950968,3,-34,-18,-3,-1,-1,0,1,-0.062953657
32.962986,-6,-5,1,0,0,0,-1,-1,-0.062953657
32.963011,13,5,8,-1,-1,-1,-3,-4,-0.062953657
32.974620,11,80,0,-1,-1,-1,-1,0,-0.062953657
32.974627,6,-19,7,1,-2,-1,-1,0,-0.062953657
32.986688,-28,-15,-18,-4,-2,-1,-1,-2,-0.062953657
32.986723,3,-41,19,6,-1,0,0,0,-0.062953657
32.988321,-15,41,-4,-3,0,-1,-3,-1,-0.062953657
32.988355,4,-26,2,1,-1,-2,0,-4,-0.062953657
33.016841,8,26,1,1,-2,-1,-1,-1,-0.062953657
33.016866,1,6,-5,0,0,-1,0,2,-0.062953657
33.018152,12,-63,-8,-2,0,-1,-1,-2,-0.062953657
33.018179,-39,2,-3,-4,-2,0,0,-2,-0.062953657
33.023772,17,8,11,-2,-4,-3,0,-3,-0.062953657
33.023788,-19,10,1,0,1,-1,-2,-2,-0.062953657
33.030411,7,0,10,0,1,1,1,-1,-0.062953657
33.030436,-1,-23,-8,-3,-1,-1,0,1,-0.062953657
33.047434,-8,5,-8,-1,1,-1,-1,-1,-0.062953657
33.047446,-11,20,12,-2,-2,-4,-2,-2,-0.062953657
33.048342,-3,-31,-7,-1,-3,-1,1,1,-0.062953657
33.048400,-29,24,8,0,0,-1,-4,-3,-0.062953657
33.069611,7,-14,-4,1,2,-1,-1,0,-0.062953657
33.069636,6,29,-10,-3,-1,0,-1,-2,-0.062953657
33.071718,-1,9,-10,-1,0,0,-2,-5,-0.062953657
33.071725,21,28,10,-1,-1,-1,0,1,-0.062953657
33.083622,-14,-67,-1,-3,-1,1,0,1,-0.062953657
33.083641,-1,-5,-14,-2,-1,-1,-2,-1,-0.062953657
33.090507,0,7,-2,0,0,-3,-2,-1,-0.062944642
33.090530,18,2,-10,2,1,-1,-1,-3,-0.062944642
33.106880,-18,7,4,-1,-1,-2,-2,-2,-0.062944642
33.106903,-9,-33,-23,-3,-2,-1,0,-2,-0.062944642
33.109257,-4,22,13,-3,-2,0,0,-2,-0.062944642
33.109280,23,72,25,4,-3,-2,-1,0,-0.062944642
33.129260,6,-29,-4,-3,-3,-1,-3,-1,-0.062944642
33.129277,-33,-24,-8,-2,-2,-1,-1,0,-0.062944642
33.131062,-9,-51,-10,0,1,1,-1,-4,-0.062944642
33.131084,9,25,-5,-2,-2,-1,-1,-1,-0.062944642
33.143521,2,21,-2,0,-1,-1,0,-2,-0.062944642
33.143548,19,-20,3,-2,-1,-2,-1,0,-0.062944642
33.151973,8,31,-3,0,-2,-1,-2,0,-0.062944642
33.151979,-32,-26,-5,-2,0,1,0,-1,-0.062944642
33.166882,5,2,2,0,-1,-1,-3,-1,-0.062944642
33.166913,11,18,1,-1,0,-1,0,-3,-0.062944642
33.169568,-16,-2,3,-1,-2,-1,-1,-1,-0.062944642
33.169582,8,-19,-6,-1,0,-1,0,-1,-0.062944642
33.189661,23,84,2,-3,-3,-2,-1,4,-0.062944642
33.189669,-5,-87,1,-1,-1,-2,-2,-4,-0.062944642
33.190754,13,-7,14,1,1,-2,0,1,-0.062944642
33.190786,-31,-34,-2,1,-1,-3,-1,-1,-0.062944642
33.203791,6,13,-5,1,2,0,1,-4,-0.062944642
33.203802,-6,20,-1,-3,-1,0,-1,0,-0.062944642
33.213823,-2,39,1,2,-1,-1,-2,-3,-0.062944642
33.213836,14,-45,-6,-4,0,-2,-2,1,-0.062944642
33.226792,-23,-48,-8,-1,-2,-1,-3,-2,-0.062944642
33.226824,-1,15,1,1,0,-1,1,1,-0.062944642
33.228933,-8,-28,-12,-4,-3,-2,-2,-2,-0.062944642
33.228947,-12,46,14,-1,-2,-2,0,-1,-0.062944642
33.256548,14,-2,14,4,-2,-1,0,1,-0.062944642
33.256602,-19,-58,-6,-1,-1,-1,-3,-5,-0.062944642
33.265555,7,59,6,-2,-2,-2,0,0,-0.062944642
33.265573,0,16,-9,-4,0,-1,-2,1,-0.062944642
33.265579,11,7,-1,1,1,-1,-2,0,-0.062944642
33.265585,-17,-11,3,2,0,0,-1,-1,-0.062944642
33.273651,4,19,-1,1,1,1,1,0,-0.062944642
33.273665,-31,-80,-12,-2,-2,-1,-2,-5,-0.062944642
33.287169,-3,-1,-7,-3,-1,0,-1,-1,-0.062944642
33.287205,20,60,0,-2,-1,-1,-1,-1,-0.062944642
33.288880,10,-12,4,0,-3,-2,0,1,-0.062944642
33.288887,-13,5,0,-1,-2,-1,-3,-3,-0.062944642
33.309411,-5,15,2,0,-1,-1,1,-2,-0.062944642
33.309440,11,-32,-9,-2,-2,0,0,-1,-0.062944642
33.311668,-9,-51,-1,1,0,-1,1,-4,-0.062944642
33.311682,33,89,-4,-3,-1,-1,-1,0,-0.062944642
33.322919,-21,-38,0,-4,-2,-3,-2,-3,-0.062944642
33.322947,3,32,-1,0,-1,-2,-1,1,-0.062944642
33.334172,-19,-14,4,-3,0,0,-2,1,-0.062944642
33.334184,11,-28,-4,1,1,0,0,1,-0.062944642
33.346716,7,31,-6,-3,-2,0,-1,0,-0.062976192
33.346733,11,6,8,-4,-3,0,0,-1,-0.062976192
33.348517,-8,-31,3,2,-1,1,-1,-1,-0.062976192
33.348535,-5,48,2,0,-1,-1,0,0,-0.062976192
33.369180,-4,-45,-2,-3,0,-4,-3,-5,-0.062976192
33.369196,11,-5,-5,0,-1,-2,-1,3,-0.062976192
33.370770,-4,15,-3,-4,-4,-2,-3,-3,-0.062976192
33.370837,0,-23,1,1,0,-1,2,-1,-0.062976192
