timestamp,emg1,emg2,emg3,emg4,emg5,emg6,emg7,emg8,label
2.002858,-57,-16,-10,-15,-10,-65,97,-67,3
2.003255,-6,-1,-2,0,73,58,72,-5,3
2.004643,1,4,3,3,-68,-40,-110,31,3
2.004651,-11,-18,-10,-2,-16,50,82,-18,3
2.025543,5,-5,-10,-23,10,-41,-31,-17,3
2.025565,61,3,3,-6,-122,26,-20,24,3
2.026804,5,7,-2,4,-69,-90,95,40,3
2.026817,-19,-1,-1,-29,21,26,-33,-7,3
2.038959,17,4,6,24,-97,-38,33,-6,3
2.038974,-11,-13,-16,0,-79,-26,-11,0,3
2.049686,17,3,4,-20,6,65,-52,40,3
2.049690,-34,-4,-4,-3,26,19,-38,-40,3
2.062987,2,3,5,5,-16,37,51,14,3
2.063011,23,11,7,8,-23,-16,-41,-6,3
2.065798,32,0,3,8,77,38,55,-11,3
2.065809,-54,4,1,0,-22,-78,33,65,3
2.085613,44,5,1,-10,31,79,-1,40,3
2.085628,18,6,4,12,0,6,100,18,3
2.086866,-11,-8,-8,0,78,-12,87,35,3
2.086912,29,5,8,13,-24,42,96,-39,3
2.100624,7,5,-5,-37,-1,-14,-27,-23,3
2.100634,3,-22,-8,39,2,86,-26,16,3
2.109808,10,8,1,7,-50,33,46,21,3
2.109814,24,-9,-8,-13,-45,-27,-96,3,3
2.122902,-29,4,3,16,-51,28,-97,17,3
2.122926,6,-1,-2,-13,-46,-65,67,47,3
2.125051,-9,-4,-4,-17,-53,12,-105,-7,3
2.125056,5,-11,-8,11,66,-28,-14,-32,3
2.146199,63,-3,-2,-13,-46,-90,15,1,3
2.146205,-60,-17,-10,-20,127,23,5,-55,3
2.146667,-19,5,1,-11,-25,110,-30,13,3
2.146672,29,3,4,-16,-54,55,21,18,3
2.159061,-9,-10,-6,11,54,29,-26,-2,3
2.159082,24,17,6,-7,18,-21,56,-16,3
2.169468,11,-20,-7,-10,86,-71,-6,24,3
2.169476,-4,11,9,33,83,47,92,-29,3
2.183042,-20,0,0,-3,-60,34,44,23,3
2.183067,-50,2,3,-9,71,126,56,19,3
2.185135,14,9,2,3,-17,12,-28,-5,3
2.185143,-7,2,-1,-4,-69,-35,-47,-10,3
2.205241,1,0,-1,-21,1,31,65,-5,3
2.205258,19,-1,3,21,72,46,36,12,3
2.206795,7,-1,-5,-4,-45,-57,32,7,3
2.206844,-30,-3,-3,1,-28,111,77,-3,3
2.219351,-11,4,6,0,-93,-81,-91,-10,3
2.219384,-14,2,-1,-13,-127,39,-48,-8,3
2.228777,-28,-14,-5,-10,46,48,-8,-26,3
2.228785,79,1,0,-1,-16,-57,-30,7,3
2.242927,-26,-4,-9,5,117,-33,-28,8,3
2.243000,17,3,2,-10,-49,3,93,28,3
2.244325,-55,6,2,14,-14,-33,-4,16,3
2.244363,-16,-15,-7,-9,-20,-14,-88,-3,3
2.265749,6,11,4,30,-22,91,-6,16,3
2.265777,15,-10,-4,-6,7,5,-65,-15,3
2.268181,31,9,2,10,0,-19,9,-18,3
2.268188,11,8,5,7,11,127,-4,-12,3
2.279252,-4,4,7,4,48,47,104,73,3
2.279277,40,0,-1,-2,57,-21,-75,4,3
2.288788,-4,4,-2,-3,-51,39,107,-14,3
2.288792,-23,-11,-3,8,95,0,54,-92,3
2.304175,-18,1,-1,6,-73,6,87,-6,3
2.304181,26,6,0,-5,44,-81,46,15,3
2.304362,7,3,5,-1,33,-29,15,12,3
2.304369,3,-17,-12,-1,-91,-60,-47,-47,3
2.325362,-37,-7,-4,-12,-24,17,100,-31,3
2.325382,-34,-2,2,7,73,-51,-23,-20,3
2.326744,39,7,-2,-19,3,41,-31,-30,3
2.326758,-15,1,2,8,-7,-51,57,62,3
2.348165,14,-14,-9,-8,115,6,-22,-4,3
2.350261,-31,3,0,1,-27,-10,-80,-3,3
2.350272,-15,-4,2,1,17,-46,-33,-16,3
2.350274,-25,4,-3,-5,15,-35,-17,-20,3
2.363041,72,1,-2,-6,20,73,-70,9,3
2.363062,-79,-8,-5,-7,-12,20,22,0,3
2.365949,-24,5,4,10,15,-33,-71,49,3
2.365965,6,-14,-8,1,-43,92,46,48,3
2.385533,10,5,2,-4,-15,-66,92,7,3
2.385566,2,-2,-1,4,-46,-5,-9,-38,3
2.386763,-6,2,1,-3,-32,-17,40,-19,3
2.386835,3,5,2,-2,71,91,25,15,3
2.408146,-23,-11,-7,-12,-23,-29,-39,-82,3
2.408174,18,3,2,4,15,33,-24,22,3
2.410792,-33,-17,-7,5,42,-5,69,16,3
2.410799,1,14,7,-18,-71,57,-30,29,3
2.423163,1,2,0,4,2,8,58,25,3
2.423240,-1,-6,-4,-8,-86,-14,-14,29,3
2.424903,-18,-6,-8,-3,55,-60,-49,37,3
2.424914,42,1,0,-6,6,-21,31,2,3
2.446135,-80,-5,-4,-7,46,-36,8,-17,3
2.446139,39,6,3,25,0,-12,-26,55,3
2.446646,2,-3,-2,3,-39,-1,-43,-31,3
2.446652,26,5,0,-2,-3,-73,1,21,3
2.468168,13,4,1,-10,-57,-23,11,-9,3
2.468215,11,-17,-15,6,-28,20,-47,-54,3
2.469941,-1,0,-4,-14,-82,98,52,-22,3
2.469947,-8,0,2,10,-14,-3,-36,-30,3
2.482263,27,6,3,5,2,9,11,45,3
2.482292,-33,0,1,-28,-98,-7,-16,-2,3
2.489046,7,-10,-6,1,-9,63,-33,-46,3
2.489068,12,-2,-4,2,36,-35,3,-9,3
2.505229,41,5,7,11,8,87,94,35,3
2.505551,11,3,-2,1,25,41,89,-36,3
2.507744,17,-12,-6,-11,-22,-47,75,38,3
2.507750,13,9,3,-1,63,-47,-25,31,3
2.527987,-25,-5,0,30,-18,-58,-101,-35,3
2.528001,29,1,-5,-12,62,63,94,48,3
2.530123,-54,-7,0,9,-17,-70,22,-35,3
2.530130,-5,3,1,-2,-46,-16,13,-49,3
2.542186,24,1,0,5,-35,14,12,47,3
2.542208,14,3,-1,-14,13,23,10,25,3
2.548974,6,1,0,8,-8,-21,-12,-30,3
2.549006,-2,1,-1,-4,-17,42,-53,32,3
2.565525,-3,-3,-1,-9,-65,23,-31,-1,3
2.565551,16,5,9,9,-56,2,-5,11,3
2.567393,34,10,2,-14,127,63,-39,2,3
2.567400,-3,8,11,25,-113,101,-31,2,3
2.587832,3,-11,-6,-17,22,-100,-48,-14,3
2.587855,-23,2,1,1,46,38,42,14,3
2.589364,-10,5,0,-5,-45,-17,-14,0,3
2.589378,-47,-13,-3,-2,2,-46,4,-8,3
2.602423,4,9,3,12,-34,-5,-1,5,3
2.602445,11,-11,-7,-10,-38,-18,-21,-58,3
2.609303,22,2,-1,7,22,-11,5,24,3
2.609324,25,-5,-3,-1,37,-20,39,18,3
2.625370,-26,0,-4,-24,-87,35,32,-19,3
2.625393,-3,6,2,25,-87,-109,-51,29,3
2.626906,-52,-14,-2,4,-30,77,58,-28,3
2.626917,22,-6,-5,2,-22,-36,-11,5,3
2.648204,18,0,-6,-22,26,-75,35,-10,3
2.648216,4,-2,0,-11,-43,-92,66,28,3
2.649386,32,1,-2,-5,-63,28,-22,22,3
2.649405,13,6,2,8,107,-63,-67,17,3
2.663922,30,-1,0,-4,117,82,-55,21,3
2.663934,-51,-11,-10,-9,68,26,58,-91,3
2.668968,26,9,3,-3,-22,-23,15,32,3
2.670370,-18,-8,-7,-19,-33,31,40,33,3
2.685606,16,-2,1,-7,-8,42,-15,-49,3
2.685632,-22,-6,0,5,44,0,-25,-10,3
2.686896,14,1,2,15,100,33,-3,-11,3
2.686901,-7,-10,-11,-21,-33,-2,-2,-26,3
2.709829,-58,2,0,1,0,-47,44,4,3
2.709835,-12,-1,0,1,-17,30,1,-1,3
2.709837,15,1,-2,-4,-27,42,-15,-6,3
2.709839,-11,1,-1,-3,-83,-37,13,-14,3
2.722120,-7,-3,-2,23,-6,-1,-23,22,3
2.722144,24,5,0,-29,45,6,82,-39,3
2.729030,-27,-6,-7,-5,20,-54,-1,-22,3
2.729054,6,-1,0,-6,-47,-51,-65,69,3
2.745328,-29,-6,-3,-7,-14,16,41,-22,3
2.745345,-33,2,0,0,9,12,-49,-8,3
2.746782,10,-4,-2,-5,34,54,-2,24,3
2.746789,-16,5,2,14,8,-13,42,-15,3
2.767453,0,4,4,11,90,21,53,13,3
2.767487,3,2,-1,-5,-11,46,-27,30,3
2.769593,25,8,4,-18,-64,-60,0,7,3
2.769598,-6,-2,-1,18,127,86,66,4,3
2.781846,-26,-8,-3,5,-32,66,-114,47,3
2.783752,-3,-2,-2,7,7,14,38,-79,3
2.788981,-14,7,6,7,-31,-16,79,-9,3
2.788997,1,8,5,-20,-38,-43,53,-20,3
2.804655,40,3,-3,17,50,53,-72,-13,3
2.804672,34,-13,-4,-8,-61,-21,-60,-17,3
2.806837,-4,2,-1,-6,-43,-64,-91,11,3
2.806842,-4,-5,-4,-10,-118,-31,31,-17,3
2.827129,-14,-6,-2,4,86,12,26,-21,3
2.827147,-2,4,1,-1,-12,25,-61,9,3
2.829893,-10,-4,0,10,0,39,-8,-16,3
2.829898,12,1,-2,6,17,17,10,1,3
2.841732,33,8,-1,-25,-120,-87,-17,-58,3
2.841762,-26,-5,-1,82,119,-6,11,-33,3
2.849224,-72,-13,-5,-7,42,52,10,47,3
2.849249,59,-13,-11,-9,30,33,19,-47,3
2.865162,-86,-5,-1,-11,-32,-10,8,24,3
2.865192,-24,3,3,-17,-60,-28,90,32,3
2.867627,21,3,1,6,5,2,-7,-20,3
2.867633,-12,1,2,8,17,-3,-27,-5,3
2.887176,16,1,1,-3,-11,17,-6,-3,3
2.887192,26,2,-1,-12,-20,0,5,20,3
2.887731,-8,-4,-2,3,1,0,19,-12,3
2.887774,3,5,1,-12,-1,13,-28,14,3
2.901792,22,-1,-3,-3,-59,-36,19,39,3
2.901854,9,0,4,5,14,20,53,19,3
2.909209,2,5,-2,20,-84,-21,60,16,3
2.909232,45,3,7,2,-21,35,-48,24,3
2.924781,-24,-14,-2,22,72,19,-37,41,3
2.924805,22,4,2,2,-10,78,96,9,3
2.926196,-1,-2,-1,-9,-48,40,1,-20,3
2.926205,-23,-5,-2,3,-8,7,18,-13,3
2.947138,17,6,4,3,-10,-5,106,-23,3
2.947153,1,4,-1,-15,-19,54,-44,8,3
2.947984,13,-9,-7,-4,-8,10,-22,-73,3
2.948010,-60,-8,-8,-10,112,24,15,13,3
2.961455,25,0,0,-14,-8,38,24,8,3
2.961475,-27,-2,-3,-7,36,-6,-33,-3,3
2.969225,-53,-16,-9,-6,120,67,-58,14,3
2.970424,7,-10,-7,-10,-26,-31,-93,-3,3
2.985093,10,-4,-3,-4,-29,-3,67,-30,3
2.985132,33,7,-1,-6,26,-50,4,67,3
2.986312,-33,1,4,3,11,-17,10,-3,3
2.986316,-29,1,0,0,-25,8,6,-10,3
3.007937,3,6,4,-5,-14,1,-56,3,3
3.008022,6,-5,-4,14,-89,-89,-25,-31,3
3.008024,8,-2,2,-10,6,-44,-34,19,3
3.008026,-3,-4,-2,37,64,-21,74,-67,3
3.021526,20,4,-2,-10,2,17,-22,30,3
3.021550,8,-7,-4,-14,41,-94,-77,2,3
3.029027,21,8,5,0,-41,-1,71,33,3
3.029048,14,2,1,16,-64,-37,66,4,3
3.044797,-4,5,-3,-7,-45,54,22,-5,3
3.044820,-5,0,0,13,75,67,-9,26,3
3.046228,40,-2,-1,-8,-22,-81,76,3,3
3.046235,0,11,8,-1,12,32,-60,38,3
3.067344,-33,-11,-3,18,9,47,-30,-61,3
3.067379,11,7,1,-20,-21,67,-43,62,3
3.069931,-5,-3,-1,-4,-4,-44,10,-18,3
3.069936,9,8,2,2,-78,-38,-71,17,3
3.081578,-8,-5,-4,-5,60,-49,-5,-9,3
3.081600,40,0,-1,-1,-4,11,19,-29,3
3.089014,-24,-5,-2,7,12,-18,-37,11,3
3.089031,10,5,6,-8,-36,48,14,4,3
3.104931,-7,-6,-5,-15,76,-27,27,23,3
3.104956,-13,10,6,0,-1,-26,57,55,3
3.105917,-24,-12,-4,4,14,46,12,0,3
3.105920,-2,-3,-4,-15,13,20,51,17,3
3.127140,-4,-7,-1,-15,-10,9,-89,-45,3
3.127164,6,-10,-7,4,-11,-36,53,-38,3
3.129548,12,5,-1,-1,38,35,-15,38,3
3.129552,-50,-5,1,6,16,-4,50,-7,3
3.141579,-28,-6,-3,-7,-103,-31,-33,12,3
3.141608,-33,-5,1,-10,10,28,37,-35,3
3.149207,48,8,2,5,47,113,-8,-21,3
3.149238,-23,2,-5,-13,-9,-13,35,7,3
3.164750,30,-4,-3,7,67,65,18,5,3
3.164778,-1,-2,2,-5,-67,-91,-33,-2,3
3.166330,5,-3,-5,1,-103,-23,60,-29,3
3.166339,-12,4,4,12,5,18,22,9,3
3.187193,10,-1,-2,-15,-46,-56,4,-23,3
3.187215,-25,-3,-8,19,-35,87,-42,-9,3
3.187834,28,4,4,12,94,-12,-35,-48,3
3.187852,-5,-11,-10,-21,29,86,37,15,3
3.209748,-13,8,11,16,-39,64,-2,6,3
3.209771,-11,-1,-1,-12,35,31,57,-23,3
3.212154,4,10,4,2,-40,11,4,23,3
3.212159,28,-7,-10,-19,-11,-17,-70,-16,3
3.224745,-28,10,6,2,-68,-35,50,22,3
3.224773,19,-8,-3,-9,20,35,61,-2,3
3.226381,-95,-10,-9,-7,-51,9,-73,17,3
3.226388,17,0,-2,-3,-64,-29,0,-19,3
3.246990,21,4,7,-2,59,-81,-25,6,3
3.246997,-10,1,-1,-3,18,-75,-2,-51,3
3.248044,11,7,-1,-4,59,-40,77,21,3
3.248069,1,-6,0,3,53,52,-78,-40,3
3.269672,-30,-5,-6,-1,44,40,48,11,3
3.269693,29,7,9,9,41,25,-30,13,3
3.271332,13,5,2,7,67,-25,-6,49,3
3.271339,2,5,7,13,-15,6,36,0,3
3.284916,25,1,-1,-1,-36,22,127,13,3
3.286422,-6,-5,0,1,31,-7,-64,-20,3
3.286428,11,-2,-1,-4,-89,-16,4,50,3
3.286430,43,9,3,2,60,-88,-19,57,3
3.309060,-56,-2,-3,-14,17,13,-41,-20,3
3.309067,-6,-4,3,13,8,13,12,40,3
3.309068,-35,-14,-9,-26,-68,11,-8,-43,3
3.309070,-22,-2,-1,5,-4,50,33,0,3
3.329769,0,-5,-2,7,80,-17,37,5,3
3.329785,3,6,-3,-13,-11,28,10,27,3
3.330214,16,-1,0,2,57,59,15,-11,3
3.330226,17,4,1,7,28,-21,41,-9,3
3.344644,19,-6,-11,-30,-119,-46,-7,-46,3
3.344659,16,5,7,21,54,48,-128,7,3
3.345629,18,-2,-1,2,-59,-68,28,15,3
3.345632,-6,-9,-7,-11,-9,19,-52,-1,3
3.367338,40,5,1,-10,-28,2,-26,-15,3
3.367368,0,-3,-5,-1,-57,-7,69,14,3
3.369269,-2,5,2,1,-23,3,-25,-13,3
3.369274,-8,7,4,4,49,-35,-3,-18,3
3.389575,-18,-13,-7,13,83,-2,-106,-29,3
3.389591,-14,-8,-8,-25,-82,-6,127,64,3
3.390295,34,-3,-5,-2,35,53,3,-6,3
3.390308,-2,-8,-9,-13,-29,-6,26,-31,3
3.404694,-30,5,3,15,15,16,-70,7,3
3.404717,-30,-3,-3,-3,-6,-71,-25,-46,3
3.407135,-4,1,1,-4,15,7,-12,1,3
3.407141,-6,-4,-2,-4,1,-14,-12,-3,3
3.427253,36,5,3,10,-15,-20,20,21,3
3.427276,-24,-2,-5,-14,-19,14,-54,-66,3
3.429250,-1,3,7,-4,-26,59,29,10,3
3.429254,-6,-3,1,25,58,37,-69,-55,3
3.450646,31,-21,-20,-22,13,39,46,-33,3
3.450656,27,-5,-5,-13,-67,-2,6,3,3
3.450658,29,9,4,6,-49,-50,-49,4,3
3.450743,-8,-3,0,7,70,-20,5,4,3
3.466781,33,11,7,14,-27,-36,-64,12,3
3.466786,-3,-3,-1,-1,20,7,41,7,3
3.466787,-10,-1,-3,1,2,-19,28,-11,3
3.466789,1,5,2,-3,-42,21,-64,24,3
3.487212,-18,-1,-1,-2,-39,-10,26,12,3
3.487243,-7,0,-1,-2,9,-9,14,7,3
3.488730,-15,-2,0,-1,8,23,-73,-13,3
3.488738,6,0,1,-6,-28,-44,21,15,3
3.511583,-18,-8,-5,2,-38,8,94,30,3
3.511673,17,0,1,5,-65,48,-63,-5,3
3.511675,-2,0,1,-17,62,9,8,-6,3
3.511677,27,-1,-4,11,46,1,-28,4,3
3.524897,1,11,11,17,-30,28,41,16,3
3.524926,22,-2,-4,-4,-16,-14,76,25,3
3.526895,-9,-4,-6,-1,0,-34,24,-54,3
3.526903,17,1,2,-11,-49,-12,45,32,3
3.547789,-8,15,6,-1,-57,-31,-21,-12,3
3.547820,-35,-17,-12,5,93,48,-58,-18,3
3.550422,8,1,-2,-4,-45,-93,-55,19,3
3.550429,-32,-1,1,-18,-18,-47,84,-10,3
3.569574,-6,-3,3,33,-10,115,-13,48,3
3.569591,1,2,2,-5,-49,39,1,12,3
3.571139,33,0,-5,0,19,37,75,38,3
3.571143,6,3,0,8,-14,-33,-18,-16,3
3.585109,-28,-9,-5,-10,-17,-80,49,40,3
3.585153,9,5,1,-3,-62,-19,-24,15,3
3.586745,-6,-4,-2,3,33,15,-23,-12,3
3.586749,-1,1,1,-7,-43,23,4,26,3
3.606988,7,-2,2,5,70,95,-85,-36,3
3.607002,-23,0,-1,-3,40,-26,63,-6,3
3.607642,-44,-4,-1,-2,-64,-5,30,-5,3
3.607655,-37,-9,-7,-20,46,46,-77,-41,3
3.629914,-12,1,-2,0,-36,-62,-26,-11,3
3.629942,-15,-1,5,5,16,-47,-13,13,3
3.632310,3,1,0,5,-57,77,64,-15,3
3.632318,3,1,-7,-11,-67,101,97,-23,3
3.644729,8,0,1,6,-27,-40,48,-3,3
3.644751,1,-1,0,2,35,61,-86,-22,3
3.646249,-46,-12,-6,-17,-21,44,47,-51,3
3.646256,-19,-4,-1,-1,-59,-4,-40,40,3
3.667191,20,2,-3,-26,114,-93,-59,-15,3
3.667223,-31,-4,0,22,-44,9,-5,12,3
3.669415,30,-1,-1,-11,56,-42,32,35,3
3.669422,16,-8,0,15,38,7,-100,-27,3
3.689644,-1,-6,-5,-10,-42,63,36,11,3
3.689666,29,1,-1,-15,12,-4,82,22,3
3.690456,19,6,1,5,-46,-64,-128,-38,3
3.690475,-13,-1,-4,-3,3,-21,41,54,3
3.704655,35,3,0,4,69,-35,69,-31,3
3.704674,-34,3,0,-14,16,-111,-41,-93,3
3.705917,-14,3,2,5,-43,-8,83,64,3
3.705921,5,-3,0,4,9,-19,4,-5,3
3.727111,-13,1,2,5,22,39,-47,11,3
3.727130,-5,-4,-3,-10,19,31,35,12,3
3.728831,-35,-1,-3,-6,11,41,-33,-20,3
3.728835,17,10,8,5,78,37,61,21,3
3.749648,17,4,2,-1,-11,-79,-57,29,3
3.749672,19,-5,0,0,35,-6,108,-3,3
3.750456,47,3,0,4,16,43,-37,-21,3
3.750488,-29,-6,-4,-6,-42,20,56,10,3
3.764663,-25,-1,-2,11,3,38,39,-18,3
3.764691,9,-4,-7,-15,43,-62,-90,-9,3
3.766077,29,1,0,5,-74,-4,-11,15,3
3.766081,13,2,0,-9,-64,2,26,7,3
3.787237,-24,0,0,-15,31,-63,18,-14,3
3.787259,33,16,12,75,48,68,27,21,3
3.788339,1,-14,-4,-11,3,48,1,-18,3
3.788342,-29,1,-5,-1,-14,-16,-8,8,3
3.810872,8,-9,-5,-10,-73,50,-24,-8,3
3.810879,-6,0,-1,10,21,-11,40,18,3
3.810881,11,-1,-1,-3,29,-20,1,27,3
3.810882,-17,-4,1,3,-22,-4,17,-11,3
3.824776,-22,-2,-2,-4,-16,-20,-11,21,3
3.824807,11,2,3,-11,-12,6,-54,-16,3
3.826166,-20,4,3,14,32,-7,-1,1,3
3.826169,13,-5,-2,-9,5,-20,-11,-25,3
3.847967,9,0,0,5,-6,-16,-59,11,3
3.848005,-19,-16,-16,-29,-23,31,-104,-63,3
3.849682,-1,-4,0,8,5,-61,0,81,3
3.849688,11,-2,-2,2,34,-128,-65,-3,3
3.869681,5,1,-3,-6,-43,-31,-60,-17,3
3.869707,15,5,2,-10,-53,-47,0,43,3
3.871926,-7,-3,1,9,-3,-55,35,-12,3
3.871930,-5,-4,-7,-7,-13,50,6,2,3
3.884090,-15,-3,-7,-1,-29,91,46,-3,3
3.884198,11,3,9,19,-37,-92,-1,-50,3
3.892988,3,5,1,2,63,107,29,19,3
3.893015,2,5,5,9,-28,-2,0,17,3
3.907285,13,0,1,5,5,49,32,-9,3
3.907360,3,5,1,-9,-48,5,3,-20,3
3.908130,-3,-9,-4,1,32,7,-32,-9,3
3.908230,4,-2,2,10,100,80,46,21,3
3.930008,28,-1,-3,-9,22,33,111,-2,3
3.930039,-30,5,-1,-12,-8,50,90,9,3
3.932618,-5,-5,1,-1,-22,-42,-35,-10,3
3.932623,-15,0,-3,-6,-15,6,-26,4,3
3.944232,-4,-2,-1,1,-10,67,-33,-1,3
3.944253,17,2,1,2,17,59,-57,37,3
3.952340,-47,-6,-7,-15,63,-53,116,-23,3
3.952360,-24,4,-1,-8,-17,9,44,-47,3
3.967116,-29,-10,-3,30,1,51,22,-39,3
3.967143,-18,-7,-9,-11,15,-21,-39,25,3
3.967982,-13,-2,-3,-4,-45,-82,6,-47,3
3.967995,21,-2,0,-3,58,4,-64,17,3
3.989666,-2,4,2,-7,36,-77,7,-35,3
3.989682,-47,-15,-13,-24,-75,-51,86,26,3
3.992041,42,9,4,4,-108,-1,2,11,3
3.992045,50,-6,0,9,-51,32,57,-4,3
4.003937,-19,-1,-3,-12,26,7,44,0,3
4.004102,-29,-5,2,3,-36,-1,16,5,3
4.013380,13,11,0,-13,-10,61,2,-58,3
4.013384,68,4,-1,-2,26,0,-60,68,3
4.029075,-35,-2,2,8,48,-31,40,73,3
4.029079,2,0,-2,0,-16,61,-5,-15,3
4.029081,-13,-5,-3,0,99,15,-15,9,3
4.029082,-40,-4,0,2,-50,-77,18,-25,3
4.049644,17,-5,-3,-13,53,42,-4,23,3
4.049670,17,7,1,-11,-81,12,-117,12,3
4.050470,6,-3,-2,6,-49,-31,10,26,3
4.050484,-33,-11,-5,2,-6,-26,5,-49,3
4.064232,11,0,1,2,-11,56,-5,-16,3
4.064249,24,6,3,10,55,110,51,57,3
4.072190,5,-9,-11,-26,-34,75,-59,-58,3
4.072208,-15,2,-1,0,-3,24,-40,37,3
4.087185,-11,-3,-1,0,-30,-43,-24,-78,3
4.087209,-24,-2,-3,-1,19,-8,-7,-30,3
4.088435,23,0,0,2,7,-4,17,15,3
4.088438,13,2,-2,-7,13,-7,16,9,3
4.110182,18,4,2,4,-11,-25,-14,-9,3
4.110201,9,1,4,-1,-39,-90,35,-8,3
4.110207,-6,3,4,10,-18,-38,12,21,3
4.110309,-18,-2,-3,-8,-82,-66,37,-41,3
4.124059,15,2,1,1,-68,-4,4,29,3
4.124075,-24,-5,-2,-3,59,89,35,-23,3
4.132201,15,4,5,15,50,65,24,15,3
4.132223,12,4,0,3,-45,80,-4,18,3
4.147514,3,6,2,-1,59,-32,8,14,3
4.147539,-20,-4,-3,-5,49,-40,-38,-19,3
4.149992,-26,0,0,6,16,17,-8,-22,3
4.149998,25,0,-1,-6,13,28,23,15,3
4.171121,-30,-5,0,-5,-32,-5,-69,45,3
4.171131,36,2,-3,1,-52,73,32,-36,3
4.171133,-64,-6,-6,-4,49,22,-33,37,3
4.171134,-13,2,-1,2,-9,-74,2,-31,3
4.193033,16,-7,-3,-4,-14,8,12,-7,3
4.193058,-47,-8,0,-4,-68,-5,25,1,3
4.195155,-62,-10,-5,-7,-54,-84,-71,-19,3
4.195162,-6,2,0,-8,-61,26,-26,-21,3
4.207412,46,6,1,4,-61,65,-3,-12,3
4.207430,0,-2,-2,-1,15,3,87,25,3
4.209404,1,-1,1,0,-4,71,49,-7,3
4.209410,-12,1,1,-1,32,-1,27,17,3
4.230032,7,-9,-5,-1,2,-43,7,13,3
4.230065,31,3,-2,-6,1,-47,-56,31,3
4.232449,-10,2,2,4,56,-20,-9,-45,3
4.232463,10,2,-1,9,43,38,1,5,3
4.252956,10,-4,-9,-22,-68,-40,-25,-4,3
4.252981,-17,-2,3,4,-60,-100,97,64,3
4.253486,27,1,-2,-11,-13,-43,-29,35,3
4.253493,-4,-7,0,1,2,-47,-39,-19,3
4.267623,-4,-1,-1,-3,51,-17,-57,-41,3
4.267814,-29,-4,-2,-4,-40,-20,36,68,3
4.268145,31,4,3,2,-31,-7,-36,-27,3
4.268254,-11,4,4,6,14,12,8,-25,3
4.289670,-19,2,0,11,40,27,-41,5,3
4.289687,15,-1,-1,-8,20,84,11,7,3
4.292880,39,5,4,13,23,60,96,47,3
4.292885,-54,-10,-5,2,23,15,30,36,3
4.312839,12,4,5,-13,-75,26,29,8,3
4.312851,4,-1,-2,33,40,-62,37,-42,3
4.313472,14,2,-3,-6,-35,-20,8,5,3
4.313536,36,3,1,-1,21,19,14,24,3
4.327916,-6,5,1,-3,-38,31,23,-4,3
4.327921,17,4,3,-1,-63,-25,-21,-23,3
4.327923,-28,-9,-6,5,79,37,66,27,3
4.327924,-13,-15,-10,-9,-12,-93,-64,-46,3
4.349603,-56,0,-1,-3,56,-18,4,12,3
4.349623,11,3,2,-2,-8,-3,-40,-7,3
4.350847,-10,-1,0,3,48,-7,-25,-21,3
4.350858,24,9,4,2,-38,2,5,8,3
4.373739,6,-1,-1,3,32,-20,23,-9,3
4.373744,19,-4,-5,-10,-10,16,-114,-24,3
4.373746,-1,3,2,-6,-47,-6,-6,9,3
4.373748,-8,-1,1,1,11,29,-18,-16,3
4.387177,11,-4,-3,0,15,-29,-2,-49,3
4.387201,22,-5,-4,-1,50,11,-13,-16,3
4.388497,-37,-7,-1,-2,-42,-15,-16,-9,3
4.388501,-26,2,2,3,-36,-13,38,-12,3
4.409947,-1,2,2,11,47,24,21,-21,3
4.409966,10,1,2,-1,-31,-57,-72,5,3
4.411872,17,-1,-5,-8,-79,-56,9,9,3
4.411877,-23,-3,-2,0,52,48,45,-10,3
4.433184,33,-8,-6,-6,-66,4,43,89,3
4.433206,-45,-1,1,-15,-3,31,-85,-104,3
4.434207,11,5,5,30,27,2,14,9,3
4.434212,10,2,3,6,3,20,41,16,3
4.448049,5,6,1,-4,-17,-6,-58,8,3
4.448096,37,2,-3,3,100,-8,-21,16,3
4.450036,-5,-1,-4,-16,-46,31,-40,53,3
4.450041,-61,-12,-7,-9,-37,-15,-64,-58,3
4.469635,-14,-1,2,5,-23,31,38,-1,3
4.469656,-27,-3,-4,-1,-6,15,25,-2,3
4.470317,-2,1,-1,1,5,-15,-62,7,3
4.470326,45,4,0,2,5,-8,26,22,3
4.492952,22,7,2,-4,-5,36,106,36,3
4.492974,-27,-5,-3,-3,34,105,25,-65,3
4.495369,49,-4,-1,-3,-113,3,30,32,3
4.495372,90,7,-2,-7,-28,-4,-42,61,3
4.507099,-71,-8,-6,-1,-36,-52,-19,-24,3
4.507193,8,6,5,6,51,-94,61,44,3
4.509169,15,-1,-2,8,24,40,12,-27,3
4.509174,10,-1,-5,-14,-12,14,18,10,3
4.530782,10,-2,2,1,-25,-85,-63,-1,3
4.530794,9,-4,-5,-9,-33,-22,-61,6,3
4.530795,-27,5,2,11,103,-8,-31,-13,3
4.530798,-25,-3,1,-7,-73,-69,57,-11,3
4.552820,-43,-2,-3,21,-70,-6,87,29,3
4.552837,24,-8,-7,3,73,116,12,-33,3
4.554284,-62,-2,-1,-5,14,27,82,-10,3
4.554291,-41,-8,-3,-3,26,61,25,-16,3
4.567314,18,0,0,-1,6,-11,-88,-4,3
4.567350,42,6,2,-1,-76,-19,45,37,3
4.568187,-3,1,-1,-7,-39,-32,25,0,3
4.569575,5,2,3,9,83,-33,-25,7,3
4.589866,13,-11,-14,-23,-4,125,5,-14,3
4.589896,8,-3,-4,0,-71,6,56,74,3
4.592447,-35,5,3,-3,31,54,10,-19,3
4.592454,-43,-4,3,13,-45,6,70,10,3
4.612850,38,-2,0,7,106,-5,-38,5,3
4.612866,-29,4,3,-12,-29,-41,-25,19,3
4.613397,37,-2,-3,-5,-31,-50,-24,21,3
4.613410,21,12,-2,-5,9,28,49,7,3
4.627009,-18,-10,0,-4,3,-54,7,4,3
4.627024,-13,-5,2,8,24,73,-49,-38,3
4.627948,9,2,2,0,33,-94,10,16,3
4.628016,-13,1,-1,-1,-43,43,59,-22,3
4.649610,-3,-2,-5,-22,13,18,13,-52,3
4.649633,-40,-4,-3,2,-45,-46,-32,15,3
4.651418,9,-11,-5,-15,53,101,47,13,3
4.651426,-4,-3,-1,15,-26,-11,-46,-11,3
4.672945,57,3,5,3,18,-24,17,-21,3
4.672960,-34,3,4,7,-8,-14,31,5,3
4.673509,12,1,-2,-13,-83,-51,77,-27,3
4.673522,6,-6,-1,-3,71,-41,-23,15,3
4.687006,15,-1,-1,4,-39,-22,29,24,3
4.687015,17,1,-2,-13,-74,-31,64,-13,3
4.687796,31,-12,-10,5,32,17,-66,-66,3
4.687805,-24,0,0,-27,-53,30,0,38,3
4.709744,0,0,1,41,17,-3,5,21,3
4.709761,15,-1,-1,0,67,14,30,-18,3
4.711752,-7,7,5,1,-45,39,-24,-15,3
4.711756,15,0,2,-14,46,1,12,-22,3
4.733851,-70,1,1,6,-22,81,-100,-11,3
4.733855,21,-1,-2,0,95,-8,-43,38,3
4.733858,3,-4,-1,2,41,81,-3,-9,3
4.733859,-7,-7,-8,-9,31,-33,-43,-64,3
4.747528,-10,-3,0,-5,-94,71,-44,-6,3
4.747552,4,6,5,46,53,38,42,30,3
4.749920,3,1,0,-4,-33,37,-51,49,3
4.749924,-1,-3,-2,7,-6,50,4,-15,3
4.769769,30,3,-3,-15,4,-21,48,22,3
4.769788,-26,1,3,-8,-107,-33,6,6,3
4.770307,19,-10,-6,-29,-57,-40,-52,-4,3
4.770313,41,6,4,25,14,-44,-76,62,3
4.792784,-6,-1,-3,-12,23,-83,56,14,3
4.792803,16,-3,-4,-9,-8,-24,-93,22,3
4.793857,0,5,3,5,-46,23,-3,5,3
4.793861,-15,-5,-3,-7,-31,-30,-53,23,3
4.806647,7,0,-1,-8,-25,-17,11,0,3
4.806676,27,2,5,-6,77,-41,34,-50,3
4.814969,1,5,1,8,105,-65,40,27,3
4.816865,3,-2,-5,-6,11,26,26,10,3
4.829542,-18,2,2,5,76,5,71,-2,3
4.829557,13,-4,-5,-7,-29,-56,-42,-41,3
4.830137,-17,2,0,7,-18,9,-23,-32,3
4.830149,-14,2,2,4,13,-28,34,-13,3
4.852861,-14,-3,-3,-6,35,-6,1,38,3
4.852886,6,-2,-2,-4,-26,53,31,-4,3
4.855451,-20,4,3,-4,-58,-80,-44,10,3
4.855460,67,-3,-8,-14,58,104,-16,-45,3
4.866641,-19,-3,1,4,20,-73,-47,-18,3
4.868936,-19,-5,-7,-17,85,20,23,-20,3
4.876078,-24,-8,-2,5,-116,15,-27,-10,3
4.876105,6,0,0,-9,-41,-77,13,41,3
4.889548,-7,5,2,3,0,22,70,-34,3
4.889570,-2,0,1,-3,-39,47,-8,12,3
4.890469,-3,4,2,-3,27,-15,44,-3,3
4.890492,-5,-1,1,9,-8,27,11,10,3
4.912906,33,7,4,5,24,33,-22,10,3
4.912928,-22,-6,-6,-25,-116,39,72,10,3
4.914739,-3,-1,-6,2,-31,110,52,45,3
4.914749,-10,-7,-5,-2,-60,8,-53,5,3
4.926470,-23,-9,-4,9,-74,-31,-76,16,3
4.926491,-9,0,2,8,17,59,32,43,3
4.934724,38,0,0,4,11,-35,6,4,3
4.934754,-12,5,2,3,-20,36,-5,-13,3
4.949618,3,5,1,-7,-1,26,0,-13,3
4.949664,2,-2,-1,7,-11,-27,-18,-18,3
4.950357,-18,-5,-2,-1,16,-11,-4,-31,3
4.950380,-14,0,1,-1,-14,-29,8,-13,3
4.972883,1,-4,-2,-4,38,4,7,-16,3
4.972907,-20,-2,-1,8,12,-16,23,13,3
4.974111,12,-3,-4,-5,0,-15,42,-39,3
4.974117,-2,-2,2,1,-103,77,60,29,3
4.986518,-7,-2,-1,-21,-12,-13,-10,50,3
4.986549,-6,-4,-2,19,66,21,12,-5,3
4.994786,-1,3,5,4,70,-9,37,-9,3
4.996661,10,7,4,19,-45,-37,38,-5,3
7.011291,9,0,-1,-3,-1,-1,-3,-1,0
7.011506,1,-3,0,0,0,1,0,-1,0
7.020950,1,14,0,-2,-1,0,0,-2,0
7.020954,3,-16,0,-2,0,0,0,1,0
7.035715,-4,-3,-1,-2,1,-2,-1,0,0
7.035742,4,-4,-2,-3,-1,-1,-1,-1,0
7.037779,-6,5,-1,-1,-2,1,-2,0,0
7.037785,-41,-9,-1,-1,-1,0,-2,-2,0
7.065380,18,12,-1,0,-2,-1,-1,0,0
7.065408,4,-6,1,-2,0,-1,-3,2,0
7.066784,-11,6,-2,0,0,0,1,0,0
7.066792,-32,-28,-2,-3,-2,-2,-2,-2,0
7.080589,11,11,0,0,-1,-3,-2,-4,0
7.080624,-15,-3,-2,0,0,-3,0,-3,0
7.083662,14,8,0,2,0,-2,0,2,0
7.083670,13,9,0,0,-2,1,-1,2,0
7.095267,-4,3,-2,-1,0,0,0,-1,0
7.095290,6,-23,-5,-2,-2,-1,-1,-1,0
7.096658,-4,-10,0,-1,-1,-1,0,-2,0
7.096670,7,4,-1,-2,-1,-1,-1,1,0
7.119921,2,-4,0,0,0,1,-1,-1,0
7.119926,0,11,0,0,-1,-1,0,-2,0
7.119928,-2,4,-2,-1,0,0,-1,1,0
7.119930,6,-6,-2,0,0,-1,-1,2,0
7.140377,5,-5,0,0,-1,-1,-2,0,0
7.140401,-7,8,-1,-2,-2,0,-2,0,0
7.141972,0,-5,-1,-1,-2,-2,-1,-3,0
7.141997,4,8,-1,0,-2,-2,-1,1,0
7.154629,0,-15,-3,-2,-2,-1,0,-3,0
7.154654,13,5,-1,-1,-1,-1,0,-3,0
7.161898,2,-9,0,-1,0,0,-1,-1,0
7.161917,-15,-4,1,-1,0,-1,-1,0,0
7.178382,2,21,0,-1,-2,-1,-1,-3,0
7.178421,-18,-35,-4,0,-2,-1,-1,-1,0
7.180530,4,8,0,1,-2,-1,-1,-1,0
7.180540,14,4,0,-3,-3,0,1,1,0
7.200672,-10,-3,0,-1,1,-1,0,0,0
7.200705,13,27,1,-1,-1,0,0,-1,0
7.202022,-7,-17,1,-2,-1,-2,-1,-2,0
7.202049,19,2,-3,-3,-2,-2,-2,-2,0
7.214751,-1,-14,-3,-1,-2,-2,-1,-3,0
7.214780,-2,3,2,-1,-2,-2,-3,-3,0
7.221491,3,5,0,-1,1,-1,-1,0,0
7.221513,10,8,-1,1,-1,0,0,0,0
7.237830,4,-6,0,-1,-1,-1,0,0,0
7.237854,4,-2,0,-1,0,-2,-1,-2,0
7.239935,-8,-2,-2,-1,-2,-1,-1,-2,0
7.239945,-3,-5,-1,0,0,-1,-1,-4,0
7.260357,-2,20,-1,-1,-1,-2,-1,2,0
7.260370,13,-32,-2,0,0,-1,-1,1,0
7.261697,-26,4,-4,-1,-2,1,-4,-5,0
7.261710,9,-8,-2,-1,-1,-4,-4,-2,0
7.274688,-3,1,-2,-1,-2,1,2,0,0
7.274694,-13,11,0,-1,0,0,1,0,0
7.281534,2,-3,-1,0,-1,-2,-1,0,0
7.281557,4,-4,-2,-1,-1,1,-1,0,0
7.297975,-2,14,-1,0,-2,-2,-2,-1,0
7.298007,-1,-2,-3,-3,-2,-1,-2,0,0
7.299844,6,-3,-1,-2,0,0,0,0,0
7.299850,-12,-4,0,-1,-1,-1,0,-1,0
7.320897,1,-2,-1,-1,0,-2,-1,0,0
7.320908,-3,4,0,1,0,1,0,2,0
7.321765,0,11,0,-3,0,-1,-2,0,0
7.321800,-7,1,0,-2,0,2,1,-3,0
7.336641,2,-16,-2,-2,-2,-1,-1,-2,0
7.336646,0,8,-1,-1,-2,-2,-1,-4,0
7.341476,4,-5,-1,-1,-1,-1,-1,-1,0
7.341497,-6,2,-1,-2,-1,-1,-1,0,0
7.358015,3,-19,-1,-1,-1,-2,-2,-1,0
7.358039,-8,1,-1,-2,-2,-2,-2,1,0
7.360270,11,2,1,0,0,-1,1,0,0
7.360275,2,0,0,0,-1,0,0,-1,0
7.380240,8,6,-1,1,-1,0,1,-1,0
7.380261,22,-3,-2,-2,0,1,-2,1,0
7.382447,-13,-8,-4,-2,-2,-1,-2,-2,0
7.382460,10,5,-1,-2,-3,-2,-2,0,0
7.394741,-14,2,-2,0,-2,1,-2,1,0
7.394769,-5,-9,1,-1,-1,-1,0,-1,0
7.401768,-1,-4,0,1,0,-1,1,1,0
7.401815,4,16,-1,-1,0,-3,-1,0,0
7.418203,4,-7,-3,-2,-2,-2,-4,-2,0
7.418306,-12,5,-2,-3,-1,-2,0,-4,0
7.419475,-7,-1,0,-1,-3,0,-1,-1,0
7.419497,-21,-8,-1,0,-1,-1,-1,-1,0
7.440465,8,2,0,-1,-1,1,-1,-2,0
7.440490,-7,3,-1,0,0,0,-2,0,0
7.442858,9,-5,-1,-1,-2,1,-1,-3,0
7.442863,7,-1,-2,-1,0,-2,2,-2,0
7.454650,-7,-4,0,-2,-1,0,0,0,0
7.454672,0,-1,0,-3,-1,0,-2,-3,0
7.463009,-1,21,0,-1,-2,-2,-1,-1,0
7.463014,-1,-39,-2,-1,0,0,-1,-1,0
7.478319,-4,6,-3,-1,0,0,0,-2,0
7.478326,3,1,-1,0,-1,-1,0,-3,0
7.479133,-2,5,1,-1,-1,-1,-2,1,0
7.479139,4,6,1,1,0,0,0,0,0
7.500377,-14,-7,-2,-1,-2,-1,-5,-3,0
7.500401,7,2,1,-2,-1,-2,-2,-1,0
7.502132,-19,-8,-2,-3,0,1,0,-1,0
7.502140,5,7,-1,0,-2,-1,-1,0,0
7.515033,0,-9,0,-2,0,-1,2,2,0
7.515169,-10,2,-3,0,-2,-2,-2,-3,0
7.521413,3,-8,-2,-1,-1,-1,0,0,0
7.521430,-1,4,-1,-2,-1,-1,-2,-1,0
7.539260,-2,1,-2,-2,-1,-3,-2,-3,0
7.539264,-10,-6,-2,-2,-1,0,1,-2,0
7.539309,10,0,-2,0,-1,-2,-1,0,0
7.539330,4,6,-1,-1,-1,0,0,-2,0
7.560191,-14,-12,-3,-2,0,-1,1,-2,0
7.560207,-4,-1,-2,-1,-2,-1,-1,-2,0
7.561723,1,-4,-2,-2,-1,-1,-1,-3,0
7.561770,-3,4,0,0,0,-1,-1,-2,0
7.573909,-6,-2,1,-1,0,0,-1,-1,0
7.573925,4,1,-2,0,-3,-2,-1,-1,0
7.584283,-25,-6,-1,0,0,0,-1,-2,0
7.584297,2,1,0,-2,-3,0,-1,-2,0
7.598387,7,0,2,1,1,1,-2,-2,0
7.598424,-5,-1,1,0,-1,-1,-1,-1,0
7.601172,8,8,-2,0,-2,-2,0,0,0
7.601183,-8,-6,0,-3,-1,-2,-2,-3,0
7.620307,4,-3,0,-3,-3,-4,0,0,0
7.620330,5,-2,0,-1,-3,0,0,-1,0
7.621732,-6,18,1,1,-1,-1,-2,-3,0
7.621746,2,0,-2,0,-2,-1,0,-1,0
7.634023,-13,-6,1,-1,-2,-1,-1,-3,0
7.634044,0,4,0,0,1,-3,-2,-1,0
7.643980,6,-5,-1,-2,-2,-1,0,-1,0
7.643984,-8,0,-1,0,-2,-1,0,-1,0
7.657939,4,2,-2,0,0,-1,-1,-3,0
7.660203,3,-3,-2,0,-1,0,0,1,0
7.660209,1,-7,-2,-1,-1,0,0,1,0
7.660211,0,-2,0,-1,-1,-1,-2,-2,0
7.680719,3,0,-2,0,-1,-2,0,0,0
7.680732,-10,0,-1,-1,-2,-2,-1,0,0
7.681983,6,-6,1,-1,0,0,0,0,0
7.682002,4,1,-3,-2,0,-2,-1,0,0
7.694360,2,2,-1,-1,1,-2,-1,0,0
7.694388,-7,-3,-1,-2,0,-2,0,-3,0
7.703643,2,-4,-2,-1,-1,0,-2,-1,0
7.703649,2,1,-1,0,-1,1,0,0,0
7.718045,8,-1,1,-1,1,0,1,-1,0
7.718104,1,0,-2,0,-3,0,-1,-3,0
7.720393,-1,2,-1,1,-1,-3,-1,-1,0
7.720400,-5,-9,-2,-2,0,-2,0,0,0
7.740374,7,3,0,-2,-1,-2,-3,-1,0
7.740397,-6,-1,1,0,0,0,0,2,0
7.742901,-2,-6,-3,-4,-2,-1,-2,-3,0
7.742911,0,3,-1,0,-1,-2,-2,1,0
7.753932,-2,-1,-1,-2,-2,-1,-1,1,0
7.753950,-8,-1,0,-1,0,-3,-2,-1,0
7.765424,23,2,-1,-1,0,-2,-1,-1,0
7.765434,-9,-4,-2,0,-1,0,-3,-2,0
7.777741,1,-2,-2,0,-3,1,0,1,0
7.777763,0,1,0,-3,-1,-1,0,-3,0
7.779313,-10,3,-1,-1,-2,0,0,1,0
7.781395,1,-5,0,-1,0,-2,-2,1,0
7.800430,-1,3,-2,-1,0,0,-1,-1,0
7.800479,1,-2,-2,-1,-1,-1,-1,2,0
7.802340,-4,-4,-1,0,-1,-1,0,1,0
7.802349,1,3,0,-2,-2,0,-1,-1,0
7.813964,-5,-1,-2,-1,-1,-2,-1,2,0
7.813985,0,-3,-1,0,0,-1,0,-2,0
7.823742,5,-3,-1,-1,1,-2,-1,1,0
7.823749,7,4,0,-1,-1,-2,-1,-4,0
7.838357,6,-3,0,-1,0,1,1,1,0
7.838365,-35,-8,-3,-3,-2,0,-3,-2,0
7.839307,10,-1,-1,-1,-2,-1,-2,1,0
7.839313,-5,3,-1,-2,0,-2,-1,2,0
7.860206,4,-1,-1,0,-2,-2,-1,-2,0
7.860228,5,0,-1,-1,-1,0,1,-1,0
7.862635,-7,-4,-1,-1,-2,-1,-1,-1,0
7.862638,-1,-1,-2,0,0,0,-2,1,0
7.874179,-5,0,-1,-3,-2,0,-2,-1,0
7.874208,10,-3,-1,0,-3,-2,0,-1,0
7.883705,-14,-2,1,1,-1,0,-2,-3,0
7.883709,0,-6,-2,-1,-3,-2,-2,-2,0
7.900037,-6,-1,-2,3,-1,0,-1,3,0
7.900044,9,1,-2,-1,-2,0,-1,1,0
7.900047,3,1,1,-2,0,-1,-1,1,0
7.900048,-4,0,0,-1,-2,-2,0,-1,0
7.920352,-8,3,-2,-3,-1,0,-2,-3,0
7.920370,3,-8,-2,-2,-1,-1,0,0,0
7.923065,-1,0,-1,0,-1,-1,-1,0,0
7.923070,1,1,-1,-1,0,-1,0,-1,0
7.934194,-9,-3,0,-2,1,0,-2,1,0
7.934235,6,5,2,-2,-2,-1,-3,-2,0
7.945338,-2,-3,-1,-2,-2,0,-1,-3,0
7.945342,-2,-2,-3,-2,0,-1,0,-2,0
7.957848,6,1,0,-1,-2,0,-2,0,0
7.957865,-5,-1,-1,-1,1,0,-1,0,0
7.960047,0,1,0,-1,-1,-3,0,-2,0
7.960052,-12,-2,0,-1,-3,0,0,-1,0
7.980366,0,-2,-2,-2,-2,-2,-2,-4,0
7.980395,4,1,-1,-1,1,1,-1,-1,0
7.981962,-2,-2,-2,-2,-1,-2,1,-1,0
7.981983,-2,1,0,0,0,2,0,1,0
8.002845,2,1,-1,-1,-1,-1,1,-2,0
8.002864,-6,-4,-2,-2,-1,-1,-2,-1,0
8.004284,6,0,0,-2,-1,-1,-2,-2,0
8.004318,3,1,-1,-2,-3,-2,0,-3,0
8.018212,-4,-5,0,1,0,0,0,0,0
8.018346,1,3,0,0,-2,0,-2,-3,0
8.019647,-2,-2,-2,-2,0,0,-3,1,0
8.019652,2,-4,0,0,1,0,-3,0,0
8.040367,-5,1,-1,0,-1,-2,-1,-4,0
8.040389,-3,-2,0,-1,0,-3,0,0,0
8.041728,-3,-1,-1,-1,-1,-1,0,1,0
8.043636,-1,-1,-1,-1,-1,-1,-2,-1,0
8.063120,9,-1,-2,-3,-2,-3,-1,-2,0
8.063141,8,2,0,-2,-1,-2,0,-1,0
8.066046,-34,-8,-3,-1,-1,-2,-1,0,0
8.066054,4,1,-1,-1,-2,-2,0,-1,0
8.077729,6,3,-1,0,1,0,-1,1,0
8.077751,-34,-10,-4,0,-1,-1,-3,-4,0
8.079202,8,4,-1,1,-2,-1,0,0,0
8.079238,3,-1,0,0,-1,0,-2,-2,0
8.100229,-10,-2,0,-1,0,-1,0,-2,0
8.100238,10,3,1,0,0,-1,0,0,0
8.101898,6,-1,-1,-1,0,1,-1,0,0
8.101970,-6,-2,-2,-3,0,-1,1,-1,0
8.122879,9,1,0,0,-2,-2,-1,0,0
8.122895,6,5,-1,-2,-1,-1,-1,-2,0
8.125383,3,-4,-1,0,-1,-1,-2,-2,0
8.125389,3,-1,0,0,-1,-1,-1,-2,0
8.137858,4,0,-1,-3,-1,-1,-1,0,0
8.137884,-3,0,-1,-1,-4,-4,-3,0,0
8.140118,1,4,0,-1,-1,-1,1,1,0
8.140123,-7,-4,-1,0,0,1,-2,1,0
8.160680,-5,-2,-1,0,0,-2,-1,-2,0
8.160709,2,1,-1,1,-2,0,-1,0,0
8.163142,2,-1,0,-2,-1,-1,-1,-2,0
8.163146,-3,0,-1,-3,-1,-2,-1,0,0
8.182875,-3,-3,-1,-2,-1,-2,-1,-2,0
8.182900,10,0,0,-1,-2,1,0,1,0
8.184712,-30,-3,-2,-1,-1,-2,-4,-5,0
8.184750,2,-2,-2,-3,-2,-1,-1,0,0
8.197253,-8,-1,0,0,-2,0,-1,1,0
8.197297,10,0,-2,-1,-1,-4,-1,-2,0
8.204160,4,5,0,1,-1,0,0,0,0
8.204182,-3,0,0,-1,0,0,0,-1,0
8.220351,-6,-2,-1,-2,-2,0,-1,1,0
8.220377,-1,1,-1,-1,-1,0,-2,0,0
8.221752,17,0,-1,-2,-1,0,-1,0,0
8.221760,-11,-6,-1,-2,-2,-2,-1,2,0
8.243161,6,-2,0,0,0,-1,-1,0,0
8.243178,-5,0,0,-2,0,1,-2,-1,0
8.244168,6,-1,-1,-1,-2,0,-2,1,0
8.244174,3,-1,0,-1,-2,-3,-1,-1,0
8.257198,-1,0,-2,-1,-2,-1,-1,0,0
8.257203,-1,2,1,-1,0,0,1,-2,0
8.264215,-7,-8,-4,-2,-1,-2,-3,-2,0
8.264238,12,5,1,0,-1,-1,-1,-1,0
8.280796,-26,-8,-4,-1,-2,-3,-3,-6,0
8.283024,5,-1,0,-1,-1,-2,-1,-1,0
8.283029,0,0,1,-1,0,1,3,0,0
8.283031,-2,1,0,0,-1,0,-2,2,0
8.304254,18,3,0,-2,0,1,0,0,0
8.304259,-5,-4,-4,-2,0,0,0,0,0
8.304262,4,1,0,-1,-1,-1,-1,-4,0
8.304264,-6,-2,-2,-2,0,-1,-1,-1,0
8.317191,3,1,0,-1,-1,1,0,-1,0
8.317226,-7,-2,-3,-1,0,-1,-2,0,0
8.324694,0,-2,-2,-1,-1,-1,-2,-4,0
8.324714,-5,-1,0,-1,-2,-1,-1,-1,0
8.340582,15,3,0,-1,1,0,-1,-2,0
8.340611,-6,-4,-1,-2,-2,-2,1,-1,0
8.343609,-3,1,-2,0,-1,-1,0,1,0
8.343614,6,0,-2,0,-3,-1,-2,1,0
8.363200,-6,-2,-1,-2,-2,-2,0,-2,0
8.363222,5,-1,-1,0,-1,0,-1,2,0
8.365722,-2,2,2,0,0,-1,0,-1,0
8.365726,-4,-3,-2,0,-1,-1,-2,-3,0
8.377059,0,-4,-2,-1,-1,-1,0,0,0
8.377075,-4,0,0,1,-1,-1,-1,-1,0
8.384216,-1,-1,-1,-2,-3,-1,1,-1,0
8.384240,0,1,-1,-3,0,-1,0,0,0
8.400299,-5,-2,0,0,-2,-2,-1,-3,0
8.400327,-9,-1,0,-2,1,-1,0,-4,0
8.402261,-1,-3,-1,-1,0,0,-2,-1,0
8.402299,4,2,-1,-1,-1,-1,1,-1,0
8.423052,-1,-3,-1,-2,-1,1,-2,1,0
8.425503,0,-1,-1,-1,-3,0,-1,0,0
8.425508,2,-1,-2,-1,0,-1,0,1,0
8.425510,-8,-1,0,-2,-1,-3,-1,-2,0
8.436599,3,-1,-2,-2,0,-1,-1,-2,0
8.436624,-3,1,-3,0,-2,-1,-1,-1,0
8.445657,0,-3,-1,-1,-1,-1,-3,-3,0
8.445661,-1,-2,-1,0,-2,-2,-1,-1,0
8.460171,4,1,0,1,-1,-3,0,-3,0
8.460178,0,-3,0,-2,-1,-2,1,-1,0
8.461683,-6,1,-2,0,0,-1,-1,-1,0
8.461689,-2,1,-1,0,-1,0,-1,-2,0
8.482840,1,-5,-2,0,0,1,0,-2,0
8.482867,7,3,0,-1,0,0,-3,1,0
8.485051,3,-3,-1,-1,0,0,-1,-1,0
8.485058,2,-3,-1,-1,-2,0,-2,0,0
8.496395,-3,-1,-2,-1,0,-2,0,1,0
8.496415,0,0,-1,-1,-1,1,-2,-3,0
8.505392,0,0,0,-2,-2,0,-1,0,0
8.505407,-2,0,-2,-2,0,0,-2,-1,0
8.521546,-7,0,-2,-2,-1,-1,-1,0,0
8.521592,0,0,-1,-2,-3,-1,-2,1,0
8.521687,-3,-2,0,0,-2,-1,-2,-1,0
8.521754,0,-1,-1,-2,-1,-2,-2,-1,0
8.542989,-5,-1,0,-1,-2,-2,-2,-1,0
8.543013,-3,-1,0,-1,0,-1,-1,-1,0
8.544998,1,1,-1,-1,-1,-1,-1,-1,0
8.545001,-2,1,-2,-1,-1,1,0,1,0
8.556951,-3,-2,-2,-2,-2,0,-3,1,0
8.556980,-7,-2,-1,-1,-1,-2,-1,-2,0
8.567370,16,2,0,-1,-1,-1,-1,0,0
8.567376,-2,0,-1,-2,0,-1,0,-4,0
8.580823,0,0,-1,-2,-1,-1,-1,-2,0
8.580868,-2,-2,2,-1,-3,-2,0,0,0
8.583288,-4,-1,-2,-3,-1,-1,-1,2,0
8.583294,5,0,1,-2,-2,-3,-1,0,0
8.602861,-1,-1,-2,-2,-3,0,-1,-1,0
8.602890,1,-1,-1,-2,0,-1,-1,1,0
8.605240,-1,-3,-1,0,-1,-2,1,0,0
8.605244,-3,-2,0,0,0,-1,-1,-1,0
8.616450,-5,0,1,1,-2,-1,-2,1,0
8.616459,3,0,0,0,-1,-1,-2,-1,0
8.627353,-5,1,0,-2,-2,0,0,1,0
8.627358,0,-5,-2,-1,0,0,0,-1,0
8.640644,-21,-1,0,-1,1,-1,-1,0,0
8.640666,5,-1,-2,-1,-1,0,1,-1,0
8.643163,-7,-2,0,-3,-1,-2,-1,-1,0
8.643168,-4,-2,-1,0,0,-1,-1,0,0
8.662904,6,-1,-1,-2,-1,0,-2,-3,0
8.662918,-2,-4,-3,-2,-1,-1,-2,-1,0
8.664556,-4,-2,-1,-1,-1,-2,-1,-2,0
8.664656,1,-1,-3,1,1,0,-2,0,0
8.678181,2,-1,0,-1,-1,-3,0,-1,0
8.678185,-4,-1,-1,0,0,-3,-1,-2,0
8.686890,4,-1,-1,0,-2,-1,-1,-2,0
8.686898,-2,1,-1,-2,-2,-2,0,-1,0
8.700322,1,1,-1,0,-2,-1,-2,3,0
8.700344,-3,-1,0,-2,-1,1,-1,-2,0
8.702828,-2,-2,-1,-1,0,-1,0,0,0
8.702835,-3,-1,-1,-2,0,0,-1,2,0
8.724282,2,-1,0,-2,-1,-2,-2,-2,0
8.724288,1,-3,-2,-2,-2,-2,-1,0,0
8.724384,0,0,0,0,-1,-1,-3,1,0
8.724468,-4,1,1,0,-3,-1,-1,-3,0
8.736537,5,0,-1,1,-1,-1,1,-2,0
8.736563,-4,0,1,-2,-2,-2,-2,-2,0
8.746308,-6,-3,-1,-3,0,-1,-1,-3,0
8.746315,6,0,-1,-1,-2,-1,-1,-3,0
8.760217,-3,-1,-3,-3,1,-1,-1,0,0
8.760234,-2,-2,-1,0,-2,-1,0,1,0
8.761886,-1,-1,0,0,-1,-1,-1,-2,0
8.761891,5,1,1,-1,0,-2,-1,1,0
8.782807,-5,-1,0,-1,-1,0,0,-2,0
8.782825,-1,-1,-2,-2,-1,-1,0,0,0
8.784650,-4,-1,-2,-2,-1,-2,-1,-1,0
8.784780,7,2,-1,-1,0,0,-2,-1,0
8.796672,1,-2,-1,0,-1,-1,1,-1,0
8.798988,1,0,-1,-1,1,-1,-1,-2,0
8.805755,-2,-2,-1,-1,-1,-1,-1,-2,0
8.805763,-7,-3,-2,0,0,-1,-1,-1,0
8.820292,2,1,2,-1,-2,-1,0,1,0
8.820304,5,-1,-1,0,-2,0,0,-3,0
8.821720,1,1,0,-1,0,2,-1,1,0
8.821734,-1,-3,-2,-1,-2,-1,0,-2,0
8.842900,0,0,0,2,0,-2,-1,-2,0
8.842920,-3,-1,-3,-2,0,1,-1,0,0
8.844769,-1,0,0,1,-2,-2,-1,-1,0
8.844776,1,-1,-2,-2,-1,-1,-1,-1,0
8.856901,-2,0,0,-3,-1,-2,-2,-2,0
8.856923,-1,-2,-2,-1,-1,-1,0,-3,0
8.866728,3,-1,-2,-1,-1,-1,1,-1,0
8.866732,-7,-2,0,-1,-1,-1,-1,-2,0
8.880398,2,0,-1,-1,-1,-2,-1,3,0
8.880423,-2,0,-1,0,-1,-1,-1,-1,0
8.882881,-1,-2,0,0,-1,0,-1,-1,0
8.882888,-1,-1,0,1,0,0,-1,1,0
8.903199,-1,-2,-2,-1,-1,1,-1,-2,0
8.903230,-1,-1,-1,-1,-2,0,-1,-1,0
8.904246,-2,0,-2,-2,-2,-1,-2,1,0
8.904263,9,0,-1,-3,-1,-2,-2,-3,0
8.916497,-3,-1,-3,0,-1,0,-1,2,0
8.916516,6,0,0,0,0,-3,1,2,0
8.928025,-8,-1,0,1,0,-3,-3,-2,0
8.928029,-2,-1,-1,-3,-2,0,1,0,0
8.939891,3,0,-1,-1,-3,0,-3,-1,0
8.939922,2,-1,1,-2,-3,-1,-1,1,0
8.946526,1,0,-1,-2,-1,-1,-1,0,0
8.946547,-4,0,-1,-2,0,-2,0,3,0
8.962852,1,-1,-3,1,0,-2,0,-3,0
8.962869,-8,-1,-1,0,-2,-1,-1,-1,0
8.964506,0,0,-1,-3,0,-2,-1,-1,0
8.964535,-5,-2,0,0,-1,-1,-1,-2,0
8.985767,0,-1,-1,-3,-2,1,-1,-1,0
8.985801,0,-2,0,0,1,-2,-1,-3,0
8.987685,-12,-5,-3,-2,-2,0,0,1,0
8.987694,-2,1,-1,0,1,0,1,0,0
9.000365,4,0,-1,-1,0,-2,1,-1,0
9.000389,4,2,-1,-2,-3,0,-2,-2,0
9.002304,1,1,-1,0,-1,-1,-1,-1,0
9.002311,-4,-2,-1,-1,0,-1,-1,-1,0
9.023366,-5,-1,0,0,-2,-2,-2,1,0
9.023467,-3,-2,0,-1,-2,-1,-3,0,0
9.024209,4,-2,-1,0,-2,0,-1,-1,0
9.024222,-2,-2,0,0,-3,1,-2,-1,0
9.045372,1,1,-1,-1,-1,-1,-1,-2,0
9.045388,-3,0,-2,-2,0,-2,-1,0,0
9.047308,-2,-2,-2,-2,-3,-1,-3,-2,0
9.047320,0,-1,-1,-1,0,-1,0,1,0
9.060256,1,-1,-1,0,-2,-1,1,0,0
9.060271,0,0,0,-1,-1,-3,-1,-3,0
9.061759,-9,-2,-1,-2,0,0,0,-2,0
9.061765,0,0,-2,0,-3,-1,0,-1,0
9.082781,-3,-1,0,-1,0,-3,-2,-2,0
9.082805,2,0,-1,0,0,0,-1,-3,0
9.085511,3,0,-2,1,0,0,-1,0,0
9.085518,0,1,1,-1,-1,0,-3,-4,0
9.105252,-4,-3,1,-3,1,-2,-2,2,0
9.105277,-3,-1,-2,-1,-1,0,-1,0,0
9.106698,7,3,1,0,0,-1,0,-2,0
9.106710,-3,-3,-2,-1,-1,0,-2,1,0
9.119559,-1,-2,-1,0,-2,-2,-1,0,0
9.119577,-5,-2,-1,0,-1,0,0,-2,0
9.126543,1,-3,0,-2,-2,0,-1,0,0
9.126558,0,2,1,-1,-1,-2,-1,-2,0
9.142868,-1,-1,-2,-1,-2,-1,-2,-4,0
9.142888,0,-1,-2,0,-1,1,0,-1,0
9.144286,1,0,0,0,-1,-2,11,-1,0
9.144293,-3,-2,-1,-1,-1,-5,-26,-1,0
9.166326,-2,1,-1,-2,-1,-1,5,1,0
9.166331,-3,0,-2,-2,-2,-1,-1,0,0
9.166805,0,-1,0,-2,-1,-1,-6,-3,0
9.166811,-1,-2,-3,-2,-1,1,7,-1,0
9.182207,0,-1,-1,-1,-1,1,-1,-2,0
9.182213,-1,1,-1,1,-1,-1,-2,-2,0
9.186469,-2,-1,0,-1,1,1,4,2,0
9.186493,1,-1,-1,0,-2,-1,3,1,0
9.202779,-1,-2,-1,-1,-1,-1,-2,-2,0
9.202804,0,-1,-1,0,-2,-1,1,0,0
9.204550,-2,-1,-1,-1,-2,-1,-5,-1,0
9.204553,-2,-1,-1,-1,0,-2,2,0,0
9.226324,-4,-2,-1,-2,-2,-2,-2,2,0
9.226328,-14,-3,1,-1,0,-1,-3,0,0
9.226659,0,-2,-3,-1,-2,-1,-2,1,0
9.226665,3,0,-2,-1,-2,0,0,-1,0
9.240853,-2,-2,-1,-2,0,2,2,-1,0
9.240860,1,-3,-2,-2,-1,-2,-2,0,0
9.246492,-2,0,-1,-2,-1,0,-3,-1,0
9.246569,-2,-1,-1,-1,-1,-1,4,0,0
9.263149,-1,-1,-2,-1,-1,-1,-1,-2,0
9.263172,3,1,-2,-1,0,0,-2,0,0
9.265305,-2,0,-3,-1,0,-3,0,0,0
9.265311,1,-1,-1,-1,-1,-2,1,-1,0
9.285776,-1,0,-2,0,-1,0,-1,-2,0
9.285826,3,-2,-1,-2,-1,0,-3,-1,0
9.287791,1,0,0,0,-2,-1,-1,0,0
9.287796,-3,1,-1,-1,-1,0,1,-1,0
9.299803,-1,-2,-1,0,-2,-1,-2,-1,0
9.299829,6,1,-2,-3,-2,-2,0,-1,0
9.306810,-8,-3,0,-1,-1,-2,-4,-1,0
9.306838,1,-2,0,0,-1,-1,-1,-1,0
9.322883,2,2,-1,0,0,0,-1,1,0
9.322903,-4,-1,0,0,0,-1,0,-1,0
9.324375,-1,-1,-2,0,-2,-1,0,0,0
9.324738,0,0,0,-1,0,-2,0,2,0
9.345219,-1,-3,-2,-3,-2,-2,-3,1,0
9.345243,-1,1,1,-1,0,0,3,0,0
9.346716,1,-1,-1,-1,-2,1,-2,-2,0
9.346728,-1,-2,-2,-2,-1,1,1,-1,0
9.359589,1,0,-1,0,-2,-2,-2,-1,0
9.359606,-6,1,0,-1,0,-2,-3,-1,0
9.366487,8,0,-1,-1,-2,-1,-1,1,0
9.366508,0,-4,-2,-2,0,0,-1,-2,0
9.383793,4,-1,-1,-3,-1,-2,-1,-3,0
9.383797,-3,-1,-1,-2,-1,-1,-3,0,0
9.384501,-1,1,-1,-1,-1,-1,-1,0,0
9.384527,-2,-2,-1,-1,-2,-2,-1,-2,0
9.405379,-1,-1,-1,-3,0,-2,1,-2,0
9.405402,-1,-1,1,0,0,-1,-1,0,0
9.406808,-3,-1,-2,-1,0,0,-1,-3,0
9.406820,-2,-3,-1,-3,0,-1,-1,-2,0
9.419641,0,-3,-3,-1,-2,3,-1,-1,0
9.419658,0,0,-1,0,-3,-4,0,-2,0
9.426384,-2,-1,0,-1,-1,0,-2,-1,0
9.426401,-1,0,0,0,-2,-3,1,-3,0
9.444432,-2,-1,0,0,0,-1,-1,-2,0
9.444439,-3,-3,-1,-1,-1,0,-2,-2,0
9.444445,-1,0,-1,-1,-1,-1,0,0,0
9.444449,0,2,-3,0,-3,0,0,0,0
9.465581,0,-2,-1,0,-1,-3,-1,-2,0
9.465607,-2,-1,0,-2,-3,1,0,0,0
9.467090,-2,0,0,-1,-2,-2,-1,-2,0
9.467096,-2,-1,1,0,0,1,-2,0,0
9.479050,-1,-2,0,-1,-1,0,-3,1,0
9.479070,1,-3,-1,-1,-1,-2,-1,-5,0
9.488535,-1,-1,-2,0,-1,-1,0,-2,0
9.488541,0,1,-1,1,-1,-3,0,0,0
9.502929,-2,0,-2,-2,0,-3,-1,-3,0
9.502946,-1,0,0,0,-1,0,-2,-2,0
9.504885,0,-1,-1,-1,-2,0,0,-2,0
9.504890,-4,-1,0,-2,0,-3,-1,-2,0
9.525281,-4,-2,0,0,-2,-1,-1,1,0
9.525356,1,1,-2,1,0,-2,0,-1,0
9.526832,-4,-2,-1,-1,0,-2,-1,-2,0
9.526923,4,-1,-1,-1,-1,0,-1,0,0
9.539653,1,1,-2,-2,-1,0,-1,-3,0
9.539658,-1,-3,-2,-2,-2,-2,0,-1,0
9.550050,-3,0,-1,-2,-2,-2,-1,-1,0
9.550056,-4,-2,-1,-2,-1,-2,-2,-1,0
9.562851,0,-1,-1,0,0,-2,-2,-1,0
9.562872,2,0,-2,1,0,-1,-2,0,0
9.565358,0,0,-1,-1,-2,-1,-1,-1,0
9.565365,2,0,-2,-1,-2,-1,-1,0,0
9.586978,0,-1,-2,-1,-2,0,0,0,0
9.586984,0,-2,1,-1,-1,1,1,1,0
9.586986,-1,-2,0,0,0,-3,-2,-1,0
9.586987,-1,-1,0,-1,0,1,0,-1,0
9.599016,-3,-1,0,-1,-3,-1,0,1,0
9.599038,-2,0,-1,-2,-1,1,-1,-1,0
9.610196,-3,-2,0,0,-1,0,-2,1,0
9.610201,-4,-2,-3,-1,-1,-2,0,-2,0
9.622824,3,-1,1,-2,1,-1,-4,-2,0
9.622846,1,-2,0,-1,-2,-2,-2,-1,0
9.624426,-2,0,-1,-1,-2,0,-2,0,0
9.624447,-3,0,-1,-1,-2,0,-1,1,0
9.645433,-2,0,-1,-1,-2,-1,0,-1,0
9.645453,-2,-1,-2,0,-2,1,-1,0,0
9.647036,1,-2,-1,-2,-1,-2,1,-2,0
9.647054,-2,-2,1,-2,0,-2,-3,-2,0
9.658937,-2,-1,-1,-2,-2,-1,1,0,0
9.660380,-1,0,-1,-2,-1,-1,-1,-1,0
9.669411,1,-2,-4,0,0,-1,1,-2,0
9.669416,-1,-2,1,0,-4,-3,-3,1,0
9.682845,-7,-1,0,-1,1,0,-1,3,0
9.682868,7,-1,0,1,0,-1,-1,-3,0
9.684701,-1,0,-1,-3,1,0,-1,-1,0
9.684734,-1,1,0,-2,0,0,0,0,0
9.705405,-3,-1,-2,0,-1,-1,-1,-1,0
9.705422,-3,0,0,-1,-1,-1,-1,1,0
9.706856,0,-1,-1,-1,-2,-1,-1,1,0
9.706888,5,-1,-4,0,-1,-2,0,-2,0
9.719104,-4,-2,-2,0,0,-1,-1,0,0
9.719124,1,0,-1,-4,-1,-1,-1,0,0
9.727768,-4,-3,0,-1,-2,0,0,-1,0
9.727801,-2,-1,-1,-1,0,0,-1,1,0
9.742823,4,2,-2,-1,-2,0,0,-1,0
9.742892,-4,0,-1,0,0,-2,-2,-2,0
9.744262,-1,-2,-2,-1,-1,-1,-1,2,0
9.744268,4,0,0,0,-2,0,-2,-2,0
9.765467,-1,0,-1,-1,-2,0,0,-2,0
9.765487,1,0,0,-1,-2,-1,-1,0,0
9.767067,-2,-2,1,-2,-1,-2,-1,0,0
9.767075,-4,-1,0,-1,-2,-1,0,-3,0
9.779356,-6,-3,-1,-1,-2,-2,-2,-3,0
9.779370,-1,0,-1,-1,-1,0,-1,-2,0
9.789245,2,1,-3,0,-1,0,-1,-1,0
9.789253,3,0,-1,-1,-1,0,1,-2,0
9.802900,-7,-2,-2,-1,-1,1,-1,1,0
9.802949,1,-1,0,-3,1,-1,-1,0,0
9.804714,1,0,0,-1,-1,-2,1,-3,0
9.804718,-3,-1,-1,-1,-2,-3,0,1,0
9.825498,1,-1,0,-1,-1,-2,-3,-2,0
9.825516,-4,-3,-1,-1,-1,1,-3,-2,0
9.827486,2,-1,-3,1,0,-1,-3,-1,0
9.827491,-2,0,-2,-1,-1,0,0,-3,0
9.839005,0,1,0,-1,-1,-2,-2,-3,0
9.839027,-1,0,-3,-1,-1,-1,1,0,0
9.849280,-1,0,-1,-1,-1,-1,0,-3,0
9.849286,-2,-2,-2,-2,-1,-1,-2,0,0
9.863035,1,-2,-1,-2,-2,-1,-3,2,0
9.863067,-2,-1,0,-1,-2,-1,0,-1,0
9.865492,-3,1,-2,-2,-2,-2,0,0,0
9.865499,-3,0,0,-1,0,-3,-1,0,0
9.885629,-2,-1,-1,0,0,0,0,-2,0
9.885662,-4,-3,-2,-2,-2,-2,-1,0,0
9.886774,-1,-2,1,-1,-2,0,0,-2,0
9.886786,-3,-1,-1,0,0,-1,-2,0,0
9.907903,0,-1,-3,-3,-2,-2,-2,-3,0
9.907920,-4,-2,-1,-2,-2,-1,-1,-2,0
9.909467,0,-1,0,2,-2,-1,-1,-1,0
9.909471,0,-1,-2,-2,0,0,-2,-2,0
9.923108,0,-1,2,1,-2,-1,-1,-1,0
9.923133,-1,-1,0,0,1,-2,4,-3,0
9.924507,-2,-2,0,-2,-2,-1,-5,0,0
9.924514,-1,-1,-1,0,-1,0,-2,-1,0
9.945333,1,-2,-3,0,-2,-2,1,-1,0
9.945347,-2,0,-2,-2,-2,-1,-2,-2,0
9.946694,-1,0,0,-1,1,-2,0,1,0
9.946708,-1,-2,-1,-2,-2,-1,5,3,0
9.968230,0,0,1,-3,0,0,-4,-4,0
9.968294,-1,-1,-1,1,-2,-1,0,0,0
9.969888,-2,-1,0,0,-2,0,-1,-2,0
9.969893,-1,0,-1,-2,0,-2,-1,2,0
9.982902,6,0,-2,-1,-2,-1,1,2,0
9.982921,-4,0,-1,-2,0,-1,-2,-1,0
9.984933,0,1,-1,-2,0,-1,-1,-2,0
9.984968,-1,-2,-1,-2,0,0,-2,-2,0
10.005177,-4,-1,-1,1,-2,-2,-1,-1,0
10.005184,0,-1,0,-1,1,-2,-1,0,0
10.006683,-1,-1,-1,-1,-2,0,0,2,0
10.006717,2,1,1,1,-2,0,-3,-1,0
12.031172,14,-2,-5,-15,-25,31,-49,3,3
12.031491,5,19,10,-8,24,46,-39,41,3
12.031495,-21,-1,-3,31,-74,20,-10,-79,3
12.031497,20,-10,-4,-5,55,31,-1,4,3
12.052075,-45,-4,-1,-9,-80,62,-8,-43,3
12.052094,-1,-8,-4,28,-9,-21,-40,-17,3
12.059573,-31,-10,-9,-25,-84,-35,-80,-11,3
12.059596,12,1,-1,-16,-23,4,7,-9,3
12.067108,17,5,9,7,-128,-7,-44,-18,3
12.067130,-1,-1,-1,-16,-44,-38,-64,38,3
12.068511,-46,-6,-5,-45,64,-5,49,0,3
12.068516,3,-1,3,22,-38,2,-65,-21,3
12.089604,16,14,2,-3,33,-7,41,34,3
12.089627,-16,-5,0,-5,-28,-74,1,-11,3
12.091286,33,-1,1,7,-21,73,-26,-4,3
12.091295,-13,-8,-7,-29,-14,5,4,29,3
12.113242,-5,21,-5,13,-71,62,-63,-11,3
12.113302,-27,-13,-2,-29,-77,-39,37,-23,3
12.113664,0,11,9,39,127,59,46,-36,3
12.113692,2,2,1,-18,-47,-6,-42,-38,3
12.127245,-21,-4,-4,1,115,-23,29,8,3
12.127259,66,13,-2,-10,82,86,95,66,3
12.127843,-26,3,5,10,-51,87,-72,-12,3
12.127862,-7,-3,-6,47,40,43,2,-15,3
12.149650,-10,-15,-3,-20,82,-7,16,-1,3
12.149685,-15,-9,2,4,-12,41,37,4,3
12.151775,-6,6,5,41,-33,-55,127,64,3
12.151785,-18,5,-3,-3,120,-41,16,13,3
12.172674,20,-9,0,0,12,-40,70,33,3
12.172691,22,7,0,13,109,7,50,19,3
12.173493,-2,7,-2,-20,-79,-43,-72,8,3
12.173513,-27,-4,1,-9,-61,-26,-23,-58,3
12.187024,-18,1,-3,-4,-58,-43,-12,14,3
12.187031,-9,0,-3,-4,-1,64,4,-8,3
12.187847,41,-1,-4,-15,-40,-2,-15,-10,3
12.187863,-6,-1,0,15,60,74,-54,9,3
12.209588,13,-1,-1,-29,-106,5,66,27,3
12.209606,18,3,1,4,68,-54,-128,-60,3
12.211049,-39,-15,-7,-1,37,49,76,6,3
12.211054,-39,-10,-5,7,-9,-9,-15,14,3
12.233229,-5,-21,-5,-20,-40,56,-11,-30,3
12.233236,-18,2,2,27,-61,-73,-20,-12,3
12.233701,-2,0,4,17,47,69,-52,12,3
12.233750,33,-3,-3,-44,-18,65,36,12,3
12.247285,21,5,6,25,35,-29,-93,-2,3
12.249389,-6,-1,-2,-8,-58,0,39,-20,3
12.249396,16,2,-5,-6,-36,-2,-60,-17,3
12.249398,-18,8,4,-7,-111,18,122,31,3
12.269767,-5,-5,-5,1,87,14,37,-55,3
12.269803,-19,-4,0,53,94,39,62,48,3
12.270258,50,0,0,-15,-39,-14,-41,5,3
12.270327,-11,-1,-2,-8,-4,-56,25,-42,3
12.292862,10,-5,-2,-1,15,17,4,19,3
12.292885,-29,-10,-6,-40,18,-49,-53,-2,3
12.294586,6,8,4,29,93,92,10,-40,3
12.294598,53,7,1,-5,-16,-70,-72,-2,3
12.307134,-9,5,8,25,104,-12,-71,40,3
12.307156,31,1,1,-7,-98,-10,9,-32,3
12.308195,-23,0,0,-6,37,-53,26,32,3
12.308201,12,0,-2,-13,22,1,-14,9,3
12.329526,-35,6,2,8,34,-16,3,-79,3
12.329545,29,-5,-7,-35,21,2,-40,37,3
12.330296,-18,-13,-9,52,29,-43,127,-77,3
12.330433,6,9,2,14,-57,-42,27,21,3
12.352952,30,-9,-2,-9,-86,-60,70,16,3
12.352987,-28,2,5,13,72,-49,4,-13,3
12.354375,45,-4,-1,-22,-82,-22,-19,2,3
12.354382,-35,-4,-2,1,35,50,16,20,3
12.367284,9,-3,-9,2,-44,26,-55,3,3
12.367320,11,1,0,5,-34,59,-45,5,3
12.369039,3,0,0,-33,-82,-51,-36,28,3
12.369044,9,1,2,58,83,69,-6,3,3
12.390593,-4,-4,-3,-7,18,25,62,-41,3
12.390598,18,-6,-1,-11,-47,40,-35,18,3
12.390601,4,-5,-5,-16,31,-3,10,7,3
12.390603,-1,2,-1,-15,-36,-29,-112,-31,3
12.412824,-37,-9,-4,-35,12,85,-21,-12,3
12.414466,3,2,-1,-4,-33,-31,-6,-52,3
12.414472,-6,-12,-4,-16,-83,-89,-24,10,3
12.414474,-17,0,-1,11,56,41,35,-14,3
12.426645,-7,-1,-2,-7,13,1,11,20,3
12.428294,-31,3,1,-3,-4,14,13,50,3
12.434962,7,9,4,2,22,-2,-16,2,3
12.434990,-14,-5,-2,-35,-128,-19,46,8,3
12.449585,-2,-7,-3,21,30,13,-53,12,3
12.449608,18,5,2,0,-13,47,44,-17,3
12.450709,-57,-9,-4,6,37,-10,36,20,3
12.450713,32,-4,1,0,-10,51,-43,28,3
12.472869,4,7,2,6,-22,-5,62,1,3
12.472921,-14,-10,-6,1,-26,43,6,2,3
12.473678,12,8,1,1,23,27,-11,12,3
12.473697,0,1,-1,-12,36,28,-7,-17,3
12.486684,19,5,7,-2,-78,-14,11,21,3
12.486712,-31,9,9,-23,-57,-27,-76,-33,3
12.494559,-39,-5,-4,30,108,56,38,24,3
12.494578,-73,-8,0,13,46,-1,-21,-85,3
12.509849,11,-7,-3,47,-70,-31,-60,16,3
12.509880,9,2,-4,8,34,-34,48,35,3
12.512333,3,-14,-10,-12,-62,6,-38,-27,3
12.512338,22,5,2,-2,-38,-23,-15,3,3
12.532784,-4,-2,-2,-14,25,-28,-23,2,3
12.532838,1,0,-4,10,15,-30,3,-12,3
12.533474,12,7,4,-2,-26,12,-16,-1,3
12.533481,1,-3,-5,-2,16,-46,29,-1,3
12.546914,7,0,0,-11,20,13,7,-3,3
12.546921,-12,-5,-2,-7,17,11,15,13,3
12.554715,6,0,3,-6,3,11,18,-4,3
12.554738,9,2,2,-28,19,-16,-2,9,3
12.569644,0,1,3,18,-20,5,-58,-7,3
12.569665,18,6,5,33,77,-39,23,23,3
12.570961,-29,-9,0,9,61,60,-103,-25,3
12.570967,13,-12,-11,13,-42,-54,16,-63,3
12.593132,-13,-5,-5,-16,-11,24,41,22,3
12.593144,-11,0,1,-21,-123,2,61,22,3
12.593480,-5,5,2,-15,22,-1,17,-29,3
12.593493,-6,1,-2,-7,-28,-40,-37,38,3
12.607584,2,-2,0,-22,-10,8,12,3,3
12.607588,7,-19,-15,-32,-5,-7,-1,-41,3
12.614685,25,10,0,60,17,-108,35,18,3
12.614714,-53,-10,1,3,-100,43,35,24,3
12.629695,14,10,1,-19,-14,-11,5,-5,3
12.629717,29,2,0,3,28,2,-7,24,3
12.632789,-28,0,-1,-10,10,23,-8,-8,3
12.632796,12,4,-6,-17,-28,-18,-11,-40,3
12.654346,-20,-10,-3,37,81,-21,20,0,3
12.654351,-24,4,-2,1,-29,5,0,-3,3
12.654353,55,1,-1,-17,5,-4,36,-10,3
12.654355,17,0,-2,-17,-63,72,-17,-22,3
12.666440,5,2,-1,12,87,-4,-15,47,3
12.666462,20,4,1,4,-21,24,-71,-5,3
12.675037,21,-7,0,35,-39,4,79,37,3
12.675060,1,0,3,1,3,-21,-26,10,3
12.689694,6,6,-5,-27,-41,56,0,-19,3
12.689718,-12,-1,6,23,-13,-43,-64,29,3
12.690314,-11,4,5,-6,-50,31,12,20,3
12.690335,-26,0,-3,-17,83,14,56,-1,3
12.712716,-11,-5,2,-4,-16,-8,60,-15,3
12.712735,-27,-9,-10,-1,33,45,58,37,3
12.714068,-60,-16,-20,-52,-89,80,60,-24,3
12.714080,37,-2,-3,32,50,-108,13,-28,3
12.735572,-17,2,6,-15,-15,-36,36,55,3
12.735606,13,9,7,-9,-62,-41,12,-64,3
12.736112,-1,-11,-12,-29,11,-108,-63,-35,3
12.736165,-3,0,-3,4,-48,63,67,28,3
12.749565,8,1,1,-2,-125,54,-21,17,3
12.749585,-2,-10,-4,-21,24,43,38,-63,3
12.750452,82,15,11,12,-37,14,22,17,3
12.750473,-21,-1,-2,-5,-49,-3,-9,11,3
12.772740,-7,-4,-2,-2,-27,-21,-39,-18,3
12.772761,-9,2,1,-11,-49,-6,-20,-89,3
12.774195,11,2,4,-3,17,97,-22,31,3
12.774203,8,1,5,13,30,13,-13,-1,3
12.795139,6,-7,-7,-2,-45,-33,10,7,3
12.795152,20,3,-6,-60,49,96,-10,30,3
12.795859,-35,-5,2,28,-8,14,20,12,3
12.795894,7,4,4,5,91,40,-5,17,3
12.809456,12,-7,-4,-2,-87,-2,-57,-21,3
12.809474,-40,6,5,8,17,-64,55,9,3
12.810860,15,-3,1,-39,72,50,-57,-1,3
12.810865,-27,-1,4,44,-40,78,-19,-6,3
12.832762,-19,-3,-10,-26,-25,-17,50,-58,3
12.832789,-12,-5,1,36,15,70,-21,57,3
12.834483,-9,4,1,15,-58,70,26,-8,3
12.834499,-22,-13,-6,-28,79,-29,-49,-17,3
12.855387,-2,2,-1,-9,101,6,-21,-27,3
12.855410,41,5,1,12,-30,-21,-13,-3,3
12.856771,-21,-5,-1,-10,-45,-95,36,-3,3
12.856780,46,6,-3,-20,-21,63,-83,11,3
12.869587,-3,-3,-2,17,49,-2,-16,31,3
12.869605,-7,-4,1,5,76,-7,26,28,3
12.871965,-10,3,2,-8,2,-91,-25,11,3
12.871974,18,4,2,3,-37,-35,69,18,3
12.892901,10,-5,1,-21,12,-36,37,-5,3
12.892919,-1,1,2,29,-38,-80,-63,13,3
12.893506,-11,3,2,-1,87,99,29,-60,3
12.893586,8,1,1,4,-86,-98,-20,32,3
12.915379,3,9,3,25,101,37,-7,7,3
12.915398,-8,-3,0,-10,-69,38,56,-19,3
12.916637,-3,-6,2,-2,-33,31,-9,-16,3
12.916643,16,10,1,10,-60,-74,65,41,3
12.929649,11,6,3,-10,3,87,20,3,3
12.929666,26,-12,-9,-5,86,7,-30,-17,3
12.931124,12,7,2,9,71,-10,-40,-11,3
12.931130,-19,-4,2,-11,87,-41,-12,-13,3
12.952962,-21,-3,2,18,-101,2,-2,-11,3
12.952984,9,1,-3,1,-26,-1,-57,22,3
12.953386,11,-1,-9,-23,-116,-29,-82,17,3
12.953395,17,-8,-4,-6,-50,18,18,-36,3
12.975514,-17,-11,-1,3,123,83,-3,-31,3
12.975538,-36,-14,-9,7,5,53,40,-51,3
12.977460,-3,5,7,23,-69,-99,20,44,3
12.977464,-21,-25,-7,-8,3,32,-48,41,3
12.989790,60,12,-1,7,-76,-8,-43,-38,3
12.989816,-57,-1,3,23,-14,66,76,57,3
12.991676,6,-5,-3,35,17,78,-17,30,3
12.991680,-16,-5,1,2,8,2,88,-8,3
13.014929,31,5,-4,-19,59,-58,16,41,3
13.014942,-96,-16,-11,-20,-81,-68,-12,-59,3
13.014944,85,19,0,-38,-10,-74,-46,38,3
13.014946,-1,3,5,45,34,51,-52,-23,3
13.035607,-29,-20,-9,-8,45,2,23,38,3
13.035732,44,14,1,-10,-21,14,6,-44,3
13.037248,-24,-14,-2,6,-7,14,17,-13,3
13.037254,-5,14,0,-6,26,12,-36,-70,3
13.049644,-93,-11,-8,-32,17,-74,-22,-49,3
13.049674,10,-6,5,53,1,-39,-89,57,3
13.050604,36,12,1,-6,-41,42,121,2,3
13.050642,-13,4,2,-9,84,-40,43,15,3
13.072879,14,3,8,49,-14,13,-6,-34,3
13.072895,-12,7,3,-18,109,5,3,2,3
13.075006,-35,-3,-13,-47,32,-17,-58,-12,3
13.075014,32,-3,5,66,-61,-35,76,-5,3
13.095524,-71,-12,-3,-1,13,43,40,-66,3
13.095546,54,5,0,-18,-55,14,25,65,3
13.096436,9,-1,2,12,54,-29,0,38,3
13.096447,-14,3,-6,-39,-67,87,44,42,3
13.109740,44,1,2,1,-6,-31,36,1,3
13.109760,25,2,-2,1,-29,0,17,-1,3
13.110401,24,10,8,11,-84,-10,-75,-12,3
13.110420,-5,-14,-3,0,79,-42,10,-25,3
13.132888,64,-4,-4,3,-95,-5,-60,80,3
13.132910,-9,3,-1,-3,-95,-9,28,5,3
13.134236,-12,3,2,15,50,68,63,33,3
13.134246,17,0,-4,-19,15,20,68,52,3
13.155287,-42,4,6,4,-67,70,74,5,3
13.155306,35,3,-6,-5,43,41,-59,-45,3
13.155845,-63,-24,-10,-19,51,-6,-25,-49,3
13.155852,33,4,1,39,-57,-50,-34,13,3
13.169708,-30,0,-6,-21,30,21,-22,-1,3
13.169716,-3,-4,4,-13,87,-29,72,5,3
13.170250,-9,2,6,11,-58,3,14,-9,3
13.170257,-15,11,0,-13,42,77,-69,-11,3
13.192779,27,4,-2,-8,-120,-106,-70,-45,3
13.194813,-56,-5,-6,-17,-60,54,-38,-9,3
13.194819,-26,-13,-1,16,33,69,11,11,3
13.194821,38,9,5,13,19,-91,-83,10,3
13.216351,-9,-3,-1,10,19,4,110,12,3
13.216355,1,-10,-6,-29,-48,19,-76,-37,3
13.216776,12,2,3,29,31,-38,41,17,3
13.216782,-13,1,-2,-28,-89,26,-8,13,3
13.229293,4,-4,-11,-15,127,42,47,24,3
13.229323,29,-2,0,7,5,-52,5,18,3
13.237906,43,17,7,4,-56,-49,-5,-1,3
13.237924,-79,-18,-3,1,111,15,29,-6,3
13.252828,89,7,1,-11,-31,-11,-3,49,3
13.252854,-28,3,7,25,63,6,13,40,3
13.254923,0,6,-3,-23,-56,-47,-56,-29,3
13.254928,-15,0,1,12,-122,10,40,-29,3
13.275855,-20,1,2,4,-39,6,-21,1,3
13.275884,-15,-6,-11,-22,-32,-73,-9,-40,3
13.277891,11,4,6,29,-13,-64,74,27,3
13.277897,24,2,-7,-13,-51,60,-98,-51,3
13.289091,-12,-2,-1,0,5,106,44,70,3
13.289115,-33,-6,2,18,-9,9,7,9,3
13.300674,-33,-10,-8,-24,-14,6,72,-24,3
13.300681,11,-8,-3,-24,-6,-32,20,18,3
13.312812,-19,5,6,21,31,-15,-50,-43,3
13.312829,73,24,11,-1,-78,-36,-51,19,3
13.314416,-78,-23,-9,10,86,-55,47,19,3
13.314486,33,14,3,-7,111,5,126,22,3
13.335461,14,-17,-2,4,20,-42,-67,16,3
13.335480,-12,-3,-3,9,-6,25,51,6,3
13.337513,13,-3,-6,-22,-55,35,33,-2,3
13.337520,-5,6,5,27,21,-25,-93,-65,3
13.348947,-41,-5,-3,-5,-2,-32,4,3,3
13.348977,20,3,0,-9,35,42,37,1,3
13.358729,-11,3,1,8,1,-4,-32,-33,3
13.358735,-35,-2,-2,-14,-117,32,-48,-41,3
13.372809,54,-11,-6,-2,-18,27,-60,1,3
13.372824,-2,-5,-1,6,23,33,-19,67,3
13.374199,-50,-15,-9,-39,-55,110,8,-50,3
13.374234,36,10,6,-21,-68,-31,-35,31,3
13.395443,-25,-3,-7,-6,-97,-15,-51,-20,3
13.395457,41,-2,0,8,-3,-36,12,-28,3
13.398097,-3,0,-3,-1,51,-34,10,10,3
13.398110,-4,-7,-6,-25,7,-20,57,28,3
13.409010,19,12,6,11,-51,6,33,-25,3
13.409040,-23,2,2,1,-43,-42,-12,-79,3
13.419217,51,-5,-13,-53,3,-35,-71,46,3
13.419224,53,-1,6,35,-57,-2,71,25,3
13.432675,-65,-3,3,-17,102,15,0,-5,3
13.432682,-2,-10,-6,29,-39,70,47,-27,3
13.434396,13,-2,3,5,28,0,-61,0,3
13.434427,-1,-16,-7,-10,-18,-15,-5,-12,3
13.455683,53,18,7,5,62,-22,23,12,3
13.455706,11,11,6,-10,-45,-28,40,-4,3
13.458069,-34,7,-1,14,9,30,-7,22,3
13.458075,-21,-16,-4,-6,38,16,3,19,3
13.468949,20,11,3,7,-28,29,27,67,3
13.468977,-54,2,-2,-5,127,120,6,-25,3
13.478684,14,10,0,26,8,-88,105,16,3
13.478688,-33,-24,-14,-15,17,110,79,22,3
13.493062,44,12,1,-16,-44,-14,74,-17,3
13.493066,-68,-8,-2,-2,-41,-37,25,14,3
13.494136,35,-16,-4,-10,-33,3,-70,-13,3
13.494143,11,17,1,-6,-11,-42,68,30,3
13.515374,-26,-20,-6,-2,-48,-19,-9,-47,3
13.515393,33,19,-4,-24,31,-5,-72,22,3
13.516763,-20,-2,8,62,-95,8,23,11,3
13.516813,-60,-11,-5,-22,60,16,43,11,3
13.529143,-72,-21,-16,-19,-100,-93,-32,16,3
13.529264,38,9,16,11,-21,-23,46,26,3
13.539488,-51,-21,-14,-9,124,77,68,-3,3
13.539492,8,12,-2,-4,-12,7,-128,14,3
13.554738,28,24,2,-1,-7,-9,48,-9,3
13.554744,-1,-4,-3,-3,29,-3,8,2,3
13.554747,20,9,1,-23,-37,-17,-26,6,3
13.554749,12,0,5,7,7,-6,6,-55,3
13.575360,-14,3,2,11,95,19,-4,-14,3
13.575387,11,-9,-10,-8,-10,3,-2,43,3
13.577566,26,3,6,6,-4,14,4,24,3
13.577574,-3,-10,-9,-19,10,-20,-11,-22,3
13.589013,-12,-11,-7,11,45,7,45,23,3
13.589030,23,-4,-1,8,17,12,28,9,3
13.600070,4,7,-1,-10,-56,-7,81,-11,3
13.600076,-5,7,4,5,-93,42,29,-6,3
13.613380,22,-6,1,6,25,71,13,-12,3
13.613403,41,-2,-1,-21,-6,58,-10,15,3
13.615710,-94,-13,-3,26,124,68,15,-35,3
13.615716,48,14,-5,-15,-51,6,-70,-2,3
13.635494,11,-13,5,18,100,-45,-19,-14,3
13.635522,-5,-8,-7,-34,-29,-29,30,53,3
13.636756,-3,6,8,11,-41,8,-62,-61,3
13.636772,1,-17,-5,11,14,4,36,31,3
13.649039,-25,8,-3,-12,40,-18,-43,36,3
13.649062,-18,0,8,25,43,14,-14,-47,3
13.659379,27,9,2,-29,-72,-24,74,31,3
13.659386,-1,-6,-1,5,-48,2,-87,9,3
13.673159,7,8,1,0,-95,-57,29,-52,3
13.673182,-35,-11,-2,6,94,-37,-46,-21,3
13.675335,32,-2,-3,-6,13,13,-71,-2,3
13.675344,-16,16,6,12,113,11,35,47,3
13.695322,6,2,5,-1,-77,5,-4,-19,3
13.695336,21,-2,-5,11,-87,-53,-120,-5,3
13.696693,-2,2,-1,-4,13,-9,-53,-36,3
13.696724,19,8,-1,-18,-9,-4,-43,6,3
13.718030,9,3,3,7,38,34,26,34,3
13.718082,-23,-15,-5,9,-24,-54,-3,-20,3
13.720398,20,9,1,2,74,71,28,41,3
13.720403,-5,-12,-3,-9,-37,-54,21,-31,3
13.732991,59,13,1,-14,-61,45,30,32,3
13.733012,-85,-6,-3,-12,-43,39,15,-52,3
13.734484,58,-2,-3,-7,-10,-5,-5,27,3
13.734560,-3,2,0,11,-7,-1,19,-36,3
13.755782,9,0,1,5,35,23,-7,-9,3
13.755787,32,10,0,-11,7,2,4,10,3
13.756719,20,-2,-4,6,-38,37,12,1,3
13.756735,-9,-14,1,-2,65,-25,65,55,3
13.777912,4,13,5,-9,-92,-71,-65,0,3
13.777934,23,-12,-6,8,17,123,-13,10,3
13.779905,-50,-3,1,-5,-43,-111,34,-21,3
13.779909,47,5,-1,8,31,36,-32,54,3
13.792730,-35,-6,-4,-4,-23,28,-20,-51,3
13.792755,7,3,3,-1,-22,-1,65,39,3
13.794095,58,11,6,-2,27,24,1,-10,3
13.794102,-16,8,12,53,-41,87,57,-24,3
13.815338,-44,-11,-6,-12,12,47,-75,98,3
13.815357,29,-12,-6,-19,-63,-42,-23,67,3
13.816932,-9,0,2,38,-10,30,14,18,3
13.816971,-44,-1,-5,-34,-22,-77,10,-6,3
13.837710,-24,-2,1,29,31,36,8,6,3
13.837727,16,5,-1,-2,-4,-13,57,-27,3
13.839164,-7,-1,-2,-23,-47,-21,-46,-3,3
13.839178,6,0,1,-4,11,-12,-30,-6,3
13.852403,0,-8,-5,3,-11,-21,31,-38,3
13.852430,-25,5,-1,-8,34,1,-11,-38,3
13.859317,-66,-12,-5,-20,-80,63,62,-14,3
13.859342,26,-25,-18,-5,83,77,-102,-86,3
13.875622,-7,-9,3,16,96,68,98,-1,3
13.875652,-6,5,0,8,-8,-9,-1,20,3
13.878227,19,6,-2,-3,33,8,-18,-1,3
13.878233,-4,8,2,-7,-48,-16,-4,15,3
13.897945,32,5,3,-11,-42,-2,-10,-7,3
13.897959,14,1,1,6,26,11,8,-7,3
13.899301,-12,-3,-1,3,-8,-22,-29,-17,3
13.899313,-3,3,0,-3,3,-36,15,4,3
13.912421,5,-5,-4,-1,13,-38,-15,-1,3
13.912427,-24,6,0,-22,-96,-43,29,-5,3
13.919122,9,-6,4,34,23,65,21,-25,3
13.919140,47,6,2,-1,-118,24,-4,71,3
13.935531,-55,-7,-12,-18,82,93,-75,-7,3
13.935567,20,-7,-1,0,17,7,-49,-24,3
13.937006,35,9,1,-9,54,-11,28,5,3
13.937039,-22,-1,-1,18,-21,-19,21,-20,3
13.960310,17,11,8,24,18,-13,84,9,3
13.960315,27,1,-1,3,8,-13,47,-11,3
13.960317,-41,-6,-5,-22,6,-50,-31,-34,3
13.960319,-40,0,3,18,-23,-11,8,-12,3
13.972243,23,0,-5,-18,6,-49,2,-17,3
13.972266,-22,-8,-6,-3,-20,37,-73,-39,3
13.979009,1,5,2,-13,42,-28,1,74,3
13.979031,-3,-5,0,-9,-76,-14,3,-16,3
13.994762,27,3,2,12,-44,21,4,7,3
13.994779,-26,-4,-5,-5,-36,-7,63,28,3
14.003602,0,5,4,7,31,8,-103,-1,3
14.003606,-59,-1,-2,-15,126,-2,-52,-30,3
14.018297,49,1,-3,-18,0,-29,33,13,3
14.018328,22,-5,2,32,10,17,39,-22,3
14.020243,30,-6,-6,-14,-94,-93,32,5,3
14.020247,35,-4,-2,-4,43,-35,-23,-2,3
14.032414,-51,-8,1,-9,-90,-85,-19,4,3
14.032502,-31,-5,-6,-28,-17,-27,59,1,3
14.039035,12,-3,-5,33,3,-73,76,12,3
14.039058,24,1,-2,-5,-52,44,-7,-23,3
14.055204,1,5,1,-11,-103,-73,1,24,3
14.055217,-48,-8,0,6,46,-56,8,19,3
14.056921,-18,-2,-2,-13,-26,80,-94,-83,3
14.056934,15,7,5,-6,-88,19,-2,11,3
14.077905,-25,-14,-7,-6,22,23,4,-10,3
14.077931,42,19,7,28,-29,45,6,20,3
14.080695,-63,-9,-5,-10,24,22,-28,33,3
14.080702,-1,0,3,31,86,-11,63,-5,3
14.092228,6,-4,-5,-10,-34,39,78,39,3
14.092246,-9,-4,-10,-16,114,44,-44,-33,3
14.099599,-6,-7,0,-9,-34,11,44,15,3
14.099604,4,-3,-2,-8,-35,-69,-10,15,3
14.116513,12,5,6,15,108,-55,-45,-25,3
14.116518,16,8,0,-8,-87,5,86,19,3
14.116862,-42,-15,-6,7,98,15,-31,7,3
14.116868,8,-13,-15,-20,-22,-48,-10,-17,3
14.138230,8,-1,-1,4,-22,127,-2,-2,3
14.138340,-14,5,4,-7,56,5,8,-18,3
14.139941,-6,10,5,15,-43,-22,27,30,3
14.139945,21,2,4,6,-25,33,55,-3,3
14.152353,7,-6,-2,-8,-69,19,32,29,3
14.152373,6,-3,1,8,-80,-16,-28,31,3
14.159326,94,10,-1,-26,-42,88,28,-29,3
14.159347,-30,-2,3,21,53,67,-46,41,3
14.175756,-22,2,-2,5,-33,-36,39,-80,3
14.175789,-19,1,2,2,91,-56,-63,-9,3
14.177971,17,-5,-2,-12,-61,-12,25,-36,3
14.177976,-12,2,0,-9,32,-5,106,-3,3
14.198256,12,11,0,3,3,-9,-46,-4,3
14.198303,-10,-3,-12,-23,-65,-47,-7,-44,3
14.199331,-24,-9,-2,-3,-77,-106,42,-13,3
14.199348,2,-3,0,-5,-4,-13,-1,25,3
14.211285,26,-6,-4,4,74,-19,-40,-31,3
14.211300,-19,-3,-1,-4,8,19,14,-14,3
14.221389,-9,2,-6,1,-27,33,-23,1,3
14.221394,-5,4,-2,-3,33,0,9,-20,3
14.235549,47,5,5,-12,-109,-6,14,3,3
14.235584,60,9,11,4,74,100,20,39,3
14.237929,-22,-2,-1,1,-83,65,-39,-70,3
14.237934,-89,-17,-10,-13,-20,12,90,-8,3
14.258467,-31,-7,-5,0,-72,21,-49,30,3
14.258473,-3,-8,-2,-3,-33,44,2,18,3
14.259232,-36,-4,-2,-12,71,-57,-25,65,3
14.259246,60,12,2,2,15,20,-36,-7,3
14.273061,-25,5,4,14,-10,-21,-20,-40,3
14.273066,-15,-17,-11,0,94,10,73,23,3
14.282580,59,9,2,-13,-3,3,12,18,3
14.282587,-19,-3,-5,-1,-46,-3,-7,-94,3
14.295339,-26,-3,1,0,-40,-60,110,43,3
14.295363,-15,-8,1,10,22,-52,-85,12,3
14.296935,-35,-9,-2,7,94,76,-46,-37,3
14.296951,7,2,1,0,3,0,0,31,3
14.319119,-3,-6,-6,-2,51,-27,-2,-18,3
14.319126,15,12,3,-13,6,-2,49,-6,3
14.319366,17,1,0,39,9,-19,-46,-1,3
14.319412,-5,3,3,-1,-15,-13,-11,18,3
14.331696,4,-3,-4,-17,24,30,-63,-12,3
14.331730,10,-3,1,13,-52,-12,-24,1,3
14.342482,43,7,8,9,-63,-29,36,47,3
14.342488,18,0,6,3,29,30,-80,26,3
14.355378,0,-7,-2,3,5,2,42,-20,3
14.355401,-54,-6,-4,-2,-68,-1,24,-30,3
14.356768,1,-4,-3,-3,35,67,87,13,3
14.356801,9,6,-2,-2,-34,-26,70,13,3
14.377973,6,5,5,4,67,14,21,18,3
14.377995,21,5,1,-7,-42,18,-57,36,3
14.379650,-17,-4,-8,18,-67,0,86,8,3
14.379658,4,1,2,6,20,24,17,-5,3
14.391964,-6,1,-6,-5,22,35,2,25,3
14.391980,64,6,1,-1,-14,6,17,-40,3
14.401758,-8,-11,-7,-11,-70,-40,-52,-29,3
14.401765,-11,-4,1,7,43,3,88,2,3
14.415346,41,13,5,15,-82,-26,-3,50,3
14.415369,-4,-9,-1,-10,-18,-74,44,-5,3
14.416823,26,9,0,-18,14,-40,20,-29,3
14.416874,-29,-8,-4,-10,-44,-1,-29,-14,3
14.437791,-8,4,0,-3,53,20,-12,8,3
14.437815,-13,4,-1,6,-2,7,-35,-4,3
14.439405,33,12,9,3,57,-17,-31,80,3
14.439417,-62,1,-5,-1,2,-60,42,26,3
14.451766,35,-6,-6,-13,-10,65,6,4,3
14.451796,-6,-13,-3,1,-43,17,-29,13,3
14.461090,-1,-3,0,-2,41,-35,-20,-8,3
14.461095,65,-6,-4,-33,-43,14,-68,-16,3
14.476490,-45,-6,-3,16,18,-3,-81,-5,3
14.476495,7,9,7,15,-5,21,53,-26,3
14.476820,0,2,4,-2,-19,17,40,3,3
14.476897,-3,3,2,-42,-51,34,-19,-7,3
14.498163,56,0,-5,6,127,12,53,-47,3
14.498192,-52,-8,-8,-28,-52,2,-104,11,3
14.499529,1,-6,-5,14,-27,23,-31,-33,3
14.499533,1,11,10,16,4,-5,21,4,3
14.511627,-37,-12,-12,-18,-128,16,-71,-18,3
14.511645,15,-12,-5,-1,96,18,-30,-25,3
14.521017,24,-4,-6,-13,35,26,102,12,3
14.521025,-12,-3,-4,-5,-35,-18,-27,-6,3
14.535697,-15,8,5,1,13,12,53,7,3
14.535875,7,12,5,16,-29,-7,44,17,3
14.538267,0,-2,-2,-23,32,-18,-73,0,3
14.538272,-65,-15,-2,37,92,11,-4,-2,3
14.558126,0,0,1,-3,-22,-25,-2,-13,3
14.558156,39,9,2,8,-38,44,27,19,3
14.559553,-37,-9,-4,4,67,7,-75,-17,3
14.559571,11,2,-1,-23,35,-39,15,40,3
14.571341,-11,7,6,19,40,14,-72,-25,3
14.571357,4,-13,-7,5,-11,1,-30,-28,3
14.582385,-6,4,5,9,-17,5,-40,56,3
14.582391,33,4,-1,-9,49,-20,63,-4,3
14.594915,-2,-8,4,3,-71,-61,30,25,3
14.594945,42,12,2,-3,-44,-57,6,18,3
14.601821,-103,-1,-4,-10,-95,0,-33,-55,3
14.601863,-8,-12,-7,4,-25,11,21,-5,3
14.618074,21,7,0,-6,-15,-5,-63,-3,3
14.618099,-89,-17,-5,-3,20,-18,-23,-30,3
14.619491,14,-1,-1,-5,-37,-42,34,8,3
14.619520,30,-1,-2,3,-24,3,39,-10,3
14.640543,-5,-5,-6,-30,-68,68,-45,-2,3
14.640569,5,10,4,8,23,-59,21,36,3
14.642420,39,-3,-4,-4,-9,73,-8,-10,3
14.642426,-57,2,3,0,82,99,15,-22,3
14.655298,-30,-11,-7,4,107,-102,116,-2,3
14.655321,9,3,2,-6,-70,28,-9,40,3
14.656875,28,6,2,11,52,-11,-11,-8,3
14.656976,20,-2,0,11,109,76,-24,-36,3
14.677943,26,3,5,7,-34,65,17,16,3
14.677947,-34,-14,-6,-9,13,22,-15,-45,3
14.679133,-29,-5,-4,-3,17,-18,93,-8,3
14.679140,45,2,-3,2,-21,5,-2,32,3
14.700439,-24,-2,1,-12,83,38,41,-18,3
14.700479,34,2,-1,-14,-28,-8,40,-29,3
14.702716,10,5,3,-3,-72,77,-27,14,3
14.702722,-64,-4,-2,-7,-92,-1,15,-32,3
14.715487,-20,-1,0,12,-7,-85,-1,31,3
14.715509,7,-7,-6,-9,-1,41,90,22,3
14.716890,47,1,-2,-8,-26,-12,8,-17,3
14.716899,13,5,-1,-10,-98,-17,-9,13,3
14.738996,-5,-3,2,9,-14,43,-7,-13,3
14.739002,-19,5,-4,-6,-1,16,-77,28,3
14.739198,37,-2,-2,-1,17,-73,-106,47,3
14.739204,-69,-9,-4,11,-52,-2,-38,29,3
14.760563,2,12,5,-24,-14,60,-2,11,3
14.760584,24,2,1,38,127,-3,-49,-26,3
14.762293,-60,-9,-5,-16,6,-10,9,-35,3
14.762302,67,10,1,7,88,-24,7,20,3
14.774832,-5,-1,-3,-6,-35,-34,-21,-11,3
14.774862,-36,2,-1,-10,-15,6,28,-20,3
14.781680,2,3,5,13,-3,-32,12,10,3
14.781712,-15,-11,-14,-11,-14,-15,3,10,3
14.798097,47,18,13,-25,-35,87,5,56,3
14.798122,-48,-29,-11,23,105,59,96,-3,3
14.800489,49,-10,-4,-3,-13,16,-40,-21,3
14.800505,45,-4,0,-1,-56,0,-43,11,3
14.820337,-7,-4,-4,-1,19,2,-49,0,3
14.820358,1,6,3,-12,-45,-23,-21,-2,3
14.821771,-4,8,4,-2,8,16,26,13,3
14.821815,-2,6,10,36,54,4,30,-9,3
14.834660,-3,-7,-8,-4,-6,-33,25,-33,3
14.834688,18,8,6,5,-64,12,-8,22,3
14.841395,30,23,7,19,-8,-25,-4,32,3
14.841417,1,-10,0,-7,59,-23,-65,-26,3
14.857907,-57,-36,-14,0,6,-7,-38,3,3
14.857926,5,-6,0,5,-41,-7,1,31,3
14.859390,-56,-2,1,-17,5,21,4,6,3
14.859394,37,18,5,-22,-22,-11,92,27,3
14.880298,11,6,0,49,37,43,-60,-39,3
14.880325,20,4,-1,-16,-44,10,94,0,3
14.881901,54,-19,-9,3,64,23,-59,-17,3
14.881921,3,2,0,-13,-19,-31,-71,-85,3
14.894568,-21,-20,-7,1,-47,-62,67,-12,3
14.894573,59,5,0,-7,39,-14,-97,-52,3
14.901792,-17,0,2,12,-68,-78,54,9,3
14.901811,3,-1,-2,11,-90,60,3,19,3
14.918179,38,10,6,-5,24,-29,-26,-6,3
14.918217,-20,3,1,2,-12,0,-34,14,3
14.919774,-7,-1,-2,-8,28,-3,11,-4,3
14.919779,-3,1,0,3,12,-19,-67,-7,3
14.940297,6,1,-8,-7,-87,-62,29,6,3
14.940311,29,1,-1,-2,-14,63,-45,32,3
14.941640,-89,-19,-11,-23,-20,24,-9,15,3
14.941700,47,-20,-11,18,-21,-54,46,-19,3
14.956374,-17,-8,-4,-1,-14,45,85,18,3
14.956380,21,10,2,-11,-20,-18,25,6,3
14.961481,14,7,4,3,76,52,44,-4,3
14.963288,2,5,1,-6,-17,-8,-19,8,3
14.977828,5,6,5,-6,40,1,-6,6,3
14.977850,-7,-5,0,3,-24,-20,-11,-13,3
14.979181,-5,0,0,1,-28,5,-19,-19,3
14.979217,-6,-1,-2,-10,-10,-4,15,20,3
15.002122,9,3,2,4,-2,-4,-2,-8,3
15.002127,-33,-2,2,5,29,-13,10,-6,3
15.002130,38,-2,-2,6,26,-11,12,25,3
15.002132,-12,1,0,-2,11,16,15,11,3
15.014787,40,7,1,-13,48,-26,46,37,3
15.014821,-73,3,2,38,83,50,49,1,3
15.021501,-5,0,3,-3,63,80,-54,28,3
15.021527,12,-6,-11,-34,-27,62,-24,-65,3
17.038920,-2,-2,-1,-3,-2,1,-1,-3,0
17.039197,-1,-2,-2,-2,-1,0,-2,-1,0
17.049556,-1,-2,-3,-1,-1,-2,-2,-2,0
17.049561,-1,2,0,-1,1,0,0,-2,0
17.063086,-3,-2,-1,-1,-3,-1,-1,-2,0
17.063109,-4,1,0,-2,-1,-2,-1,-2,0
17.065787,2,-2,-2,0,0,-2,0,1,0
17.065793,-1,-2,-2,-1,0,-3,-1,3,0
17.085743,2,1,-1,-1,1,0,-1,0,0
17.085930,-2,-3,-1,-2,-3,0,1,-2,0
17.086802,-2,-1,-1,0,0,0,-3,-3,0
17.086817,0,0,-2,-2,-1,0,1,-1,0
17.098846,1,0,0,1,-1,1,0,-1,0
17.098865,2,-3,-2,0,-2,-2,-1,-1,0
17.109298,-2,-1,0,0,-3,-1,-1,-3,0
17.109303,-2,-2,1,-2,0,1,1,1,0
17.122922,-3,-1,-2,0,0,-3,0,-2,0
17.122944,-1,-1,-2,-3,-1,0,0,-1,0
17.124999,-1,-2,-1,-1,-2,-1,1,0,0
17.125007,-3,-2,-2,-2,-1,-2,-3,-1,0
17.145141,0,-2,-1,-1,-2,0,-1,0,0
17.145156,1,-1,0,0,1,-1,-1,1,0
17.146647,-2,0,0,-2,1,0,-2,0,0
17.146668,0,-3,-1,-1,-2,0,-1,-1,0
17.160559,-1,1,-1,-1,-1,0,-1,1,0
17.160565,0,-2,-2,0,-1,0,0,0,0
17.169661,-1,0,0,-3,-1,-2,0,-1,0
17.169669,2,-1,0,2,0,-3,-2,-1,0
17.182833,-3,-1,-2,-3,-1,-2,-3,-1,0
17.182858,1,-2,0,-1,1,-2,-1,0,0
17.185115,0,0,-1,0,-1,0,-2,1,0
17.185122,-2,-1,0,0,0,0,-1,-1,0
17.205254,3,-1,0,-1,-2,-1,0,-3,0
17.205270,-3,-1,-1,-1,0,0,0,1,0
17.206681,-5,-3,-2,-3,-1,-2,-1,-2,0
17.206695,-1,-3,-1,-1,-1,-1,-1,3,0
17.220541,-1,-1,-1,0,0,-1,0,0,0
17.220546,-1,0,1,0,-2,-2,-2,0,0
17.229263,0,0,-2,-1,-1,0,0,1,0
17.229274,-4,-2,-2,-2,-2,-1,-4,-1,0
17.242708,-2,-1,0,0,0,-1,-1,2,0
17.242733,-1,-2,0,-1,-1,-2,0,-2,0
17.244195,0,-1,-1,0,0,-2,-2,-1,0
17.244207,0,0,0,-1,-1,0,0,0,0
17.266228,-3,-2,-1,-1,0,0,-1,-2,0
17.266233,-2,0,-2,-1,-2,0,-1,0,0
17.266819,0,-1,-2,-2,-3,-1,2,0,0
17.266826,-1,-2,-1,-2,0,0,-1,1,0
17.279152,-2,-1,-2,-1,0,-3,0,-1,0
17.279181,-1,-1,0,0,-1,-1,0,-3,0
17.289473,-4,-2,-2,0,-3,-2,-2,-3,0
17.289479,2,1,-1,-1,0,-2,-1,-2,0
17.302943,-5,-3,-2,-1,-3,0,-3,-3,0
17.302960,1,0,-2,-2,-1,-1,-1,1,0
17.304783,1,0,0,-1,0,-1,0,-1,0
17.304788,1,-1,-2,-1,0,-1,-1,-2,0
17.325164,3,1,1,-2,0,-1,-1,-1,0
17.325181,0,-1,0,0,-1,0,0,-2,0
17.326701,-1,-2,-1,0,-1,-1,-1,1,0
17.326708,-1,-2,0,1,-2,0,1,-2,0
17.338911,-1,-2,-1,-1,-2,-1,-1,-2,0
17.338933,-2,1,-2,-2,0,0,-1,-3,0
17.349901,2,-1,1,-4,-1,-1,0,0,0
17.349907,-2,-1,-1,-1,-2,-2,-1,0,0
17.362623,-1,-1,-2,1,-1,0,1,0,0
17.362686,-1,-2,0,-1,0,-1,-2,-2,0
17.364416,-2,-1,-2,-2,0,-2,1,-2,0
17.364442,0,-1,0,-3,-1,-2,0,-2,0
17.385430,1,-3,0,2,-1,-1,0,-1,0
17.385455,-3,-2,-2,-1,0,-3,-1,0,0
17.386938,0,0,-1,1,0,-1,-2,-1,0
17.386945,-3,-2,0,-2,1,-2,-2,-1,0
17.398983,-2,1,-2,0,-2,-1,-3,-2,0
17.399004,0,-1,0,-1,0,-2,-2,-1,0
17.409212,-3,-3,-2,-3,-2,0,-1,-1,0
17.409219,-1,0,-2,-1,1,-2,1,0,0
17.423017,-2,-3,-1,-1,0,-1,-1,1,0
17.423026,-1,0,-1,-2,-2,-1,0,0,0
17.424127,-1,-1,1,-1,-1,1,-2,-4,0
17.424133,0,-2,0,-1,0,-1,-2,-1,0
17.445407,-1,0,0,-2,0,0,1,0,0
17.445429,0,-2,-2,-2,-1,-1,-2,-3,0
17.446970,-2,-1,-2,-2,-2,-2,0,-2,0
17.446984,0,-1,0,0,0,0,-1,1,0
17.468093,-5,-2,-1,-3,-2,-2,-1,-4,0
17.468141,-1,0,-2,0,0,1,0,0,0
17.470726,0,0,0,0,0,-1,-1,0,0
17.470732,0,0,0,1,-2,-1,-3,-2,0
17.482709,-1,0,-2,-3,-2,-1,-1,-2,0
17.482730,-2,1,-1,-1,-2,-1,-2,-1,0
17.485194,-2,-1,-2,-1,1,-1,-3,1,0
17.485207,-3,0,-2,-2,-3,0,-1,0,0
17.505288,-2,-1,0,-1,0,-3,0,0,0
17.505312,0,-2,-2,-2,-1,1,1,-1,0
17.506719,-1,-1,0,0,0,-2,-2,-1,0
17.506735,-1,-2,-3,0,-1,0,-1,-1,0
17.527689,-1,1,-2,0,-1,-3,-2,1,0
17.527713,-1,-1,-1,-1,-1,-1,0,0,0
17.529317,2,-1,1,0,0,-1,-1,-4,0
17.529336,-1,-1,-1,0,-1,0,-1,0,0
17.543074,2,0,0,-1,1,2,-2,-1,0
17.543243,-2,1,0,-2,-1,-1,-1,-1,0
17.544523,-4,-3,-1,-2,-2,0,-2,-1,0
17.544527,-3,-2,-3,-3,-1,-2,-1,-3,0
17.566306,1,-2,0,0,0,0,0,-1,0
17.566310,-2,-1,-1,-1,-2,-2,-2,0,0
17.566779,-1,0,-2,-2,-2,-1,-2,-1,0
17.566788,-1,0,-1,-1,-2,-2,-2,-3,0
17.587834,-2,-3,-1,-1,-1,-3,-4,0,0
17.587860,2,0,-2,0,-1,0,0,0,0
17.589496,-1,-1,-1,-1,-1,-1,-1,-3,0
17.589503,-1,-2,-3,0,-2,0,0,1,0
17.602129,0,0,-2,-1,0,-2,0,-1,0
17.602148,-1,-1,-1,-1,-1,-2,-2,-1,0
17.608861,1,0,-1,-2,-1,-1,-1,3,0
17.608880,1,0,1,0,0,-1,-1,-3,0
17.625348,0,-2,-1,0,-1,-1,-2,-2,0
17.625365,-4,-2,-1,-1,-2,0,0,0,0
17.626833,0,0,-1,-1,-2,0,0,2,0
17.626838,-1,0,-1,0,0,0,0,1,0
17.647842,0,-1,0,-2,-2,0,0,-2,0
17.647879,-1,-1,-1,1,-1,0,-1,0,0
17.649475,-1,-1,-2,-1,-2,-1,0,-1,0
17.649480,-1,-2,0,-2,-1,0,-2,0,0
17.662216,2,1,-3,-1,-1,-2,-1,2,0
17.662237,-1,-2,-2,-1,-2,-2,-1,-3,0
17.668963,-2,-1,0,-1,-1,0,1,-1,0
17.668980,0,0,0,-1,-1,-2,-3,-2,0
17.685467,-3,0,-2,-1,-1,0,0,-2,0
17.685485,0,-1,-1,0,-1,-1,-1,-1,0
17.687274,1,1,3,2,0,-1,-1,1,0
17.687279,-2,-3,-2,-1,0,-1,-1,0,0
17.707778,-2,4,2,-3,-2,0,-2,-2,0
17.707795,2,2,-2,-1,-1,-1,-2,1,0
17.709238,-7,-2,-3,-2,-3,-2,-3,-5,0
17.709244,0,-3,-2,0,0,-1,0,0,0
17.721973,-1,-3,-4,0,-1,-2,0,0,0
17.721990,-1,0,0,-1,0,-1,-1,-2,0
17.729267,1,-2,0,-1,1,0,1,1,0
17.729286,-2,0,-1,-4,-2,-3,-1,0,0
17.745322,-1,1,-2,1,1,0,0,-1,0
17.745345,0,-2,1,0,1,0,-1,-1,0
17.746643,-1,-3,-2,-2,-1,2,-2,-3,0
17.746656,-1,1,-2,0,0,0,-2,-3,0
17.768126,1,0,2,-1,-2,-1,-2,1,0
17.768169,-2,-2,-2,-2,-2,-3,-2,1,0
17.769375,-1,-1,-2,-1,-1,0,-1,0,0
17.769400,-3,-1,0,0,-3,-3,1,1,0
17.783290,-1,0,-2,1,-2,-2,0,-1,0
17.783297,-1,0,-2,-2,-1,0,-2,-2,0
17.789009,-2,-3,-1,-2,-2,-2,-1,1,0
17.789032,-1,-1,-1,-2,-1,1,0,0,0
17.805273,-1,-2,-2,-2,0,0,-2,-2,0
17.805295,0,0,-1,-1,0,-1,0,-2,0
17.806823,1,0,-1,1,0,-2,0,-2,0
17.806831,2,-1,0,0,-1,1,0,-1,0
17.828748,0,-3,-3,-1,-1,-1,0,-3,0
17.828753,1,-1,-1,0,0,-2,0,1,0
17.829121,-1,0,-1,-2,0,-1,0,-3,0
17.829162,-3,-1,-1,-1,-1,1,-3,1,0
17.844197,-1,-2,0,0,-1,-2,-1,-1,0
17.844203,-3,0,0,-2,-1,-2,-3,-3,0
17.849043,1,0,-1,-1,0,-3,-1,-1,0
17.849062,-1,0,-3,1,-1,0,0,-2,0
17.865590,1,0,-1,-2,-2,0,-1,-1,0
17.865615,-2,-1,-3,0,-2,-3,-2,-1,0
17.867956,-3,-1,-1,-3,-2,0,-2,2,0
17.867965,-1,0,1,-1,-1,-1,-1,-1,0
17.887855,-1,-2,0,-3,0,-1,-1,0,0
17.887874,0,-4,-1,-1,-1,-1,0,2,0
17.889467,-2,0,-3,0,-1,-2,-3,-1,0
17.889471,-1,0,-2,-1,-1,-1,0,-1,0
17.902362,-4,-2,-2,-2,0,-1,0,-1,0
17.902392,-2,0,0,-1,0,0,-1,-3,0
17.909070,0,1,-1,0,-1,-1,0,-2,0
17.909096,-2,0,-1,0,-1,-3,1,0,0
17.925436,-2,-2,-1,0,0,-2,0,2,0
17.925464,1,-2,0,0,-1,0,1,-1,0
17.927824,0,-1,0,0,-2,0,-2,0,0
17.927831,-1,-2,-2,-2,-1,-1,-2,-2,0
17.947926,0,-2,-1,-1,-2,1,-1,-1,0
17.947953,-2,-1,-1,-2,-2,-1,-1,1,0
17.949361,-2,-1,0,0,0,0,0,-2,0
17.949368,1,2,0,-1,-1,0,0,-1,0
17.961409,-1,-1,-2,0,-2,-1,0,-1,0
17.961431,-1,0,-2,-2,0,-2,-1,-2,0
17.970380,-2,-1,-2,-2,-1,-2,-1,-1,0
17.970404,-1,1,0,-1,-1,-2,-1,-2,0
17.985570,-2,0,1,-1,-2,-1,-3,-2,0
17.985583,1,-1,-1,-1,0,0,0,-1,0
17.986820,1,-1,-2,1,-2,-1,0,2,0
17.986836,1,-2,0,0,0,0,0,1,0
18.007887,-3,0,-1,-1,0,0,0,-2,0
18.007903,-3,-3,-2,0,-1,-2,0,0,0
18.009925,2,-1,-2,-2,-1,-1,0,-1,0
18.009929,0,-2,-2,-2,-1,1,-1,-1,0
18.021497,3,0,-1,0,-1,1,-1,1,0
18.021521,-1,0,-1,-2,0,-1,-1,-1,0
18.032616,-1,-2,-1,-1,0,-1,-2,-2,0
18.032629,2,0,-2,-2,-1,-2,-1,0,0
18.047605,-2,-3,-1,0,-2,0,-1,-2,0
18.047678,-6,-3,-2,-2,-3,0,-2,-3,0
18.047681,0,0,-2,-1,-2,-2,-1,4,0
18.047683,-1,-4,1,-2,1,-1,-1,-2,0
18.068112,0,0,0,-1,0,-3,-2,-2,0
18.068146,1,-2,-1,0,-1,0,-1,-1,0
18.069258,-5,-2,0,-1,0,0,-2,-1,0
18.069275,-2,-3,-2,-2,-2,-3,-2,-1,0
18.089705,-2,0,0,-2,0,0,0,0,0
18.089727,0,-1,-1,0,0,-2,-1,-1,0
18.092623,2,0,-1,-1,-1,1,-1,0,0
18.092641,-1,0,0,-3,1,0,-1,-1,0
18.104615,0,-1,-1,0,1,-1,0,0,0
18.104633,-1,-1,-2,-1,-2,-1,1,-3,0
18.106713,-1,1,-1,0,-2,0,-3,0,0
18.106721,-2,0,-2,2,-2,-2,-1,-1,0
18.127119,0,-1,-1,-1,-1,-2,-1,-2,0
18.127141,-1,1,1,1,0,-1,-1,2,0
18.127809,-1,-3,-2,-1,0,-3,-1,-2,0
18.127875,1,-1,-1,-1,0,0,0,2,0
18.149628,-4,-2,-1,0,-2,-1,-3,-1,0
18.149649,-2,-1,-1,1,-1,1,1,-3,0
18.151827,1,0,0,-1,-1,-1,0,-2,0
18.151834,-1,-1,-3,-2,-1,-1,-1,-1,0
18.167209,4,1,0,0,-1,0,-2,2,0
18.167229,0,1,-2,-1,0,0,-1,-3,0
18.167233,-2,0,0,-1,0,0,-1,-2,0
18.167237,1,0,-1,0,-2,0,0,-1,0
18.187498,-2,-1,-1,-2,-1,-1,0,-3,0
18.187504,-1,-1,-1,0,-2,0,-2,1,0
18.187678,-1,-2,-2,-1,-2,0,1,0,0
18.187684,-3,0,2,-1,1,0,-2,-1,0
18.209703,1,-1,-1,-3,-1,-1,-1,3,0
18.209722,1,-2,0,-1,-1,-3,-2,0,0
18.212252,1,-1,-1,-1,0,-1,-1,-1,0
18.212256,-4,-1,0,0,-1,-2,0,0,0
18.224664,-2,-2,-1,-1,-2,2,0,1,0
18.224687,-3,-1,-1,1,-2,-1,-2,-1,0
18.226126,-3,-3,0,-3,-2,-2,-2,2,0
18.226130,-2,-1,-2,-1,-2,-1,-1,0,0
18.248737,-2,-1,-2,-2,-1,-3,-1,0,0
18.248741,-1,-1,1,-3,-1,-1,0,0,0
18.248743,-1,-2,-1,0,-2,-2,-3,-2,0
18.248745,1,-1,0,-2,-1,1,-3,0,0
18.269752,-1,-2,-2,-1,-1,-2,-1,0,0
18.269773,-1,-2,0,0,-1,0,-1,1,0
18.270275,-2,0,1,-2,0,-1,0,-3,0
18.270281,0,0,-1,-2,0,0,0,0,0
18.285001,-1,0,0,-1,-1,0,-2,0,0
18.285040,0,-2,-2,-3,-1,-1,-2,-1,0
18.286085,0,-1,-3,-1,-1,-1,0,-1,0
18.286091,1,-2,-2,-1,-4,-1,0,0,0
18.307256,0,-1,0,-2,-1,0,-1,-1,0
18.307274,1,0,1,0,-2,-3,-1,-2,0
18.309299,2,0,0,-1,0,0,0,1,0
18.309304,-4,-2,-1,-2,-2,-1,-3,-3,0
18.329917,-1,-2,-1,0,0,-1,-2,-2,0
18.329937,-1,-1,-1,-3,-1,-1,0,-2,0
18.330399,-1,2,-1,-2,0,-4,0,-3,0
18.330426,1,-2,0,-1,0,-1,1,0,0
18.345201,-2,-1,-2,0,-2,-1,-2,-2,0
18.346999,-3,-2,-2,0,-2,0,-1,-3,0
18.347014,0,-2,-1,1,0,-2,1,-1,0
18.347018,-1,-1,1,1,-1,-2,-1,-1,0
18.367158,-1,0,1,1,-3,-1,0,-1,0
18.367179,0,0,-1,-1,1,-2,-2,-1,0
18.369582,-1,-1,-2,-1,-2,0,-1,-1,0
18.369588,-1,-1,0,-1,0,-2,-1,-2,0
18.390972,-1,-1,-1,-2,0,0,-1,2,0
18.390978,-1,1,1,0,-2,-1,0,-1,0
18.390980,-2,-2,-1,-1,0,0,-2,1,0
18.390982,-1,1,0,0,0,-2,-2,-3,0
18.405119,0,-1,-1,-1,-1,-1,0,-2,0
18.405125,0,1,-1,0,-1,-1,-1,-1,0
18.405127,-2,-3,0,0,-2,-2,-1,-2,0
18.405173,2,0,-2,-1,-3,-2,0,-1,0
18.426990,-2,-1,-1,-1,-3,-1,0,0,0
18.427012,-1,-2,0,0,-1,0,-1,-1,0
18.428513,-1,0,-1,1,-2,-1,-2,0,0
18.428521,-1,-1,-1,0,0,-2,0,-2,0
18.449589,0,-2,0,-2,-1,-1,1,-1,0
18.449611,-1,0,-2,-2,-1,-2,-1,1,0
18.451125,0,0,-1,0,0,-2,-2,-1,0
18.451135,-3,-2,-1,-2,1,-2,0,0,0
18.464629,1,1,-1,0,-1,-1,0,-2,0
18.464650,-3,-4,1,-1,-1,0,1,-1,0
18.466375,0,-1,-1,-2,0,1,-1,-2,0
18.466380,0,0,-2,-2,-1,-1,0,-1,0
18.487046,-3,-1,-2,-2,-1,-1,-3,-1,0
18.487063,-1,0,-2,0,-2,-3,-1,-1,0
18.487739,-1,1,-1,0,-1,-2,-1,-1,0
18.487753,-1,-3,-2,-1,0,-1,0,-3,0
18.509726,-2,-4,-3,-1,-1,0,-1,0,0
18.509751,2,2,0,-1,1,1,-1,-1,0
18.510807,0,-2,-1,-2,-3,-2,0,-3,0
18.510811,-3,0,0,0,-2,-1,-1,-1,0
18.524660,-2,-2,-1,-1,-1,-1,0,0,0
18.524679,-5,-1,-1,-1,0,-1,-1,-3,0
18.526877,0,-1,-1,-1,-1,2,0,-1,0
18.526884,-2,-1,-2,-1,-3,-1,-1,1,0
18.547686,1,0,0,-1,-1,-2,-1,-1,0
18.547813,0,-2,-1,-1,-1,-1,-2,-2,0
18.547823,-1,-1,-2,-1,0,-1,0,0,0
18.547828,2,1,0,-2,1,-2,0,1,0
18.569665,-1,1,-1,-1,-1,-2,-1,-2,0
18.569692,-4,-4,-2,-1,-2,-1,-3,-2,0
18.571595,-4,1,-2,-1,-2,0,-3,-3,0
18.571603,0,-1,0,-1,-1,1,-2,-2,0
18.584936,-1,0,-2,1,0,-1,0,1,0
18.584977,-1,-2,0,-1,-2,0,0,-1,0
18.586979,-1,-2,0,-2,-1,-2,0,-2,0
18.586986,-2,0,-2,-1,-1,-1,-2,-1,0
18.607179,-2,-1,1,-2,-1,-2,-2,-1,0
18.607184,-1,-1,-1,-1,-1,-2,-1,-1,0
18.607750,-1,-1,-1,0,-2,0,-1,1,0
18.607764,-1,0,-1,1,-2,2,-1,1,0
18.629819,0,0,-1,-2,-1,-1,0,-2,0
18.629840,2,1,0,-1,-2,-1,0,3,0
18.633110,-2,-2,-2,-2,-1,0,-1,-1,0
18.633115,1,-2,-1,-1,1,-3,-1,-1,0
18.644756,0,0,0,0,-2,2,0,-1,0
18.644785,-1,-1,-4,-1,0,0,0,0,0
18.647326,-2,-1,1,-1,-1,0,-2,2,0
18.647334,-2,-2,0,-2,-2,0,-2,0,0
18.667424,1,-1,-3,1,-1,-2,0,-2,0
18.667468,1,0,0,0,-2,0,0,1,0
18.669926,0,-1,-2,-1,-1,0,0,-1,0
18.669934,-2,-3,-1,0,-3,-1,-1,-1,0
18.689692,-5,-1,-1,-1,-1,-3,-2,-1,0
18.689714,0,-1,-1,-1,-1,-1,-1,0,0
18.690295,-4,0,-1,-1,0,-2,-2,0,0
18.690308,0,0,-1,-1,-1,-1,-1,1,0
18.704518,-1,-1,-1,-2,0,1,-3,2,0
18.704541,0,-1,1,-1,-1,0,0,-1,0
18.705929,-4,-3,-2,-2,-1,-1,-1,0,0
18.705934,-1,0,-2,-2,1,-2,0,-3,0
18.727188,2,-1,0,0,-1,0,-1,-2,0
18.727214,-2,-1,-1,-2,0,-2,-1,-1,0
18.728474,0,0,1,0,-2,-1,-1,0,0
18.728483,0,1,-1,0,0,0,-2,-2,0
18.749559,-1,-2,-2,-2,0,-1,-2,0,0
18.749569,-1,-4,-1,-1,0,0,-1,2,0
18.750368,0,-2,1,-1,-2,-1,0,-1,0
18.750374,-2,-1,-2,-2,0,-1,0,0,0
18.764596,-1,-1,0,0,-1,-2,-1,-1,0
18.764617,0,0,-2,-2,0,-1,-1,-1,0
18.766327,-1,0,-1,-1,-1,-1,-1,0,0
18.766339,-3,-2,-2,-1,-3,-1,0,-1,0
18.787222,-1,1,-1,2,-1,-1,-2,-1,0
18.787245,-2,-2,-3,-1,1,-1,-3,-2,0
18.788687,-1,-1,0,-1,1,0,-1,-1,0
18.788695,-2,-2,-1,0,-1,1,-2,-1,0
18.810048,-2,-2,-1,-3,0,-2,1,-1,0
18.810054,2,-1,0,0,-2,-1,0,0,0
18.810174,2,0,-1,1,0,-1,0,0,0
18.810180,0,-1,2,-1,-1,-2,0,-2,0
18.826639,-1,0,-2,-2,0,0,0,-1,0
18.826646,-3,-3,-1,-1,-3,-1,-2,-1,0
18.826649,1,-1,-3,-2,-1,-3,-2,-4,0
18.826651,-2,1,0,0,0,-1,0,1,0
18.847307,0,-1,0,-1,-1,-1,-1,1,0
18.849130,-2,0,-1,-1,-2,0,-1,-2,0
18.849135,0,0,-2,-1,-1,0,-1,-2,0
18.849137,-4,-3,-3,-2,0,-2,-2,-2,0
18.869649,0,0,-1,1,1,0,-1,-1,0
18.869678,-2,-1,-2,-2,0,-3,-2,-2,0
18.871986,0,-2,-1,0,1,-2,0,0,0
18.871992,-1,-3,-3,-2,-1,-2,0,-1,0
18.886737,-2,-2,-2,-4,-1,0,0,-2,0
18.886744,-2,0,-1,-1,-1,-1,-1,-5,0
18.886745,-3,-1,-1,-1,-3,-2,-1,0,0
18.886747,0,-1,0,3,1,-1,0,-1,0
18.907176,-2,-2,1,-1,-5,-2,-1,-1,0
18.907197,2,1,0,-1,-1,-2,0,-2,0
18.907747,-3,-1,-1,-1,-2,0,-2,-2,0
18.907759,0,2,1,-2,-4,-2,-3,-3,0
18.929707,-3,-1,-1,0,0,1,1,-1,0
18.929723,1,1,-2,-1,0,-2,-1,0,0
18.932296,-1,0,-1,0,-2,0,0,0,0
18.932305,-1,-1,-1,-1,0,1,-1,1,0
18.944666,1,0,-1,-2,-1,-1,-1,-2,0
18.944688,-5,-5,-1,-2,-1,0,-1,-4,0
18.947212,2,0,-1,0,0,0,-3,-2,0
18.947229,-2,-1,-1,-1,0,-1,-1,1,0
18.967112,1,0,0,-1,-1,-3,0,-1,0
18.967131,1,-2,-1,0,-3,-1,0,-1,0
18.968287,-3,-1,-1,-2,-2,0,-3,-2,0
18.968326,-1,-2,-2,-1,0,0,-2,-3,0
18.989462,2,0,0,0,-1,0,-1,1,0
18.989491,-1,-2,1,-2,-2,-1,-2,-1,0
18.997079,-7,-4,-2,-3,2,-1,-1,-1,0
18.997105,0,-2,0,-2,-2,-1,-1,-2,0
19.003945,-4,-2,-2,-3,0,-1,-1,-2,0
19.003968,1,3,-1,-3,-1,0,-1,0,0
19.014743,0,-1,0,-2,-1,-1,0,-1,0
19.014750,0,-1,-2,-1,0,1,-1,0,0
19.027247,-2,-2,-2,-2,-2,-2,-1,-3,0
19.027272,-1,-2,-1,-1,-2,-1,0,0,0
19.029143,0,-3,-1,0,-2,-1,-1,-1,0
19.029152,-3,-2,-1,0,-2,-2,-2,1,0
19.049563,1,1,-1,-1,2,-1,-2,-1,0
19.049645,-2,0,-2,-1,-1,-1,-2,-1,0
19.051710,1,-2,-1,-4,-2,-2,-1,2,0
19.051719,0,-1,-1,-1,-2,1,0,-2,0
19.064120,-3,0,-1,-1,-2,-2,-3,2,0
19.064178,0,0,-1,1,0,1,0,0,0
19.072039,0,0,-1,0,0,-2,-1,-2,0
19.072062,-2,0,-2,-1,-1,-2,-1,-1,0
19.087092,0,-2,-2,0,-1,-1,0,-3,0
19.087117,-3,-1,0,1,-1,-1,-2,1,0
19.088951,-1,1,0,-1,-1,1,0,-1,0
19.088956,1,0,-1,-1,-1,-4,2,1,0
19.109653,-2,-2,-2,0,-1,-1,-2,1,0
19.109669,-3,-3,-2,-1,0,-1,-3,0,0
19.110138,-1,0,-1,0,-5,-2,-1,-3,0
19.110153,-1,0,-1,-2,0,-3,-2,-1,0
19.123928,0,0,0,-2,-1,2,1,-1,0
19.123950,0,1,-2,-1,-1,0,1,2,0
19.132153,-3,-3,0,0,1,-1,1,3,0
19.132173,1,0,-2,-2,-1,0,-2,-1,0
19.147694,-1,-3,0,-1,-3,-1,0,2,0
19.147725,1,0,0,-1,0,-1,-1,0,0
19.150045,1,2,-1,-1,0,-1,-1,-2,0
19.150053,0,-2,0,0,-1,-2,-1,-1,0
19.170179,-2,-4,-1,0,0,-1,-1,-3,0
19.170188,-1,-2,-1,-3,-3,-2,-1,1,0
19.170312,1,-2,-4,-2,1,0,-2,1,0
19.170348,-1,-1,-2,-1,-2,-2,-1,-3,0
19.184265,-3,0,-1,-1,1,-2,-1,-3,0
19.184316,-2,0,-2,-1,0,1,0,-1,0
19.192301,-1,0,1,1,-2,0,0,-2,0
19.194791,-1,0,-2,0,-1,-1,-3,-1,0
19.207429,-1,-3,-1,-3,0,-1,-1,1,0
19.207464,0,0,-2,0,2,-2,-1,-1,0
19.208027,0,1,1,0,0,-1,-1,-1,0
19.208040,-1,-1,-1,-1,0,-1,-1,0,0
19.229653,-1,-1,-1,-2,-2,-2,-3,-1,0
19.229675,2,-2,-2,-3,0,4,0,1,0
19.232205,-2,-2,-2,0,-1,0,-1,-4,0
19.232210,-2,-3,-2,-1,-2,0,-1,-2,0
19.244378,-1,1,0,-1,-4,-1,-3,0,0
19.244400,-2,-1,-1,1,-1,-1,-2,-1,0
19.252216,-1,-1,-2,-3,-1,0,-1,-2,0
19.252235,-3,0,1,0,-3,1,0,-1,0
19.275369,-1,-1,-1,-1,-1,-1,-1,-1,0
19.275394,1,-1,0,-1,1,-2,0,-2,0
19.276722,0,0,-2,-2,1,-1,1,0,0
19.276727,-2,0,0,-1,-1,-1,-1,-3,0
19.289763,-1,1,-1,0,-1,-3,-1,-1,0
19.291508,1,-1,-3,-1,-1,-1,-1,-3,0
19.291514,-5,-2,-1,0,-1,-1,-1,-2,0
19.291516,-1,0,-1,-2,-1,-1,0,0,0
19.304035,-2,-1,-1,-2,0,0,-1,-2,0
19.304058,-2,1,1,-1,-2,-1,-3,-3,0
19.312236,-1,-1,-1,-1,-1,-1,-2,-1,0
19.312250,-1,0,-2,-2,-1,0,0,0,0
19.327146,-1,0,-1,0,-2,-1,-1,0,0
19.327160,-4,0,0,-2,-2,-2,-1,-3,0
19.327657,0,-2,0,-3,0,-1,1,0,0
19.327671,0,-1,-1,0,0,-2,-2,-2,0
19.349581,0,-2,-2,0,-1,-1,0,0,0
19.349604,-2,-1,-2,-1,-3,0,0,-2,0
19.351838,-2,-1,1,0,-1,0,-1,1,0
19.351845,0,-3,-1,-1,2,0,-1,-1,0
19.372880,0,-2,-2,-3,-1,0,0,-2,0
19.372897,0,0,1,0,-1,0,1,2,0
19.373719,1,0,-2,-3,0,0,-2,-2,0
19.373742,0,-1,-1,-2,-1,0,0,-1,0
19.387009,0,-2,-1,0,2,0,-1,1,0
19.387016,-3,-3,-1,-1,2,-2,0,-4,0
19.387707,0,-2,-1,0,-2,-2,-1,0,0
19.387720,-1,0,-1,-1,-3,-2,-2,-1,0
19.409433,0,-1,-1,0,-2,-2,-1,-2,0
19.409450,0,-2,-2,-2,-1,-1,-2,0,0
19.410312,0,0,1,-1,-1,-1,-1,-1,0
19.410316,-1,-1,-2,0,0,-1,-1,-2,0
19.432896,-3,-1,0,-1,0,0,-2,0,0
19.432901,-1,1,0,-1,-2,-1,0,0,0
19.433491,0,0,-2,-1,-1,-1,-2,-1,0
19.433511,0,0,0,-1,0,0,0,-1,0
19.449645,0,0,-1,-2,0,1,2,2,0
19.449651,0,-2,-2,1,0,-2,0,-1,0
19.449653,-3,0,-2,0,-1,1,-3,-2,0
19.449655,-1,-1,0,-1,-2,-3,-2,0,0
19.469627,-2,0,-1,0,-1,-1,-2,-2,0
19.469650,1,-1,0,-1,-2,-3,1,-1,0
19.470418,-3,-5,-3,-3,-1,-3,0,-2,0
19.470433,-3,-2,-1,-3,0,-2,1,0,0
19.493030,-3,-1,-1,0,0,-1,-2,0,0
19.493060,1,0,0,1,-1,1,-1,1,0
19.495564,-3,-2,-1,-4,0,1,-1,0,0
19.495570,0,-2,-1,-1,-2,-1,-1,0,0
19.507581,1,0,0,-3,-2,-2,-1,0,0
19.507615,-1,-1,-2,-1,0,1,-2,0,0
19.510304,1,1,1,0,0,-1,0,1,0
19.510310,-3,-3,-1,0,-1,0,-3,-1,0
19.529463,-1,-2,-2,-3,-1,-2,-1,-3,0
19.529482,-3,-2,0,-2,-2,-2,-1,-2,0
19.530297,1,0,-1,-1,0,-1,0,-1,0
19.530319,-2,0,-1,-1,-1,-1,-1,-1,0
19.552823,-1,0,-1,-1,-1,-2,-2,-1,0
19.552883,-1,-2,-1,-2,-1,-1,-2,-2,0
19.554254,0,2,-3,-1,-1,-1,-1,-2,0
19.554258,-1,-1,-1,-2,-2,-1,0,-1,0
19.567468,1,-1,-2,1,-2,-1,-1,1,0
19.567499,-2,-3,-1,-1,0,-2,0,-2,0
19.570069,1,-3,0,0,-2,-1,-1,-2,0
19.570083,-2,0,-3,0,-2,0,-1,-1,0
19.590119,-4,-1,1,-1,-2,0,-1,-2,0
19.590125,1,0,-1,-1,-2,-2,-1,1,0
19.590245,-1,0,0,-1,-1,0,-1,-2,0
19.590251,1,0,-1,-2,-1,-3,-1,1,0
19.612696,-1,0,-1,-1,1,-1,-1,-1,0
19.612717,-2,1,-1,-2,-2,-1,-2,-1,0
19.614229,-1,-2,-1,-1,-1,-2,-2,-1,0
19.614244,0,0,1,1,-1,-2,0,1,0
19.627197,-1,-2,-2,-2,-1,-3,-1,-2,0
19.627220,-4,-2,-2,-1,0,-1,-1,-2,0
19.628662,1,2,-1,0,-2,-2,0,-2,0
19.628668,-3,-4,-4,-2,-2,0,0,-1,0
19.649647,1,-2,-2,0,-2,0,1,-2,0
19.649675,-1,0,0,-1,-1,0,-2,0,0
19.651528,-2,-1,1,0,-2,1,0,-1,0
19.651620,-2,-2,-1,-2,-2,0,-2,-3,0
19.672799,-2,-2,0,-1,-1,0,-2,0,0
19.672824,1,-1,-2,-2,0,-1,-1,-1,0
19.673524,-2,-1,-2,-1,0,-2,-3,1,0
19.673541,3,0,0,0,-1,-1,-1,-2,0
19.687089,0,0,-2,-2,-2,-1,0,0,0
19.687113,0,-1,-2,1,0,1,-1,1,0
19.687839,-2,-2,-3,-1,-2,-1,1,-1,0
19.687863,-2,-1,-2,-1,-1,0,-2,-1,0
19.709749,-2,-1,0,1,-1,-2,0,-1,0
19.711452,2,-2,-1,-1,-1,-1,-2,-1,0
19.711457,-2,-1,-2,-1,-2,-4,0,-3,0
19.711458,0,0,-2,-1,-1,0,0,-2,0
19.732661,-3,1,0,-1,-1,-1,-1,0,0
19.732696,0,0,0,0,-2,-2,0,-2,0
19.733281,1,-3,-2,-1,-1,-1,-1,-1,0
19.733317,-2,-1,-2,-2,0,0,-1,-4,0
19.747270,1,-1,-1,0,-1,-1,-3,0,0
19.747301,-3,-1,-1,-2,0,-1,-1,-1,0
19.748020,-1,0,2,-2,-1,0,-1,-1,0
19.748055,-1,0,-2,-1,-1,-4,1,-1,0
19.769556,-1,-1,-3,1,-1,-2,-1,-3,0
19.769576,-1,-1,0,0,-1,-1,-1,-2,0
19.770710,0,1,0,-1,-2,-1,4,-1,0
19.770714,0,0,0,0,-1,-1,-7,0,0
19.794009,0,1,0,-2,0,-1,-2,-4,0
19.794017,-1,2,-2,0,1,-1,-2,1,0
19.794021,-2,-3,-1,0,-1,0,-1,-1,0
19.794025,0,-2,-1,0,1,1,1,-1,0
19.807128,0,-1,-1,-1,0,-1,0,-1,0
19.807151,-3,-2,-1,-1,-2,-2,-4,-2,0
19.809379,-1,0,-1,-3,-1,-1,-3,-1,0
19.809393,0,0,0,0,-2,-2,0,-2,0
19.830385,-1,1,-1,-2,-2,2,0,-1,0
19.830469,-2,-1,-1,0,1,-2,1,-1,0
19.830501,-2,-3,-2,0,0,-2,-1,-2,0
19.830523,-1,-1,-1,0,-1,-2,0,-1,0
19.852665,-1,-2,-1,-1,-1,-1,-1,-1,0
19.852683,2,-1,-1,1,-2,-2,0,-1,0
19.854223,-1,0,-1,0,0,-2,-1,-1,0
19.854237,1,1,0,-1,0,0,-1,-1,0
19.867292,-3,-4,-4,0,-1,-1,1,-1,0
19.867332,-3,-1,-3,-2,-2,1,-2,-3,0
19.869409,0,-1,0,-1,0,0,-2,-1,0
19.869413,0,1,0,-1,-2,-2,0,-1,0
19.889709,1,-3,-2,-1,0,-2,0,-1,0
19.889732,1,-3,0,-1,0,-3,-1,-3,0
19.890496,0,1,0,-3,-2,-1,-2,0,0
19.890519,-2,-2,0,-3,-2,0,-1,-1,0
19.912836,0,0,0,-1,-1,-1,-1,-1,0
19.912859,0,-1,0,-2,-3,-2,-1,-1,0
19.915322,-1,0,-1,0,-1,-2,0,-2,0
19.915329,1,1,1,0,-1,-3,-3,0,0
19.927139,-3,-2,-2,-1,-2,-3,-3,-1,0
19.927162,-1,0,-1,-2,-1,2,0,-2,0
19.929278,-3,-2,-1,-1,-2,-1,0,-1,0
19.929286,1,-1,-2,0,0,-1,5,0,0
19.950814,0,2,-1,-1,-1,-1,-8,-2,0
19.950830,-1,-2,0,-1,-1,-3,-1,-4,0
19.950834,-1,-1,-1,0,-1,0,-2,0,0
19.950838,-2,-3,-1,-3,0,-2,0,-4,0
19.972906,1,0,-1,-3,-1,-2,1,-2,0
19.972928,0,1,-1,-1,-3,0,-2,0,0
19.975056,0,0,-3,-1,0,-1,-1,-3,0
19.975061,-2,-2,0,0,-2,-1,-1,-3,0
19.986467,-2,0,-2,-1,0,-1,0,-1,0
19.986499,1,-1,-1,-1,-2,0,-1,1,0
19.996226,-1,-1,0,1,1,-1,-1,-2,0
19.996235,-2,-1,-2,-2,-2,-1,-1,1,0
20.011010,-1,-1,-1,-1,-3,-1,-1,-2,0
20.011015,-1,1,0,0,0,-1,0,1,0
20.011018,-1,-1,-2,0,-1,-1,-1,0,0
20.011019,-1,-1,-2,-1,2,-1,-2,0,0
20.032798,-1,-1,0,-2,0,0,0,-1,0
20.032823,-1,-1,-2,-1,1,0,3,1,0
20.034388,-2,0,-1,-2,-1,-2,0,-2,0
20.034413,-1,-3,-1,-1,-2,-1,-2,-1,0
22.057851,8,10,9,63,7,26,46,5,3
22.058273,-5,0,-3,-31,-31,-50,-106,-29,3
22.059259,17,3,4,-4,-22,30,6,6,3
22.059274,-11,-9,-3,25,115,-19,-6,2,3
22.072784,-13,-2,-4,-9,-4,35,50,-38,3
22.072790,37,6,0,-19,-5,-21,-20,5,3
22.082052,28,0,1,11,-15,79,71,66,3
22.082060,-5,5,0,-38,-38,39,-90,-22,3
22.095187,-18,-3,-3,33,-7,-4,57,-8,3
22.095211,-19,1,3,-14,-22,30,14,-28,3
22.097525,23,0,-2,9,-40,-97,-9,-6,3
22.097535,10,2,0,0,46,-11,-37,-16,3
22.120166,3,-9,0,21,-40,0,-112,4,3
22.120174,-2,3,-3,-16,38,33,79,25,3
22.120176,22,-15,-10,-14,-51,1,-6,24,3
22.120178,11,7,1,9,28,93,30,4,3
22.131598,11,-1,-1,19,-34,27,-75,51,3
22.131616,-42,1,0,3,84,84,-11,-24,3
22.142683,6,1,4,-3,20,7,-19,9,3
22.142689,11,5,1,-14,-101,7,75,68,3
22.155337,10,1,2,57,71,89,-1,24,3
22.155356,6,-6,-1,-6,85,-11,-43,12,3
22.156805,10,2,1,21,-40,-30,47,9,3
22.156830,-42,-6,-2,9,30,-1,-50,-39,3
22.177934,38,1,-2,-12,5,-18,6,-25,3
22.177958,-12,-6,-4,-14,-51,-71,-50,16,3
22.179154,-6,4,1,6,36,2,19,-33,3
22.179161,18,3,4,0,-67,-20,13,-12,3
22.200374,27,2,-1,14,-16,-87,3,10,3
22.200414,33,-4,-5,7,56,5,38,71,3
22.201960,-46,-18,-16,-51,-46,-94,-43,-30,3
22.201986,-17,6,6,36,-3,14,-39,-5,3
22.215293,-21,-6,-4,-26,-24,30,-6,-54,3
22.215317,-20,-3,-1,-13,-108,10,14,33,3
22.216946,-19,2,-3,-12,-51,12,-20,-61,3
22.217021,11,-1,-4,0,13,-24,11,-3,3
22.237758,2,3,0,-15,12,-26,47,-17,3
22.237782,0,-1,-2,-3,-77,45,-6,-20,3
22.239918,-10,0,1,-14,103,48,65,11,3
22.239932,-20,-2,1,10,-58,-65,-99,-49,3
22.260920,-22,-4,4,62,40,70,29,48,3
22.260926,11,-9,-6,-15,49,72,5,20,3
22.261668,-5,10,1,-15,68,1,-9,-14,3
22.261677,-16,-1,2,24,-3,9,50,18,3
22.275178,14,7,-2,-35,20,-19,-2,-6,3
22.275185,-33,-4,0,0,-93,-26,1,-40,3
22.276768,5,-1,3,27,72,2,37,49,3
22.276782,-17,1,0,-11,14,-7,22,22,3
22.298069,-6,3,-1,-25,-27,50,7,5,3
22.298103,17,13,2,18,-17,23,23,19,3
22.300365,31,-4,-1,13,68,-54,2,-22,3
22.300375,-70,-18,-4,-11,-105,25,59,-53,3
22.320227,44,-3,-3,-15,91,-75,40,5,3
22.321519,-6,-15,-6,2,24,-41,44,39,3
22.321719,28,3,-1,5,4,-15,-42,20,3
22.321725,21,1,-3,-4,33,4,32,36,3
22.335730,-8,2,-3,-20,-59,-36,-25,-22,3
22.335775,2,0,1,-5,4,-10,-32,-39,3
22.338136,0,2,2,2,-41,26,0,-1,3
22.338141,28,2,1,4,45,-8,-18,-2,3
22.358062,-9,0,-5,-15,-5,1,-16,-7,3
22.358081,22,-4,-2,-7,72,51,13,-61,3
22.360764,-9,-10,-6,27,-85,52,27,33,3
22.360770,-13,6,-1,-8,100,-72,-60,-42,3
22.380763,-4,0,-1,0,-105,-60,63,23,3
22.380790,-1,0,1,-14,34,-24,39,18,3
22.383422,-14,-1,0,29,-18,44,-17,0,3
22.383437,45,-1,-4,-22,-54,-54,72,-8,3
22.394558,1,2,1,13,95,24,-8,0,3
22.394580,-17,7,4,4,-64,-30,-32,2,3
22.401549,-2,8,3,-13,-3,3,15,-9,3
22.401569,30,5,0,1,-5,9,3,38,3
22.418033,5,0,0,-3,-12,9,-10,-7,3
22.418064,-36,1,0,-1,-5,3,3,-29,3
22.419248,-23,-3,-4,5,43,-21,-25,5,3
22.419269,54,3,6,1,39,106,40,26,3
22.440325,-58,-8,-2,-11,-85,29,68,-17,3
22.440347,17,-6,-8,14,40,-50,-66,26,3
22.442370,14,2,5,-7,-128,-7,15,-29,3
22.442373,-20,-5,-2,65,104,79,36,23,3
22.454598,30,-6,-6,-27,-41,13,-42,-19,3
22.455745,10,8,5,-7,16,-8,22,8,3
22.462907,10,-6,-2,23,75,33,-18,12,3
22.462912,-10,-7,-4,-18,18,31,-87,-10,3
22.479184,19,6,4,6,-24,5,25,49,3
22.479190,-36,-4,-4,11,64,42,-11,-116,3
22.479192,29,4,5,-18,37,-60,-24,83,3
22.479194,11,6,-3,-8,-73,62,-7,-7,3
22.500619,10,-15,-4,-4,2,-2,28,16,3
22.500650,1,2,0,-9,-15,-1,-28,-11,3
22.502264,49,4,-1,-3,58,-45,26,-22,3
22.502269,-13,-8,-9,-28,-90,85,53,-50,3
22.515035,-31,0,2,24,-83,-4,-71,-19,3
22.515069,29,5,0,-13,-1,2,21,28,3
22.521382,-4,-4,0,20,22,8,37,-15,3
22.521405,-11,-1,-2,-12,-51,-7,3,35,3
22.537734,11,5,3,3,58,2,-36,0,3
22.537751,-24,-11,-1,-12,55,92,86,17,3
22.539383,-7,-2,0,-39,-32,-38,37,-47,3
22.539391,-3,8,2,41,69,-79,-79,65,3
22.560569,-6,-1,2,0,54,-5,121,-16,3
22.560676,-10,-9,-4,15,-75,-77,-22,-31,3
22.561728,50,4,-2,-17,-54,21,23,23,3
22.564631,5,-1,0,-4,61,9,97,-24,3
22.574604,-65,-10,-5,-12,75,41,-34,-20,3
22.574624,33,2,1,34,-37,26,22,39,3
22.581520,-9,0,-5,-26,-64,24,-61,-22,3
22.581544,-4,5,7,-1,-53,-51,-8,16,3
22.605311,10,-7,-12,-13,47,36,-29,54,3
22.605320,-15,1,1,-25,-121,22,-58,-23,3
22.606684,58,5,-1,1,45,25,15,14,3
22.606718,-11,0,-1,-9,-52,-14,-23,1,3
22.620242,-8,-2,-3,-17,15,5,39,-1,3
22.620252,-14,-6,-4,-35,31,-52,-31,12,3
22.621816,-10,1,2,39,11,-22,-10,-11,3
22.621930,22,6,1,-4,17,-12,-1,26,3
22.635691,16,-2,1,6,-8,29,-19,-12,3
22.635698,-15,4,-1,-7,-104,1,15,-13,3
22.641710,-22,-5,-2,-3,-37,30,-37,-33,3
22.641731,-4,-12,-2,5,85,49,42,5,3
22.658264,-13,8,2,5,-121,16,-50,-16,3
22.658288,7,-4,-2,9,111,7,12,-13,3
22.659921,-46,0,4,-2,19,-25,42,27,3
22.659926,88,6,3,12,-75,-21,20,9,3
22.682594,-51,-3,-6,-16,-12,-22,-25,-25,3
22.682602,57,1,1,-3,25,-1,9,-25,3
22.682605,-67,-8,0,-3,43,-48,8,51,3
22.682607,-5,1,-2,-13,8,-23,-53,-25,3
22.694279,23,7,7,-29,-31,70,107,68,3
22.694309,25,-3,-3,28,-124,-45,-51,-28,3
22.703974,-22,-16,-9,3,94,-1,-43,-9,3
22.703983,29,1,2,-10,17,-34,19,52,3
22.718088,-3,5,4,14,-7,3,3,-61,3
22.718128,-44,-6,-2,17,47,-5,-29,-9,3
22.719638,30,6,6,-2,-11,24,-6,-41,3
22.719647,-34,-10,-13,17,104,25,-62,-34,3
22.740369,42,9,2,-2,-59,-6,1,8,3
22.742249,-45,-11,-8,-53,-37,-23,-7,10,3
22.742256,-8,-7,-2,33,-60,29,87,-24,3
22.742258,0,-1,-2,-24,-29,4,-15,-21,3
22.753822,-33,-5,-1,7,43,-52,-30,11,3
22.753842,15,2,1,1,15,-1,29,3,3
22.769229,18,8,-3,-37,4,15,4,11,3
22.769253,-69,-5,0,-2,-77,-40,-15,24,3
22.778114,10,-6,-4,15,41,-5,-89,1,3
22.778144,81,8,-1,-11,-18,-5,81,34,3
22.780371,-78,-7,-5,-32,-44,112,-21,-40,3
22.780386,18,1,-1,-4,-49,-48,-28,15,3
22.800803,11,-3,-5,-6,127,24,4,-8,3
22.800857,-8,7,5,30,-23,-10,12,67,3
22.802515,37,-1,4,13,52,-9,34,29,3
22.802520,-24,0,2,-1,-58,4,-44,-14,3
22.813987,-19,-6,-7,-9,85,86,78,41,3
22.814013,-13,-10,0,44,-60,-40,10,-41,3
22.823220,6,-2,0,5,-102,87,26,59,3
22.823225,-21,6,8,4,68,13,59,-23,3
22.838802,46,4,1,17,-12,-3,21,-3,3
22.838809,3,19,7,-33,20,6,8,58,3
22.839144,-19,-2,0,24,-9,-103,11,6,3
22.839151,10,-2,3,-4,36,27,-35,-28,3
22.860466,-23,0,-7,1,-66,-52,-69,-23,3
22.860483,-40,-14,-3,-8,54,22,27,-18,3
22.862460,-19,-8,-9,-22,-46,-17,-106,5,3
22.862464,-31,-2,-1,-3,-15,6,16,3,3
22.874055,10,6,5,4,85,-69,-10,30,3
22.874072,15,3,1,10,-20,6,-61,-15,3
22.884519,-6,4,1,1,9,-14,-19,-2,3
22.884530,31,9,2,-1,-14,21,43,-21,3
22.898166,-57,-12,-10,17,-108,16,-78,-48,3
22.898191,102,14,6,-69,-82,32,105,125,3
22.900106,-49,-33,-23,35,26,-66,-72,-72,3
22.900116,75,-7,-2,-10,-112,-22,40,127,3
22.920332,54,3,8,14,41,41,41,34,3
22.920350,-33,3,-4,-17,-43,-28,-67,-7,3
22.921775,38,16,5,-10,-49,16,-37,-6,3
22.923136,-26,-4,-4,-13,-52,-11,-20,-21,3
22.934033,-10,-4,2,7,16,-45,-4,-45,3
22.934067,-12,-3,-3,22,54,2,-8,-48,3
22.943657,5,6,4,-16,-4,7,64,19,3
22.943662,-35,-4,-2,16,46,-18,5,-46,3
22.958271,28,4,4,-14,-15,3,14,15,3
22.958300,-22,-3,0,17,22,22,-1,0,3
22.960402,-4,1,0,-11,92,22,37,0,3
22.960407,42,6,3,-2,70,-53,-60,-6,3
22.980270,47,-12,-13,-33,-128,18,61,8,3
22.980292,-51,-24,-10,30,118,22,-12,-30,3
22.981807,-23,-5,-4,-13,-83,22,56,-33,3
22.981826,-17,-16,-9,5,-18,7,-29,3,3
22.994877,13,10,1,-15,-44,-22,22,5,3
22.994883,18,11,3,-2,-24,-8,-9,-9,3
23.003877,18,8,6,6,-6,10,14,42,3
23.003882,-6,1,-1,2,27,29,37,-38,3
23.018039,-20,-1,1,-2,-25,-37,-19,-2,3
23.018068,-3,-2,-3,-2,-7,12,-9,11,3
23.020005,21,10,6,4,-29,-48,-53,2,3
23.020011,27,12,6,6,-86,-6,-56,-17,3
23.040608,-83,-12,3,12,72,33,87,87,3
23.040613,25,1,-1,12,18,42,7,-55,3
23.041701,-6,-1,-3,-20,-5,-1,-2,30,3
23.041767,-5,-8,-2,25,50,23,51,4,3
23.055772,23,6,5,8,27,-1,1,-28,3
23.055828,-5,-1,0,-6,-39,-3,-37,19,3
23.065254,-8,3,2,-6,27,4,9,17,3
23.065261,4,-1,0,-1,16,11,50,14,3
23.078127,-26,-1,3,5,-13,-29,-34,-24,3
23.078152,18,-2,-3,-31,-69,-49,-47,64,3
23.079776,-15,-1,0,-2,56,56,65,1,3
23.079782,24,1,5,17,-15,98,4,77,3
23.100517,-4,-8,-5,-9,-107,3,2,34,3
23.100604,-46,-5,-2,-7,110,83,20,-20,3
23.102514,5,-4,-3,-12,-74,11,-54,29,3
23.102520,-11,-3,-5,-12,-20,-40,-2,-22,3
23.114212,-6,8,3,9,6,-30,-14,-22,3
23.114246,2,5,1,7,-19,-3,9,44,3
23.124762,-14,-5,-4,4,14,-65,-52,-49,3
23.124768,-25,0,-2,-5,41,-10,32,-23,3
23.137839,19,-2,-2,-6,18,-16,-51,-29,3
23.137861,-5,-1,-1,3,-11,-25,25,-19,3
23.139300,22,3,2,8,44,-1,0,-22,3
23.139315,-18,6,1,-9,-46,-26,18,-15,3
23.160323,16,-2,-3,18,-21,64,-19,9,3
23.160353,24,-9,-3,2,-24,-47,86,-3,3
23.162315,-82,-6,2,10,61,57,-27,38,3
23.162320,26,-2,-5,-32,-72,7,69,-11,3
23.182892,-18,9,4,25,-58,43,-6,-10,3
23.182914,9,-2,3,9,38,-33,42,-3,3
23.184511,17,5,3,26,14,1,15,0,3
23.184539,-10,-9,-6,-5,94,-31,28,12,3
23.197725,13,0,-1,-6,29,-50,-6,-30,3
23.197743,0,-2,-6,-6,-82,-38,-88,-24,3
23.199211,-29,-13,-5,-26,-40,-116,33,-71,3
23.199278,-6,7,1,23,8,19,-68,-30,3
23.220359,44,-3,0,-10,5,-1,22,-64,3
23.220379,-38,1,3,-4,-55,-43,-2,44,3
23.221741,47,6,-1,13,-4,127,23,-16,3
23.221753,55,1,1,-7,-33,27,65,85,3
23.243170,1,-9,-5,-8,96,9,-10,10,3
23.243177,-2,8,-2,5,-40,37,-20,-9,3
23.244222,22,2,2,-14,-18,-5,-14,4,3
23.244236,-10,4,-4,-15,-71,-19,-4,-23,3
23.258283,12,-9,-3,1,91,-30,-17,12,3
23.258290,-5,0,6,2,-19,14,-6,-8,3
23.259106,35,-2,-4,-34,48,15,-36,-5,3
23.259113,-21,-7,3,32,-10,2,-41,-27,3
23.280541,-15,0,0,-8,-18,-33,-37,7,3
23.280565,-4,-7,-6,-2,37,15,-69,-53,3
23.282479,23,-1,-3,-11,-100,-13,20,20,3
23.282484,-37,-1,0,13,50,11,-23,-26,3
23.302754,-7,7,0,-13,-54,-3,41,1,3
23.302781,32,3,2,6,49,88,24,16,3
23.304442,-75,-2,-3,7,17,43,94,-2,3
23.304628,46,-4,-2,-15,-6,60,48,-15,3
23.317482,-41,0,2,3,-22,-85,36,58,3
23.317520,-14,-4,-8,28,53,23,6,-79,3
23.324105,-9,0,1,1,-87,7,1,-3,3
23.324122,2,-2,-4,-9,7,25,-77,23,3
23.340374,10,-3,-3,-17,-45,32,12,-12,3
23.340389,-8,1,-2,-15,-21,-41,35,44,3
23.341881,24,6,4,15,-56,72,32,16,3
23.341888,-17,-10,-4,-2,84,91,-12,-9,3
23.363015,35,2,1,-9,-47,-60,-19,-22,3
23.363038,-4,4,3,-3,-41,-19,-16,34,3
23.365305,-13,-8,-5,-3,2,-43,-39,8,3
23.365309,-14,0,-2,-8,-68,-74,-4,-3,3
23.376994,40,11,3,-9,91,93,16,10,3
23.377018,-17,-6,1,-11,32,11,68,13,3
23.384270,16,1,-4,-26,1,-55,-89,24,3
23.384316,43,-1,2,10,57,-49,3,-15,3
23.400376,8,4,1,6,60,19,-1,-14,3
23.400390,-18,-2,-4,-1,-46,-18,-56,-7,3
23.401710,-31,-9,-4,14,22,-5,21,-11,3
23.401720,-23,1,1,-8,36,-1,-42,32,3
23.423053,29,-8,-1,14,-44,10,22,21,3
23.423077,-15,-3,-2,-10,-44,61,12,46,3
23.424925,-59,-5,-2,14,86,11,10,3,3
23.424933,-22,-3,-3,-7,36,-75,37,-8,3
23.437755,-17,0,-6,3,36,89,-61,-15,3
23.437778,-3,2,3,-1,-69,-11,10,-1,3
23.444645,-15,-3,-1,-2,25,-65,-54,3,3
23.444796,16,-4,-5,-16,-121,-19,12,8,3
23.462098,-16,0,-1,3,-21,68,-1,-30,3
23.462105,47,2,1,9,57,65,72,-6,3
23.462107,22,-1,2,4,46,45,81,32,3
23.462110,-18,3,6,4,-12,78,14,6,3
23.482844,28,-8,-7,-24,-30,-44,-69,-42,3
23.482869,-19,-7,-6,1,-21,1,-59,61,3
23.484613,49,8,4,-1,50,9,15,-32,3
23.484623,-62,-4,-1,18,47,2,-24,-20,3
23.497499,-5,-1,-1,3,-12,-73,55,35,3
23.497538,-33,0,-1,-14,-17,-7,-11,-11,3
23.503898,73,0,-5,-30,-96,63,-17,3,3
23.503921,-4,-1,-2,7,-18,-22,36,-3,3
23.520192,-23,4,3,3,-39,48,59,3,3
23.520212,12,-13,-7,0,77,10,-49,-91,3
23.521756,17,0,0,0,-63,-26,-3,19,3
23.521763,0,1,0,-2,89,-2,-12,-10,3
23.543254,-4,4,3,7,-24,-34,7,6,3
23.543274,25,-8,-5,-52,-84,66,50,0,3
23.544883,27,1,-1,66,95,9,106,10,3
23.544887,-79,-8,-3,-9,-15,12,-12,-42,3
23.557126,21,-5,-4,4,23,-36,4,24,3
23.557201,-11,9,2,1,29,-30,7,27,3
23.564627,-11,-1,-6,-23,-40,-25,-67,-22,3
23.564660,43,3,3,-1,29,44,55,56,3
23.580337,-33,1,1,0,66,50,15,33,3
23.580370,22,3,4,27,63,65,2,12,3
23.582424,-35,-11,-6,-7,-30,-16,-84,-53,3
23.582429,24,3,1,9,22,-20,19,49,3
23.602669,-34,-1,-1,-9,27,-40,-50,-10,3
23.602676,55,3,0,18,40,-25,-6,11,3
23.604266,-9,0,1,-14,-3,-70,37,8,3
23.604282,17,-2,0,37,-8,-16,-20,-17,3
23.617820,-17,1,-2,-18,-58,-12,27,7,3
23.617843,-26,-11,-6,-5,-50,-121,4,10,3
23.624048,33,6,7,44,52,17,16,-39,3
23.624073,-11,2,-2,-31,-128,-32,17,-11,3
23.640658,1,-2,-5,-2,-3,0,-18,-9,3
23.640682,-7,3,5,17,22,58,42,-31,3
23.642687,-23,0,1,-14,-39,-55,-55,6,3
23.642693,10,3,2,-8,57,14,-83,-20,3
23.662902,-36,-11,-1,15,33,-1,74,-10,3
23.662936,-7,-2,-3,-13,79,33,29,-3,3
23.665088,-17,4,0,-37,-86,46,3,-24,3
23.665095,5,-11,-5,29,-12,52,5,3,3
23.676852,55,-5,-7,-4,-16,-8,19,-37,3
23.676876,9,4,2,0,-23,-29,33,59,3
23.686661,-22,-3,-1,-14,-3,-14,-57,13,3
23.686666,3,1,-6,-31,-50,8,54,-28,3
23.700595,46,9,3,3,-38,-41,-110,16,3
23.700633,-22,-5,-5,2,-29,42,18,-31,3
23.702831,16,2,1,41,89,-41,-61,5,3
23.702840,9,-8,-5,-18,56,91,59,36,3
23.723002,-9,-9,-3,2,-81,-92,-49,-71,3
23.723032,-13,2,0,0,-14,-17,-36,-6,3
23.724939,14,-2,-2,-8,-45,12,-4,28,3
23.724945,-9,3,1,-3,5,-54,-14,-14,3
23.736486,2,2,3,-6,18,37,22,12,3
23.737619,6,-3,-4,14,-46,29,-95,-17,3
23.747188,22,-3,-2,-2,55,20,66,4,3
23.747198,-48,7,4,23,-89,0,15,4,3
23.760285,49,-11,-3,2,15,-11,14,21,3
23.760305,-14,-3,-2,-15,19,-30,-2,-57,3
23.761618,-10,-4,-1,25,48,77,60,13,3
23.761632,0,0,-5,-5,-1,-3,40,-3,3
23.782832,-26,6,4,4,24,9,27,-3,3
23.782862,-9,3,1,1,9,-44,23,-25,3
23.785203,7,3,1,-5,-16,-8,3,27,3
23.785209,26,2,1,-4,30,-29,-43,-22,3
23.796748,-37,-2,-1,2,-42,22,6,9,3
23.796782,3,7,5,-1,75,65,4,28,3
23.806438,21,2,5,-28,-128,-23,-48,-6,3
23.806445,3,-2,-8,16,-16,-80,-61,33,3
23.822183,-28,-12,3,5,10,78,-57,24,3
23.822189,-24,-17,-8,26,-50,-38,-20,47,3
23.822192,-21,-8,-4,-2,56,48,-12,2,3
23.822193,9,4,2,-12,17,-18,-14,-15,3
23.843089,24,14,3,5,-22,26,47,-5,3
23.843105,-58,3,4,-3,-10,-27,-9,-7,3
23.844971,-5,-1,-2,-9,-43,10,28,5,3
23.844975,21,0,2,11,-13,5,-20,13,3
23.856401,2,0,-3,-8,25,23,21,-10,3
23.856423,33,-1,1,-10,-24,-9,-7,15,3
23.866001,-35,-2,-1,-9,79,-19,-3,67,3
23.866014,-24,-5,-1,-13,45,68,10,-17,3
23.881377,15,4,4,1,58,-73,-38,34,3
23.881426,5,-4,-3,-22,-86,7,23,8,3
23.883475,45,3,-3,13,22,61,76,61,3
23.883481,23,-3,-4,-8,-25,9,-5,-15,3
23.902704,-39,0,-4,4,125,-29,-15,-18,3
23.902722,31,4,-1,-5,-29,-14,10,-15,3
23.904230,-26,-7,-4,-3,-12,-6,15,-72,3
23.904302,6,-1,0,-6,-104,-19,-13,28,3
23.916597,5,-3,-4,2,51,95,18,-76,3
23.916619,-18,-6,-2,-10,-32,-31,-8,19,3
23.927573,-11,7,6,11,-110,-21,-19,-37,3
23.927580,-8,-4,-5,-11,-31,-88,-49,62,3
23.940512,2,-11,-5,-1,22,12,-17,-14,3
23.940534,21,8,3,-4,-1,29,-19,-13,3
23.942827,45,1,-1,32,39,-41,15,15,3
23.942831,-50,1,2,-1,-46,-9,18,-8,3
23.962837,-11,3,-1,-2,-48,38,-31,-34,3
23.962851,16,-5,-6,0,4,11,41,-19,3
23.964342,-5,-6,-3,-11,-15,-9,40,-91,3
23.964364,10,2,0,-2,127,3,2,21,3
23.976380,10,-1,-2,-1,-21,-34,35,13,3
23.976427,1,5,2,1,43,-12,16,-28,3
23.986782,-15,-3,0,6,-58,-4,19,26,3
23.986788,4,-6,0,12,58,42,13,-18,3
24.000499,19,4,4,2,-128,-4,4,25,3
24.000536,26,8,4,22,61,-42,38,27,3
24.002703,-48,0,-4,-22,-63,8,-17,-7,3
24.002709,8,-8,0,-1,-33,-24,6,19,3
24.023260,-52,1,0,-11,7,-9,42,35,3
24.023267,-41,6,1,-19,10,37,-45,-28,3
24.024182,4,-5,-2,-4,79,12,-44,16,3
24.024196,32,-4,-6,-12,102,32,-25,-102,3
24.037791,-18,-9,0,-5,-102,-9,15,31,3
24.037801,-12,3,0,-9,42,-75,37,22,3
24.046080,-42,-3,-1,-2,-30,57,10,15,3
24.046084,5,6,-1,-9,-25,32,-3,4,3
24.060392,11,-1,-1,0,-27,-16,-24,-7,3
24.060478,23,3,-4,-14,7,11,-8,7,3
24.062730,5,-4,-1,2,-7,-4,19,-23,3
24.062734,-43,-2,3,10,-15,-19,37,12,3
24.082881,-58,-8,-6,-9,-64,76,34,-10,3
24.082908,9,-9,-3,-8,-68,-17,-63,15,3
24.085104,18,1,-2,42,50,-75,-38,-3,3
24.085109,28,7,4,-3,-35,20,12,27,3
24.105682,-39,-6,-6,-10,89,-1,15,-70,3
24.105705,-18,-7,-2,16,97,-18,-94,-22,3
24.107373,28,-1,2,-3,13,44,12,18,3
24.107377,-53,-3,-1,-8,-22,12,7,7,3
24.120215,49,-2,-2,9,44,-22,-2,28,3
24.120233,5,5,3,10,-8,-19,37,10,3
24.121728,-1,2,0,-16,-80,46,-31,-8,3
24.121746,11,1,1,9,96,14,76,-48,3
24.142869,26,-2,-5,-13,-13,64,-3,8,3
24.142886,-6,1,1,0,24,39,9,13,3
24.144613,44,1,2,10,27,22,4,-18,3
24.144617,-2,-1,-3,0,-57,-27,-8,22,3
24.165577,34,8,-1,-25,-84,-48,-56,-11,3
24.165582,1,2,0,-9,58,-17,34,5,3
24.167080,-27,-8,-5,19,-26,66,-21,4,3
24.167117,54,1,0,-22,-23,9,21,3,3
24.181090,-56,1,-3,-2,-4,-46,-25,0,3
24.181106,31,-7,0,42,-29,-23,-91,4,3
24.181829,39,0,2,-22,54,10,51,2,3
24.181854,-15,-3,-2,-4,-106,-18,12,18,3
24.202749,-10,5,6,24,122,55,19,15,3
24.202768,1,0,-1,-14,-48,5,-2,-13,3
24.204217,32,1,-3,-10,28,-44,-4,41,3
24.204229,-40,-5,-3,16,-97,7,-15,-25,3
24.225355,49,-6,-3,-24,67,34,17,67,3
24.225377,-24,-11,-8,-7,-33,45,16,-65,3
24.227415,-10,9,1,-3,-8,-42,-3,-22,3
24.227421,40,-2,-4,-8,26,0,-13,8,3
24.240392,2,-6,-1,-1,18,28,33,37,3
24.240413,8,1,1,2,-19,-16,27,9,3
24.242659,-42,-6,-8,-15,29,7,37,19,3
24.242669,25,5,0,-9,-59,-12,-17,-9,3
24.270281,-39,-8,-6,6,-36,72,51,-79,3
24.270305,57,8,3,5,39,58,74,46,3
24.271669,-85,-5,-1,-8,-6,-14,22,-9,3
24.271678,14,0,2,5,50,34,-52,9,3
24.285554,10,-1,0,35,34,-77,31,-4,3
24.285578,-41,-4,2,-4,-47,-56,-62,14,3
24.286969,29,5,-1,-5,-65,-38,30,63,3
24.286981,-21,-4,-2,-17,82,11,-74,-43,3
24.299659,-21,7,8,24,-60,-19,-61,26,3
24.299696,-22,-5,-8,-4,-56,112,-7,-55,3
24.306320,48,4,2,1,127,32,13,47,3
24.306337,-76,-8,-2,-6,-21,4,35,13,3
24.322771,6,5,8,-8,-28,-14,8,-5,3
24.322779,23,-9,-13,-29,-60,-44,-38,-6,3
24.324272,-77,-12,-4,2,-76,88,66,-9,3
24.324286,37,-1,-1,15,27,4,3,20,3
24.345364,-13,1,-2,-2,16,-34,-25,-19,3
24.345385,6,-1,0,-24,-99,-10,27,7,3
24.347666,42,0,0,-8,47,11,8,-4,3
24.347684,-22,5,5,28,85,-2,54,-2,3
24.359683,48,-2,0,-4,-23,-3,-46,32,3
24.359707,19,-4,0,-28,-47,-18,13,-7,3
24.366465,-37,-1,3,15,9,-77,-17,-6,3
24.366490,27,3,-3,-9,33,16,-5,-25,3
24.383950,10,1,1,22,79,5,43,-14,3
24.383958,-47,1,2,13,44,39,16,25,3
24.384613,12,-1,-2,-6,-12,-42,-98,-61,3
24.384623,-23,-1,-1,-10,-59,-48,3,1,3
24.405243,19,3,0,12,48,31,30,15,3
24.405260,-5,-1,1,14,40,40,9,-18,3
24.408252,-61,0,3,0,-26,11,-1,10,3
24.408260,37,-2,-2,0,-18,-73,-19,-7,3
24.419543,-10,-1,-1,-21,69,17,30,3,3
24.419561,-10,1,-1,15,32,15,27,12,3
24.434139,-49,-4,-4,-23,-65,-19,-12,-120,3
24.434172,20,2,3,19,26,79,33,39,3
24.442962,-12,0,-7,-40,-128,-50,-24,5,3
24.442992,42,0,3,26,-14,-27,0,-5,3
24.445527,11,-2,-1,-7,23,-26,-18,-2,3
24.445532,8,-2,-2,-6,-16,-12,0,-8,3
24.465300,-25,-8,-5,-12,6,-19,-3,-17,3
24.465325,-6,1,2,2,-11,-5,-15,-2,3
24.467167,58,2,-5,-6,40,-37,-43,16,3
24.468511,-28,-2,1,1,2,44,1,-11,3
24.479672,23,-5,-3,10,-31,-19,-22,33,3
24.479693,21,0,-5,-10,33,-9,12,-5,3
24.486371,33,1,0,9,-6,53,-22,26,3
24.486398,-2,8,0,-6,-25,16,-12,26,3
24.502755,37,-3,-4,-25,30,61,21,-3,3
24.502783,-32,1,4,56,-59,21,10,-1,3
24.504262,26,-1,-5,2,-56,-18,-9,-14,3
24.504299,17,1,-2,-5,-32,3,4,34,3
24.525165,-20,-3,0,3,60,14,-37,-5,3
24.525172,-12,-5,-3,-14,10,-10,-13,0,3
24.526716,24,5,5,-3,-68,16,20,20,3
24.526731,-12,-3,-4,0,13,-21,-11,-13,3
24.548346,42,2,0,8,-31,-38,-13,9,3
24.548388,-40,-6,-4,-20,13,3,24,23,3
24.550001,1,2,3,8,16,-28,-21,14,3
24.550011,4,-4,-7,-14,-12,17,-22,-38,3
24.562817,-51,-1,0,0,-27,-38,-14,-16,3
24.562905,-39,-6,-1,-27,60,30,21,-29,3
24.565165,-2,-3,-1,-17,-17,58,21,1,3
24.565173,-10,3,2,50,-11,-18,58,-13,3
24.585490,15,0,-3,16,47,58,36,-9,3
24.585538,14,2,-4,-20,11,2,33,27,3
24.586710,-60,-11,-5,-8,76,-10,6,-26,3
24.586714,-1,-7,0,-12,10,-26,-12,-2,3
24.598972,16,-8,-4,0,-56,-19,-3,-11,3
24.598996,21,7,4,9,26,-43,13,4,3
24.610336,37,5,1,-24,-72,-47,-34,22,3
24.610342,14,1,0,7,49,-5,12,-23,3
24.623098,-36,-2,-5,-5,-19,-58,16,42,3
24.623124,-2,-3,-3,1,30,2,-48,5,3
24.624359,4,-6,-3,3,-44,3,24,30,3
24.624366,9,-3,-2,-15,-25,-3,-19,23,3
24.645222,2,4,-1,-1,-29,-28,-46,-2,3
24.645245,13,2,3,7,6,-2,27,-18,3
24.646946,22,5,2,-4,-10,26,-28,2,3
24.646973,22,0,6,24,-47,-10,89,-14,3
24.658829,9,-11,-4,-13,-55,-11,20,-11,3
24.658848,30,2,0,10,90,9,8,-15,3
24.668003,-25,-6,-3,7,21,24,14,-15,3
24.668041,-14,0,0,-18,-5,-11,-32,7,3
24.683291,4,9,3,0,-58,10,24,-8,3
24.683300,11,-3,-2,1,-20,-13,-30,-5,3
24.684434,-1,2,2,4,23,-23,26,-1,3
24.684472,-6,3,1,-1,5,52,-16,26,3
24.705249,16,8,-1,-29,-69,-1,-20,0,3
24.705271,-62,-4,1,-10,39,2,-70,-10,3
24.707315,-35,-4,-3,23,-49,-28,-29,-18,3
24.707324,6,-11,-8,15,69,100,-30,23,3
24.718995,-11,-1,-1,0,-5,-17,-11,-11,3
24.719024,32,5,1,-1,-9,-32,7,19,3
24.729704,51,1,0,-4,-95,-25,8,13,3
24.729717,-41,2,4,-5,31,12,-3,-17,3
24.742744,0,2,2,8,38,37,30,-9,3
24.742762,9,-4,-4,-1,-1,-46,-8,-3,3
24.744302,-31,-2,-2,20,41,7,37,54,3
24.744311,16,1,-3,-17,-48,-127,-84,-13,3
24.765438,51,4,1,8,51,48,93,31,3
24.765463,-96,-26,-15,-4,-118,-51,-41,-31,3
24.767118,34,1,0,-10,127,45,-27,6,3
24.767162,37,-1,-6,-20,-41,-8,5,2,3
24.779145,-21,0,0,32,32,-17,-22,-33,3
24.779161,6,10,3,-8,-15,115,39,-52,3
24.788523,-12,0,-2,4,84,75,10,19,3
24.788528,-23,-8,-9,-58,-81,-51,1,-82,3
24.802839,-5,-3,0,37,-11,31,-50,7,3
24.805014,7,-1,0,-1,43,19,50,10,3
24.805020,-9,6,3,8,60,-7,12,-20,3
24.805022,23,-6,-5,-17,0,57,31,19,3
24.825454,-87,2,-2,-18,16,-8,-34,-1,3
24.825470,68,5,3,4,-48,-21,21,6,3
24.826697,-33,-12,-4,-6,-88,-32,-79,-26,3
24.826728,-2,-1,-2,11,35,8,21,-1,3
24.838798,-41,-8,-3,-14,-81,-7,-22,-36,3
24.838813,15,13,8,32,1,29,2,41,3
24.850608,5,9,6,-3,110,18,38,-36,3
24.850622,0,-7,1,7,29,-1,14,15,3
24.863020,10,-5,-4,-10,60,-9,-9,0,3
24.863045,-50,-1,1,-11,58,-5,24,19,3
24.865074,-29,-10,-6,-8,-111,-24,-70,4,3
24.865081,-19,4,1,-7,-8,31,57,50,3
24.885250,-14,-5,1,32,56,69,1,-25,3
24.885258,14,-1,-5,-16,-81,-30,21,-14,3
24.886878,-8,-5,-8,-15,6,9,-3,58,3
24.886895,-20,-2,3,33,-8,-8,-77,-9,3
24.900804,29,0,-3,-17,-1,-31,3,4,3
24.900816,6,-1,-2,-9,-67,-5,2,16,3
24.910167,32,-7,-1,6,45,-68,-37,-18,3
24.910173,5,6,1,-13,-109,-17,35,31,3
24.922845,-39,-2,0,-13,25,-16,6,-19,3
24.922880,9,-4,-6,6,-35,-14,-43,2,3
24.924859,42,0,0,3,12,28,93,-13,3
24.924866,-7,-4,-6,-2,-61,-55,-73,-19,3
24.946528,68,5,3,-7,59,-48,-67,-14,3
24.946542,23,-9,-5,3,27,3,7,29,3
24.946711,-9,3,1,0,-28,-3,15,-40,3
24.946719,-4,2,6,8,-37,-10,-11,-7,3
24.959411,-14,-5,-5,-35,-63,104,12,63,3
24.959441,29,1,-2,-50,-68,-13,29,-5,3
24.969648,-21,6,0,50,45,-51,-44,-29,3
24.969656,43,-6,-1,9,10,19,24,-41,3
24.982850,1,-4,-2,-15,40,3,18,34,3
24.982880,36,3,5,12,-1,54,39,-37,3
24.984976,22,3,0,-10,-52,6,12,35,3
24.984986,-44,1,-1,-8,47,-5,11,-24,3
25.005260,0,9,3,15,96,-1,54,-5,3
25.005284,5,4,3,18,37,-13,-105,45,3
25.007010,64,-4,-5,-16,-69,11,-15,-55,3
25.007022,28,-14,-3,11,-3,19,47,-1,3
25.019083,20,-3,-5,-26,-45,13,24,4,3
25.019101,-38,-3,-1,24,32,27,-22,-15,3
25.028817,-1,8,3,-12,-37,-3,8,24,3
25.028822,-17,-4,-5,-10,93,-12,-1,-27,3
25.042761,8,-1,-2,-5,-74,-41,49,0,3
25.042810,13,-1,-1,-24,33,62,-7,-16,3
25.044619,-86,-5,-3,0,-34,13,12,67,3
25.044623,12,1,-2,12,116,60,5,-17,3
27.067435,-4,-3,0,-5,-1,-1,0,1,0
27.067839,8,1,-1,-2,0,-4,-3,-4,0
27.067978,2,-1,0,1,-2,-1,-1,-1,0
27.068032,-2,-1,-2,0,-1,-1,-2,-1,0
27.089811,-3,0,-3,-2,-2,-2,-1,-3,0
27.089829,-12,-3,0,-1,1,-1,-1,-3,0
27.091528,-1,-4,-1,-2,-2,-3,-2,0,0
27.091535,8,1,1,1,0,1,-1,-1,0
27.112668,0,1,-1,0,1,-1,0,0,0
27.112683,-7,-3,-1,0,-2,-1,-1,-1,0
27.113541,4,-5,-5,-5,-2,1,-2,-2,0
27.113562,-5,2,4,2,-2,0,-1,-1,0
27.126900,0,0,-1,1,-1,-1,-1,0,0
27.126907,-3,-2,-1,-3,-1,0,-1,-1,0
27.127609,2,-1,0,0,0,-1,-1,-2,0
27.127622,-1,1,-3,-4,-2,-3,-2,-1,0
27.149568,-3,-1,-1,1,2,0,-1,-2,0
27.149593,2,-1,1,-1,-1,-1,-1,0,0
27.151872,0,2,-4,-2,-1,1,-1,0,0
27.151880,-1,-4,-2,-1,1,1,-1,-3,0
27.173047,-1,-1,-1,-3,-2,-1,-1,0,0
27.173056,-5,1,1,0,-2,-3,-2,-1,0
27.173297,0,1,-1,-1,-1,-2,-2,-2,0
27.173303,2,-1,-2,-2,-1,-1,-1,1,0
27.188341,-3,-2,1,1,-1,0,0,0,0
27.188350,0,0,-2,-2,-1,-1,0,0,0
27.188354,-1,1,1,-3,-3,1,-2,-2,0
27.188358,-2,-7,-2,4,0,-2,-1,-1,0
27.209528,4,0,-1,-2,0,2,-2,-2,0
27.209546,6,1,-1,-1,2,0,0,1,0
27.211119,-51,-6,0,1,-1,-2,-1,-2,0
27.211124,-2,0,-4,-5,-2,-2,-2,-2,0
27.232968,3,0,0,-1,1,-1,-1,-1,0
27.232997,-6,-3,1,0,-2,3,1,0,0
27.235027,12,1,0,-1,1,-2,0,1,0
27.235034,-2,1,-1,-2,-2,-1,1,-1,0
27.247398,-6,-2,-2,-3,-3,-2,-2,0,0
27.247430,5,1,-1,-4,0,-2,0,-1,0
27.249000,9,-3,-1,1,-1,0,-2,0,0
27.249005,-3,-1,0,0,-2,-1,0,0,0
27.269592,3,-2,-1,-1,-3,-1,-1,0,0
27.269669,-2,-3,-2,-2,-1,-1,0,-1,0
27.270274,5,2,-2,-3,-1,-2,-1,-1,0
27.270290,-4,-3,-1,3,0,0,0,0,0
27.292696,-3,1,-1,-1,-1,-1,1,-1,0
27.292718,-6,-1,2,1,1,0,-1,1,0
27.293647,3,-1,0,0,0,-1,-1,-1,0
27.293651,7,4,-4,-3,-1,0,-1,1,0
27.307172,35,3,-2,-2,0,-2,0,-3,0
27.307196,-27,-9,-2,-1,-1,-1,-1,-2,0
27.309527,16,9,0,-1,1,-1,0,-1,0
27.309531,-2,-13,0,-3,0,-1,-1,-1,0
27.329625,5,0,-1,-2,-1,0,-2,-1,0
27.329645,2,4,-1,-2,-3,0,0,0,0
27.330413,-8,-1,0,4,-2,-1,1,1,0
27.330448,20,8,0,-2,0,-3,-3,-2,0
27.352823,-15,-2,1,1,1,-1,0,0,0
27.352848,5,-4,-3,0,-2,-1,-2,2,0
27.354522,-6,-2,-2,-1,1,1,1,-2,0
27.354527,-4,2,0,-2,0,-1,-2,-1,0
27.367371,-9,-5,0,0,-2,-2,0,0,0
27.367431,-5,0,-1,-3,0,-1,-1,-1,0
27.369055,10,1,-2,0,-2,0,2,-1,0
27.369060,16,-8,-2,-2,0,-2,-1,1,0
27.390063,-70,2,-1,-5,-1,-1,-2,-3,0
27.390071,-3,-15,0,0,0,-1,-2,-3,0
27.390186,9,1,-1,-1,-2,-1,-3,0,0
27.390209,11,5,0,0,0,-1,-1,-1,0
27.413116,-14,-2,-3,-1,-1,1,-2,1,0
27.413141,6,8,-2,1,2,-1,-2,0,0
27.415380,-9,-7,-3,-2,-2,-1,-1,-2,0
27.415384,-14,-2,-2,-1,-1,-2,1,-1,0
27.437177,18,4,-2,-4,0,0,-1,1,0
27.437184,-6,1,-2,1,-3,0,-1,-2,0
27.437186,8,-3,1,0,-1,-2,-4,-2,0
27.437188,13,11,-1,-1,-2,-1,-2,-7,0
27.449783,8,-26,-4,-2,-3,-3,-1,-4,0
27.449814,8,2,-2,-1,-1,-2,-1,0,0
27.452740,1,-4,1,-3,-1,-3,-1,-2,0
27.452755,-1,12,1,3,-1,0,0,-1,0
27.472778,-1,-6,-1,-4,0,-1,-1,0,0
27.472801,-2,-3,-4,-3,-1,-1,0,-2,0
27.473450,5,0,0,0,0,0,0,1,0
27.473569,-5,-4,0,-5,-2,0,-2,1,0
27.487030,10,3,0,2,-1,1,0,-2,0
27.487055,-8,-8,-2,-3,-1,-2,-1,-4,0
27.487780,-1,3,0,0,-1,0,0,-1,0
27.487796,-12,-5,-2,1,0,-1,-1,-4,0
27.509569,16,6,0,0,0,-1,0,0,0
27.509587,6,19,-1,0,-2,-2,0,-2,0
27.510665,-11,-35,-4,-4,1,0,-2,-2,0
27.510669,-5,-3,0,-2,-2,-1,1,-2,0
27.532725,3,6,0,2,-1,0,-1,-2,0
27.532750,-15,2,2,-2,0,1,0,-2,0
27.533781,6,8,-1,-1,-1,-2,-1,-1,0
27.533802,-19,-5,0,0,1,-1,-1,0,0
27.547025,1,8,-1,1,-1,-1,-2,0,0
27.547031,5,-6,-3,-7,-1,-3,-3,-3,0
27.554566,-1,-9,-1,3,-1,-2,-1,-2,0
27.554589,-7,0,-1,-3,0,-2,-1,0,0
27.569552,7,6,-1,1,-1,-2,-1,-3,0
27.569640,2,3,-1,1,-1,-2,0,-1,0
27.570886,-4,4,-1,-1,-2,-1,0,1,0
27.570890,-2,-1,-1,-1,-2,0,-1,0,0
27.593016,-6,-2,-3,-4,1,-1,-2,-1,0
27.593021,2,-6,-1,0,-1,-2,-2,-1,0
27.593374,-10,1,-2,-4,-1,-3,-1,-4,0
27.593434,13,-2,-2,-1,-2,-1,1,-1,0
27.607893,-58,-9,-2,0,-3,-1,-2,0,0
27.607903,1,1,1,2,1,0,-2,0,0
27.614621,-7,3,1,-3,-1,0,0,0,0
27.614648,1,-3,-1,0,-1,2,0,-2,0
27.629790,13,-1,-2,-2,-2,-1,-1,-1,0
27.631727,3,-1,0,-4,0,-1,0,0,0
27.631739,5,6,-3,4,1,0,-1,-1,0
27.631743,-25,-4,0,-2,-2,-2,-1,-1,0
27.652834,5,-2,0,1,-2,-2,1,0,0
27.652859,-4,0,0,-4,-1,-2,-1,3,0
27.655213,21,0,-4,0,-1,-3,-3,-2,0
27.655219,0,-1,-1,0,-2,-2,-3,-1,0
27.666676,6,-7,0,-1,-1,0,0,-3,0
27.666706,1,-1,0,0,-1,0,0,0,0
27.675211,-7,-2,-2,-1,-1,1,0,0,0
27.675235,0,0,-3,0,-2,-1,0,-1,0
27.689678,-3,2,-2,-2,0,0,-1,0,0
27.689697,4,-1,-3,-1,-2,-1,-1,-1,0
27.690443,-16,-2,1,-4,0,-1,-3,-1,0
27.690486,2,2,2,3,-1,0,-1,0,0
27.712807,39,2,-2,-2,1,-1,-2,-1,0
27.712832,-3,-4,-2,1,-1,-1,0,-2,0
27.715161,5,3,1,0,-1,0,0,0,0
27.715166,-1,0,1,-4,-2,-2,-1,1,0
27.726674,-8,-3,-1,-2,-2,-2,0,-2,0
27.726696,7,2,-1,1,-1,0,-2,0,0
27.735060,-4,-3,0,-1,-1,-1,-2,-3,0
27.735092,-4,-5,-1,-5,-2,1,-3,-2,0
27.750454,-7,1,-2,3,0,0,-1,2,0
27.750468,-6,-2,-2,-2,-2,-3,0,-1,0
27.750472,2,1,1,-1,0,0,2,1,0
27.750475,-6,-1,-2,-2,-1,-3,-1,-1,0
27.772859,18,0,1,1,0,-2,-3,0,0
27.772883,-59,-5,-1,0,1,0,-1,-1,0
27.774529,9,-1,-1,-1,-2,-2,-2,0,0
27.774534,4,-3,-2,-3,0,-2,-2,-4,0
27.786619,0,0,-1,-5,-2,1,0,0,0
27.786655,15,-3,-1,-1,-2,0,0,-3,0
27.795037,-3,-1,-3,0,-1,-2,-1,1,0
27.795060,-7,1,0,0,-1,-3,0,0,0
27.809980,-4,-5,-3,-3,-2,-1,-3,1,0
27.810011,8,-1,1,1,-3,1,-3,-1,0
27.812049,-6,1,-1,-2,0,0,-1,0,0
27.812055,6,0,-1,0,1,-1,-2,-1,0
27.833060,-5,1,-1,0,0,-1,-1,-1,0
27.833099,13,-2,-1,-3,-2,-1,0,-3,0
27.833652,-2,-1,-1,-2,-2,0,-1,-1,0
27.835356,4,2,0,4,0,1,-1,-1,0
27.846431,-3,0,1,0,0,-2,-1,-1,0
27.846457,2,0,1,-1,0,-1,0,-1,0
27.854627,-6,-1,-2,-2,0,-1,-1,-2,0
27.854650,14,-1,-3,-3,0,-2,0,-3,0
27.869619,-64,-7,-1,1,0,-2,-2,-4,0
27.869647,6,0,-3,-2,-1,-1,-1,-1,0
27.871175,6,0,1,0,-2,-1,-1,0,0
27.871181,-5,-1,-2,-1,-1,0,-2,0,0
27.892777,10,-1,-3,-5,1,0,1,-2,0
27.892793,-2,-1,-2,4,1,-2,0,0,0
27.893437,-5,-1,-2,-1,-2,0,-1,-1,0
27.893504,-1,-2,-3,-1,0,-1,-1,0,0
27.915199,9,3,2,1,-2,-2,0,-1,0
27.915218,5,-1,-2,0,-1,-1,0,0,0
27.917187,11,-5,-1,-2,-2,0,-1,-2,0
27.917202,2,0,-2,-4,1,-1,-2,-1,0
27.929969,7,0,-4,2,-1,-1,-1,0,0
27.929994,4,2,3,0,0,-1,1,-3,0
27.932342,-10,-2,-1,0,-2,-2,-2,-1,0
27.932349,16,1,0,0,-1,0,-1,0,0
27.954055,-55,-6,-2,-3,-2,0,-3,-2,0
27.954062,2,0,0,0,-1,1,-2,0,0
27.954064,0,-3,-5,-3,-1,0,0,-2,0
27.954066,-5,-1,1,1,-1,0,3,1,0
27.975413,23,2,0,-7,-1,-2,-1,0,0
27.975431,-5,0,-1,3,0,0,-3,0,0
27.976917,-7,0,-1,-1,0,-2,0,-2,0
27.976921,-8,-4,0,-1,-2,-2,-1,-1,0
27.989663,15,1,-1,1,-1,1,0,1,0
27.989688,-3,-3,-1,-5,-1,0,0,-1,0
27.991118,8,-2,-1,-2,-1,0,-2,-1,0
27.991122,-5,-1,-1,-1,0,-2,0,1,0
28.013026,5,-1,-1,-1,-1,-1,0,-2,0
28.013054,2,0,-2,-1,-2,-1,0,0,0
28.015218,-2,1,0,3,1,-1,-2,1,0
28.015223,-3,-4,-1,-2,-1,-1,-1,-2,0
28.035324,3,-1,-2,-2,-3,-2,-1,-1,0
28.035348,25,1,-3,-4,0,-1,-2,0,0
28.036016,-26,-1,4,2,2,-1,-1,0,0
28.036034,-3,3,-1,2,-1,1,0,-1,0
28.049815,13,-8,0,0,-1,-2,0,2,0
28.049851,0,0,-1,-3,-2,-2,-2,-4,0
28.050761,6,0,-5,-2,-1,0,0,-3,0
28.050785,2,0,-2,-3,0,0,-1,-1,0
28.072824,4,1,1,0,0,1,0,0,0
28.072909,-12,-3,-3,1,-1,-1,-2,-1,0
28.075262,2,1,-1,-3,-1,-3,-1,0,0
28.075270,-8,-4,-1,-3,-1,0,-1,-2,0
28.095320,4,1,-2,-2,-1,0,0,0,0
28.095335,-11,-2,1,0,-1,-1,-2,1,0
28.096025,23,0,-1,-1,0,-1,0,-1,0
28.096038,-49,-3,-1,0,1,-1,-1,-2,0
28.109649,3,1,-4,-5,-2,-1,-3,0,0
28.109663,1,-5,1,-4,-2,0,2,-1,0
28.110125,-17,-1,-1,1,-1,-2,-1,2,0
28.110138,12,-1,2,2,-2,1,-2,0,0
28.132791,1,5,1,2,2,-2,-2,-3,0
28.134927,-13,-3,-5,-2,0,-1,-1,1,0
28.134933,3,-1,-1,-3,-1,1,0,-1,0
28.134935,9,0,0,0,-2,-2,0,0,0
28.155619,-7,0,0,-2,-1,-1,0,-2,0
28.155631,9,-3,-3,2,1,0,1,2,0
28.156231,-4,2,-1,-1,1,-2,-3,-3,0
28.156292,0,-11,-3,-3,-1,-1,-4,0,0
28.171324,2,-1,0,0,-1,0,-1,2,0
28.171329,-2,-1,-1,0,-1,-1,-1,-2,0
28.171331,0,2,-1,-1,-1,-2,2,1,0
28.171332,2,4,-2,-7,0,0,-2,-1,0
28.193893,-1,-3,0,5,0,0,0,-1,0
28.193899,-4,-2,-2,0,-1,-1,-1,0,0
28.193901,-1,-1,0,1,-2,-1,-1,-2,0
28.193902,8,1,-1,-1,-1,-2,1,-4,0
28.215228,-4,-1,0,-3,-2,-1,-2,-2,0
28.215251,1,4,-1,0,-1,-1,-1,0,0
28.216623,11,-2,0,0,-2,1,0,-3,0
28.216631,11,-3,-3,-4,-1,-1,-2,0,0
28.230149,4,-2,0,3,-1,-2,-3,-3,0
28.230185,-8,-3,0,1,-1,-2,-4,-4,0
28.233529,5,-1,-5,-4,-2,-1,0,0,0
28.233545,2,3,-1,1,-2,0,0,0,0
28.252747,-5,-2,-3,0,-2,-1,0,-1,0
28.252766,9,0,-2,-5,-2,-3,-1,-1,0
28.253515,-4,1,1,-3,0,-3,-1,-1,0
28.253528,-5,-8,-1,3,1,0,1,-1,0
28.275298,-2,0,-2,-2,-1,-2,-1,-1,0
28.275316,-9,-3,-2,2,2,1,-1,1,0
28.277206,0,-2,-2,-2,-2,-1,-2,-3,0
28.277211,-16,0,0,-2,-3,-2,-2,-2,0
28.289628,6,-1,0,-2,0,-2,-2,0,0
28.289651,-2,4,2,-2,1,-2,1,-1,0
28.292002,-6,-6,-1,-1,1,-1,-2,-1,0
28.292008,17,2,-2,0,-2,0,-1,-1,0
28.313407,-1,0,-1,-1,-3,0,1,-1,0
28.313424,-6,0,-1,-1,-2,-1,-1,-4,0
28.313525,6,2,0,1,1,0,-1,0,0
28.313597,-4,0,-1,-2,0,-2,-1,1,0
28.335255,-7,-4,-1,-8,0,0,-2,0,0
28.335273,9,1,0,2,1,0,0,-1,0
28.336737,-7,-1,1,2,-2,-2,-1,0,0
28.336744,4,0,-1,1,-3,-1,-1,-1,0
28.349692,-16,-2,-2,-1,-1,0,0,-4,0
28.349728,5,-2,1,-4,-1,-1,-1,-3,0
28.352149,-6,-4,-4,-6,-1,-1,-2,-3,0
28.352155,-6,-1,-3,3,-1,0,0,-1,0
28.372833,9,1,0,0,1,-2,0,-1,0
28.372863,-6,-2,-1,0,-1,1,0,-1,0
28.374776,-5,-3,0,1,0,0,-1,-1,0
28.374782,1,1,-1,-4,-1,-1,-1,-1,0
28.395640,2,-1,-2,-1,-2,0,0,0,0
28.395661,20,2,-1,-2,-3,-3,-2,-1,0
28.398660,-58,-8,-2,-6,-1,0,-3,-1,0
28.398668,0,0,0,4,1,-1,0,0,0
28.409479,2,-2,-4,2,-3,-3,0,0,0
28.409498,-1,0,-2,0,-1,-1,0,-1,0
28.410981,18,2,-4,1,-1,0,-1,-1,0
28.410996,-21,-3,-1,-5,-2,0,-1,0,0
28.433007,-10,-2,1,1,0,0,-1,-2,0
28.433045,-4,0,-1,-1,0,-2,-2,1,0
28.434443,11,-2,2,-2,2,-1,-1,2,0
28.434451,-4,-1,1,0,-1,0,0,-2,0
28.455213,15,3,-1,-2,0,2,0,0,0
28.455225,-11,-3,-1,1,-1,-2,1,-1,0
28.455811,7,0,-1,1,-1,0,-1,-2,0
28.455817,21,1,0,-3,0,-2,0,0,0
28.471903,-34,-9,-3,-7,0,-1,-2,-2,0
28.471910,-11,-4,1,3,0,0,-1,-1,0
28.471912,7,2,-1,1,-1,-1,-1,0,0
28.471914,9,0,0,1,-2,-1,-2,0,0
28.492743,-4,1,0,-3,0,-1,-1,-2,0
28.492768,-5,-6,-2,-1,1,2,-2,-3,0
28.494184,1,-1,0,1,-2,-4,0,0,0
28.494188,-7,0,0,-2,1,-2,-2,-1,0
28.515327,7,1,-3,4,-1,-1,-2,0,0
28.515350,-4,0,0,-4,-1,0,-1,0,0
28.516478,31,1,-1,2,-1,0,1,0,0
28.516483,0,-2,-2,-4,0,0,1,0,0
28.529162,5,3,1,-3,-1,-2,-2,-1,0
28.529192,-3,-4,-2,0,-1,-3,-1,-2,0
28.537249,6,2,0,-1,-2,-1,-2,-1,0
28.537271,-5,-2,-1,-1,-2,-1,-1,0,0
28.552681,4,-2,-1,-5,0,-1,1,-1,0
28.552698,5,0,-1,3,-1,1,0,1,0
28.553446,-12,1,-1,-2,0,0,0,0,0
28.553463,-1,-4,-4,-1,0,-1,-2,-3,0
28.575398,1,-1,-1,-1,-2,-2,-2,1,0
28.575483,-3,0,-3,-3,0,-1,-3,0,0
28.577448,-11,-3,-2,0,-2,-3,-2,-2,0
28.577456,-3,0,-2,1,0,0,-1,-1,0
28.589041,0,-1,-1,0,0,-1,0,0,0
28.589064,3,-2,0,-4,-2,-1,-1,-1,0
28.598989,5,-1,-3,-1,-2,0,-1,-2,0
28.598995,-6,-2,0,-3,0,-1,0,-1,0
28.612808,0,-2,2,6,0,-3,-1,-3,0
28.612832,-3,-2,-1,-1,0,-1,-1,-1,0
28.615064,-1,0,1,-1,0,-2,0,0,0
28.615069,2,-2,0,-2,0,1,-1,-2,0
28.635260,-6,2,0,2,-1,0,-2,-1,0
28.635286,-2,0,2,0,-2,0,-1,1,0
28.637248,-3,-2,-3,0,-1,0,1,-1,0
28.637256,-4,0,-1,-3,-2,-3,-1,0,0
28.649007,-5,-2,-2,-3,0,-1,1,-2,0
28.649065,3,-1,-3,-3,0,0,-1,-3,0
28.659938,-5,-1,1,-2,-1,0,-2,-3,0
28.659953,-1,0,0,0,0,-2,-1,-1,0
28.673158,3,-1,-1,0,-1,-3,1,0,0
28.673180,-4,-1,-3,-2,-2,-1,-2,-2,0
28.674518,-6,-2,-1,-3,0,-4,-1,1,0
28.674522,0,0,0,1,0,0,-2,-3,0
28.695274,1,-3,-1,-1,-2,-2,-1,0,0
28.695290,2,0,1,-3,-1,0,0,0,0
28.696768,-12,-2,-2,0,-1,0,-2,-1,0
28.696821,7,1,1,0,-1,-1,-1,0,0
28.718190,24,1,-2,-4,0,0,-1,-4,0
28.718211,-29,-8,-2,0,-1,-2,-1,-3,0
28.719296,3,-2,-2,-2,1,-1,-1,-3,0
28.719302,-1,1,-3,-1,-3,-2,-1,0,0
28.732806,2,0,-3,-2,-1,1,0,-2,0
28.732839,6,1,1,-1,-2,-2,0,0,0
28.735156,-7,-1,-2,0,0,1,-2,-2,0
28.735162,-8,-3,0,1,-1,-1,-2,-1,0
28.755415,-7,1,-1,-1,-1,-2,0,0,0
28.755421,5,-2,-3,0,-1,-1,-1,-1,0
28.756594,-19,-4,1,-4,0,-1,0,0,0
28.756607,3,-1,-1,5,-1,0,0,-2,0
28.769268,-7,-3,-2,-2,-2,-1,-1,0,0
28.771610,2,1,-1,0,-1,0,0,-1,0
28.779439,9,-1,-3,-3,-3,-1,0,-1,0
28.779447,-2,0,-2,-1,-2,-1,-1,-2,0
28.792776,-5,-1,0,-1,-1,-1,1,-1,0
28.792802,-3,0,0,-2,-2,0,0,1,0
28.794189,2,0,0,-1,-1,0,-2,0,0
28.794203,-4,-2,0,-4,-2,-2,-1,-2,0
28.815249,24,0,1,3,-1,-1,-3,-1,0
28.815269,2,-1,-3,1,-1,-2,-1,-3,0
28.816890,8,2,-2,-1,-1,0,0,-1,0
28.816922,-4,0,1,-2,-1,-3,-1,-2,0
28.838025,12,1,0,-2,0,0,-1,1,0
28.838091,-14,-2,0,-1,0,-3,-2,-3,0
28.839229,8,-4,-1,2,-1,-1,-2,-1,0
28.839243,4,-1,-3,0,0,0,1,1,0
28.852792,-14,0,1,0,-1,-1,-3,-1,0
28.852822,-1,-1,-2,-3,0,1,-1,0,0
28.854254,-3,1,2,1,-2,-2,-1,0,0
28.854290,-2,-2,-1,0,0,0,-2,-1,0
28.875261,-10,-4,-1,-3,-2,-2,-2,-3,0
28.875280,4,2,1,-2,-2,0,1,-1,0
28.876656,3,-4,-1,-1,0,-2,-1,-1,0
28.876662,-2,-4,-3,-2,0,-1,-2,0,0
28.897914,-11,-3,-1,-2,-1,-2,-2,-1,0
28.897921,6,1,0,-5,0,-2,-1,-1,0
28.899321,22,3,1,4,0,-1,0,0,0
28.899332,-71,-5,-1,-3,0,0,2,-1,0
28.913863,8,-1,0,3,-1,-1,-1,0,0
28.913873,-1,-2,-1,1,0,-1,0,0,0
28.914377,2,1,-1,1,-1,1,0,-1,0
28.914389,13,0,-1,-1,-1,-1,-1,1,0
28.935216,-8,-1,-2,-4,0,-1,-1,-2,0
28.935233,-3,0,1,0,0,-1,-2,-1,0
28.937243,-10,0,-3,-1,0,-1,-1,-3,0
28.937249,10,-1,-1,-2,-1,-1,-2,-1,0
28.958675,-8,-1,-1,-2,-3,-1,0,-3,0
28.958704,9,-2,-1,0,-1,-3,-1,0,0
28.960868,-10,-2,-4,-3,-2,0,-1,-4,0
28.960874,9,0,0,0,-1,-2,-1,0,0
28.972072,9,1,0,-1,-1,-2,0,-2,0
28.972094,-16,-4,-2,2,-1,2,-2,-1,0
28.979097,-3,-2,-1,0,1,-1,-2,-3,0
28.979125,6,0,-2,-5,-3,-3,0,0,0
28.995765,-3,1,0,4,-3,-2,0,0,0
28.995784,0,1,0,-1,-1,-1,-2,0,0
28.996975,-17,-3,-1,-3,-2,1,-1,-1,0
28.997003,44,0,-1,2,-1,-3,-1,-3,0
29.017868,-8,-4,-1,-1,0,0,-3,-1,0
29.017885,6,-1,-2,-2,1,0,-1,0,0
29.019760,-6,-2,0,-2,-1,-1,0,-1,0
29.019767,8,3,-1,-2,0,-1,-1,-2,0
29.032111,-4,-1,-1,-2,0,-2,-2,0,0
29.032134,-5,0,-2,0,-3,-3,-1,-2,0
29.038852,14,0,-1,-3,-1,-1,1,2,0
29.038876,-13,-4,-1,0,-1,0,-2,-1,0
29.055244,-2,-2,-2,-2,0,0,0,-3,0
29.055252,-5,-1,-3,-6,0,0,-2,-3,0
29.056642,2,1,4,5,-1,0,0,1,0
29.056656,1,0,-1,-1,-2,-2,-1,-1,0
29.077923,-9,-4,-2,-1,-2,-3,-1,0,0
29.078036,8,-1,-1,0,-1,-3,0,0,0
29.080436,-1,-2,-2,-6,-2,-2,-1,-1,0
29.080445,-7,-1,0,0,0,2,0,-1,0
29.092099,1,1,-3,-1,-1,-2,-1,-2,0
29.092119,1,-2,-2,-2,-1,-1,0,0,0
29.098905,-1,0,0,0,-1,-2,-4,-1,0
29.098928,-4,-1,-1,0,-1,-1,1,1,0
29.116211,-5,-3,-2,-3,-2,1,0,-3,0
29.116216,0,0,-3,-2,-1,0,-1,-1,0
29.116841,-7,0,0,3,-1,-1,-1,1,0
29.116858,0,-1,-1,-1,1,-1,-2,-1,0
29.137680,1,-2,-2,-6,-1,0,-1,-3,0
29.137704,-51,-6,0,3,0,0,-1,-1,0
29.140505,10,1,-4,-1,0,0,0,0,0
29.140513,4,-4,-3,-3,-3,-2,-2,-4,0
29.152098,-8,0,0,-3,-1,-2,0,0,0
29.152124,12,1,-1,2,-1,-1,-1,-1,0
29.159512,-4,-1,-1,-4,0,-1,-2,-1,0
29.159551,-7,-1,1,0,-1,-1,-1,-1,0
29.175467,5,-1,-3,-1,-2,-1,0,-2,0
29.175496,9,1,1,-3,-1,0,1,0,0
29.177867,-4,-3,-2,-1,-1,-1,0,-1,0
29.177873,-3,-2,0,-1,-1,-2,-1,0,0
29.197734,0,-3,0,0,-1,-1,0,-2,0
29.197754,7,1,-1,-3,0,-1,-1,1,0
29.199508,-6,-3,2,2,0,0,2,-1,0
29.199620,-1,-1,0,0,0,0,-1,1,0
29.212075,-1,0,0,1,-2,-1,-1,1,0
29.212090,4,-3,-2,0,-2,0,-1,-2,0
29.218807,0,-3,-1,-4,-2,-2,-1,-2,0
29.218825,-2,1,-2,-1,-2,-1,-1,0,0
29.235305,0,-1,0,-3,-1,-1,1,-2,0
29.235323,7,0,1,2,-1,-2,0,-1,0
29.236858,-3,-3,-1,-3,0,-3,-1,-2,0
29.236863,-3,-1,-2,-1,0,0,-2,-1,0
29.257646,1,-1,-1,-2,-2,0,-1,0,0
29.257653,3,-1,-1,-2,-1,-1,0,2,0
29.259335,-2,0,0,0,0,0,0,0,0
29.259354,2,1,0,-1,2,1,3,-1,0
29.272815,-1,0,-1,-8,1,-2,-1,2,0
29.272820,-4,-3,-1,3,-3,0,-1,-1,0
29.279065,1,0,-3,0,-3,-2,-2,0,0
29.279084,-5,-2,-3,-3,-1,-1,-1,-1,0
29.295393,-1,0,3,2,-1,0,0,-2,0
29.295422,2,-1,-3,-2,-2,-1,-1,-3,0
29.297573,-1,2,-1,-4,0,-2,0,-1,0
29.297580,20,0,-1,2,-1,-1,-2,1,0
29.318363,2,-1,0,2,-1,-2,-1,-1,0
29.318390,1,-1,-2,-2,-2,-2,-2,1,0
29.319950,-5,0,0,1,-1,0,-1,-3,0
29.319958,9,0,-3,-2,-1,-1,-1,1,0
29.331627,0,-2,-3,0,0,-1,-1,1,0
29.331649,-9,0,1,0,0,-3,0,0,0
29.342188,10,-2,-4,-5,-2,-1,0,-1,0
29.342196,-10,0,3,-2,0,-2,-2,-2,0
29.355184,-4,0,-2,2,-1,-2,0,-1,0
29.355199,1,0,-2,-4,-1,-2,-1,-2,0
29.356797,-8,0,-3,0,0,-1,0,1,0
