timestamp,emg1,emg2,emg3,emg4,emg5,emg6,emg7,emg8,label
10.015415,-2,4,16,43,66,-22,-4,-70,3.147856876
10.015495,1,50,8,-8,77,87,2,64,3.147856876
10.035596,18,-25,-9,8,-52,-26,-31,39,3.147856876
10.035625,-35,-38,-13,-19,5,-9,52,18,3.147856876
10.038231,16,-16,1,4,-81,-24,36,87,3.147856876
10.038237,-4,43,-10,-62,-66,78,-14,-6,3.147856876
10.048714,-12,-4,18,5,22,29,28,-8,3.147856876
10.048733,10,38,2,20,-9,-33,-12,40,3.147856876
10.060249,-54,-23,7,14,127,-35,13,-10,3.147856876
10.060261,69,-81,-18,-20,-87,-68,1,-80,3.147856876
10.072994,-20,-3,-10,-27,-85,-5,13,-38,3.147856876
10.073027,-24,-27,1,0,9,-27,-16,39,3.147856876
10.076851,-46,34,-2,-27,-6,39,-2,-60,3.147856876
10.076880,-5,0,9,49,10,-30,-7,16,3.147856876
10.103229,27,-12,-9,5,48,-76,-19,-25,3.147856876
10.103271,-36,18,-1,30,99,12,7,-52,3.147856876
10.105793,5,16,3,-5,18,-21,-5,8,3.147856876
10.105799,-64,14,8,-32,-52,78,-6,3,3.147856876
10.117774,72,-55,-7,-5,-13,-46,19,7,3.147856876
10.117805,5,15,-3,2,-2,89,-28,24,3.147856876
10.120539,37,11,-7,3,4,-23,-11,22,3.147856876
10.120545,12,-1,-3,25,64,-114,-48,-31,3.147856876
10.132296,-35,26,2,-5,127,60,43,79,3.147856876
10.132327,30,7,10,5,-118,-65,3,30,3.147856876
10.133119,-34,-15,-4,3,-9,-2,-11,-58,3.147856876
10.133124,-46,29,-8,6,2,9,-21,21,3.147856876
10.156580,44,24,4,-28,-46,-69,1,0,3.147856876
10.156587,-2,-22,8,21,36,-14,5,-89,3.147856876
10.156590,59,-35,-10,-15,-38,-1,6,82,3.147856876
10.156592,-65,54,6,-9,-72,-33,-15,-4,3.147856876
10.177130,18,-16,-1,31,40,92,16,-2,3.147856876
10.177153,-23,13,4,-47,-128,-56,6,-45,3.147856876
10.178669,-19,-14,-8,17,97,3,-64,28,3.147856876
10.178682,50,-4,-4,29,24,93,58,-9,3.147856876
10.192417,-70,-27,2,-16,-40,36,-70,-12,3.147856876
10.192445,59,3,6,-59,-60,-68,26,28,3.147856876
10.194240,-16,-4,6,87,90,117,-6,-36,3.147856876
10.194256,-42,2,-7,-12,-23,46,24,17,3.147856876
10.214557,78,31,-2,1,-32,-32,13,-55,3.147856876
10.214575,21,-30,-11,2,-26,17,-25,57,3.147856876
10.215641,-28,0,0,-24,-38,-28,5,-9,3.147856876
10.215659,4,-23,-9,0,25,-4,-4,-11,3.147856876
10.237312,-21,17,3,-2,-123,-57,-11,4,3.150520333
10.237337,-24,14,4,24,110,36,-13,29,3.150520333
10.237955,35,5,-3,-28,-99,69,48,-1,3.150520333
10.237976,63,-17,3,8,-28,-28,-39,9,3.150520333
10.252291,-32,19,-1,-21,-53,49,8,-28,3.150520333
10.252308,57,-26,-8,13,-69,-112,-46,24,3.150520333
10.255061,12,1,5,-9,55,96,-12,-27,3.150520333
10.255067,11,5,-8,-31,57,88,34,11,3.150520333
10.275361,-8,-6,-8,-3,-89,-105,-22,83,3.150520333
10.275386,-68,6,-1,-12,-31,-15,11,-31,3.150520333
10.277424,-9,6,6,35,54,-80,13,-2,3.150520333
10.277436,39,-7,-1,-9,82,-19,-22,-35,3.150520333
10.297012,-52,-15,1,-5,69,17,23,15,3.150520333
10.297025,90,43,9,15,-70,40,8,46,3.150520333
10.297703,0,-58,-16,-17,-34,-36,9,-16,3.150520333
10.297746,13,9,7,8,-10,-27,1,-9,3.150520333
10.312194,40,13,5,15,27,-10,-21,39,3.150520333
10.312203,-43,0,-4,0,-60,5,0,-23,3.150520333
10.312570,6,-20,-8,2,2,70,-2,-2,3.150520333
10.312577,38,-3,4,-26,-11,-109,6,15,3.150520333
10.334770,-22,9,0,13,0,55,-30,-50,3.150520333
10.335946,-26,-6,-2,32,119,87,20,13,3.150520333
10.335955,-29,57,8,-60,-128,-93,1,11,3.150520333
10.335961,-23,-60,-19,3,37,47,-37,-23,3.150520333
10.359848,52,25,-1,-21,-111,-120,34,68,3.150520333
10.359861,-36,30,1,9,-25,-23,-8,23,3.150520333
10.359864,0,-1,0,9,17,29,-2,-20,3.150520333
10.359866,82,21,13,12,-38,-38,10,5,3.150520333
10.380441,-37,-43,-12,-14,64,17,12,-14,3.150520333
10.380469,81,-12,-10,-2,24,25,-18,-17,3.150520333
10.380985,51,29,-4,-14,-17,-50,-3,-50,3.150520333
10.380999,19,-25,5,14,-42,-7,4,7,3.150520333
10.394560,-96,24,6,7,78,26,13,-57,3.150520333
10.394584,-23,-23,-3,-23,-51,2,9,-1,3.150520333
10.395205,7,-22,7,24,6,-4,-10,24,3.150520333
10.395227,-28,-40,-5,10,-50,22,8,-23,3.150520333
10.417047,86,95,8,90,25,18,8,-12,3.150520333
10.417071,-23,-77,-22,-62,39,-37,-52,-25,3.150520333
10.419343,-21,11,1,-18,38,-58,24,23,3.150520333
10.419354,-101,-46,-1,-26,-121,-50,-11,-22,3.150520333
10.432104,35,-3,4,7,-40,35,14,15,3.150520333
10.432133,62,22,3,18,13,-57,2,5,3.150520333
10.432856,-38,3,-2,2,-1,64,-21,27,3.150520333
10.432862,-21,10,-6,2,6,-32,-2,-58,3.150520333
10.455450,-21,-16,2,-15,-7,-15,-12,-20,3.150520333
10.455940,-35,20,5,-4,51,6,13,-17,3.150520333
10.455959,0,21,0,5,-121,-3,-1,34,3.150520333
10.455967,107,102,17,36,53,8,14,30,3.150520333
10.477035,-35,-128,-16,-35,101,-43,-22,-20,3.150520333
10.477060,13,22,14,3,-2,68,16,-21,3.150520333
10.478723,47,14,-3,41,88,-112,-12,36,3.150520333
10.478730,-47,39,-6,-25,-2,106,-2,1,3.150520333
10.492155,77,-22,-18,-42,115,89,-2,-31,3.113903462
10.492182,1,-44,-2,36,34,-64,16,-4,3.113903462
10.494148,-32,3,11,-40,-127,13,4,1,3.113903462
10.494157,24,-11,-4,60,127,-24,18,-1,3.113903462
10.514594,23,-41,-4,-12,28,4,-8,63,3.113903462
10.514631,-70,10,-1,-15,7,42,13,-29,3.113903462
10.515279,70,-28,-20,-19,-75,-65,-21,-39,3.113903462
10.515317,-58,1,6,-17,-31,37,-6,-31,3.113903462
10.537254,98,4,-6,-5,-111,-77,-1,-57,3.113903462
10.537271,11,41,-2,-5,84,17,-20,18,3.113903462
10.539220,88,30,7,24,18,18,13,19,3.113903462
10.539227,-38,-15,-9,0,-47,-36,-19,58,3.113903462
10.552148,-16,16,11,5,6,23,35,25,3.113903462
10.552172,7,20,-3,-25,13,-80,5,19,3.113903462
10.553411,-18,-35,4,30,42,-47,-28,10,3.113903462
10.553420,5,-3,1,-21,30,53,3,13,3.113903462
10.574806,-9,28,2,-9,-49,-60,-16,-31,3.113903462
10.574829,5,-21,-7,-6,32,-18,3,17,3.113903462
10.577367,-39,-14,-4,10,37,53,21,-27,3.113903462
10.577385,9,17,4,20,-95,-58,-14,5,3.113903462
10.597169,-54,-15,0,-37,19,8,12,5,3.113903462
10.597191,-7,-5,4,66,103,72,-7,-15,3.113903462
10.597713,-59,-20,-9,-49,-65,49,-14,-71,3.113903462
10.597729,58,15,-13,-11,36,-31,9,-22,3.113903462
10.612087,-23,-3,0,-28,-96,-21,-1,66,3.113903462
10.612104,30,3,1,0,1,2,-3,15,3.113903462
10.613381,19,-21,-3,24,90,-14,18,25,3.113903462
10.613394,-38,-6,0,-9,-25,46,9,-61,3.113903462
10.635026,7,28,2,12,-12,9,-23,-15,3.113903462
10.635057,-19,62,18,6,24,11,46,23,3.113903462
10.637595,-16,-65,-23,-25,-62,-24,-95,-35,3.113903462
10.637601,-13,-26,-7,-32,127,58,20,-2,3.113903462
10.657045,-6,39,2,83,119,-1,-7,-22,3.113903462
10.657053,-25,-30,-4,-44,-125,-4,-20,-21,3.113903462
10.657650,3,100,14,13,89,62,23,6,3.113903462
10.657685,9,-11,2,-6,-6,-122,-12,10,3.113903462
10.671953,-32,-2,-1,-8,-34,59,14,5,3.113903462
10.671968,-10,15,-2,19,31,-18,-28,-4,3.113903462
10.672591,-53,59,15,-29,-90,-74,34,97,3.113903462
10.675804,86,-73,-19,13,29,85,-35,-67,3.113903462
10.694688,32,-2,3,-15,-45,-38,20,10,3.113903462
10.696313,-30,-6,-9,-19,-71,-32,22,-70,3.113903462
10.696325,-7,-8,2,-26,-60,13,4,21,3.113903462
10.696327,-91,39,9,29,-45,-34,1,58,3.113903462
10.718611,58,-17,-3,2,-83,-22,-19,-20,3.113903462
10.718620,17,-30,-6,3,-57,33,-19,-51,3.113903462
10.718623,-5,18,1,3,-52,58,30,-21,3.113903462
10.718625,3,11,8,13,-57,-15,-7,30,3.113903462
10.732001,8,6,3,19,14,12,-18,3,3.113903462
10.732023,-34,-18,1,-21,-47,-108,8,10,3.113903462
10.732790,11,-28,5,18,91,-64,8,-73,3.113903462
10.732817,-10,-8,-6,-9,-43,56,6,-2,3.113903462
10.754452,-12,-84,-25,-23,-20,33,-46,-20,3.109356213
10.754473,12,42,4,-5,-14,11,29,13,3.109356213
10.755406,14,25,-2,18,7,-68,-53,-15,3.109356213
10.755421,-98,-33,7,25,13,23,56,63,3.109356213
10.777167,83,28,6,-35,27,-13,-2,-60,3.109356213
10.777192,-6,-21,2,24,-8,47,-20,30,3.109356213
10.778283,1,-21,-11,-11,-9,50,10,31,3.109356213
10.778304,-8,29,4,5,67,-22,3,-30,3.109356213
10.792531,-22,25,7,-27,-76,0,31,-48,3.109356213
10.792571,18,-6,-11,27,26,-27,-46,-11,3.109356213
10.794353,25,4,-2,-1,42,12,34,-23,3.109356213
10.794371,9,-27,-11,-27,-65,-48,-60,-4,3.109356213
10.814604,-36,20,11,-15,-54,-118,14,16,3.109356213
10.814644,-11,-24,-9,-1,97,97,3,-44,3.109356213
10.815182,-8,-9,1,21,-47,18,14,28,3.109356213
10.815189,5,27,0,-38,124,3,-7,-2,3.109356213
10.837147,-67,15,1,15,-67,-44,6,8,3.109356213
10.837170,-15,-52,1,9,17,-17,-22,-3,3.109356213
10.839496,-13,32,-5,24,73,118,39,51,3.109356213
10.839502,7,-7,5,23,-30,-64,6,2,3.109356213
10.852205,-75,-34,-10,0,-15,3,5,63,3.109356213
10.852222,39,-5,0,-21,-51,-45,9,-50,3.109356213
10.854326,-65,-28,0,8,14,-1,-31,-25,3.109356213
10.854332,-14,1,-1,-13,-33,-5,-1,-12,3.109356213
10.876572,81,49,9,22,112,8,22,82,3.109356213
10.876590,-1,-17,-9,0,-89,1,-20,13,3.109356213
10.876596,77,-11,2,3,-13,-38,-2,-6,3.109356213
10.876601,-28,8,2,-5,-104,-40,-4,-16,3.109356213
10.897067,-27,-41,-9,-13,63,-84,-25,-34,3.109356213
10.897085,13,1,-3,-16,99,107,61,75,3.109356213
10.898247,22,26,5,-5,-128,-114,-14,27,3.109356213
10.898257,34,-16,-6,-8,123,-92,-31,-2,3.109356213
10.912102,-25,7,-8,14,17,65,-32,-41,3.109356213
10.913564,5,-7,-5,-2,-41,-85,-20,-5,3.109356213
10.913578,-33,14,5,-8,21,30,14,-6,3.109356213
10.913581,58,32,5,8,-71,31,34,47,3.109356213
10.934668,-30,-20,-3,26,38,29,-19,-32,3.109356213
10.934699,25,14,3,-8,-46,-10,-9,41,3.109356213
10.937460,-21,34,-5,-11,12,27,6,-52,3.109356213
10.937468,-23,-50,0,-10,-37,12,-14,-48,3.109356213
10.957407,38,45,11,13,51,21,18,35,3.109356213
10.957603,14,42,7,-24,-81,-54,17,-20,3.109356213
10.960016,-31,-47,-25,-11,81,-67,-23,23,3.109356213
10.960030,38,7,3,-6,95,110,23,64,3.109356213
10.972208,-8,29,-5,21,-9,-74,-23,-29,3.109356213
10.972231,-105,-19,-18,-26,-2,-47,-52,-39,3.109356213
10.972900,51,-33,-3,-37,-36,84,11,-31,3.109356213
10.972921,-40,10,3,19,-43,-1,-7,1,3.109356213
10.994794,7,0,3,-4,-11,11,25,-13,3.109356213
10.995767,-3,54,8,14,-55,4,7,27,3.109356213
10.995772,-69,-56,9,4,105,-25,-1,-33,3.109356213
10.995774,93,0,-6,-24,-123,-4,6,89,3.109356213
11.017333,-119,5,12,-9,7,41,-5,-95,3.119059118
11.017359,94,-50,-17,-1,13,-75,-12,39,3.119059118
11.017749,-63,26,-5,-25,-83,47,13,-7,3.119059118
11.017820,34,-30,-2,77,71,8,2,-4,3.119059118
11.031767,73,44,24,31,-39,-98,-5,-14,3.119059118
11.031798,-39,-45,-27,-70,118,114,-23,37,3.119059118
11.039864,4,-23,-1,-11,-66,-60,35,25,3.119059118
11.039888,-22,26,-7,-9,-73,9,-44,-47,3.119059118
11.054941,-64,-44,-9,-33,-89,-15,12,30,3.119059118
11.054973,96,71,5,26,42,-16,3,-43,3.119059118
11.057856,28,-9,-3,14,7,-39,-13,12,3.119059118
11.057868,-61,-23,-13,-39,-3,-15,4,-43,3.119059118
11.076993,-13,-3,1,16,-11,31,16,31,3.119059118
11.077009,-4,6,14,-15,-54,6,23,21,3.119059118
11.077695,-30,-19,-6,5,-62,16,-16,-27,3.119059118
11.077732,74,39,0,-34,22,-62,9,6,3.119059118
11.091356,-8,-62,-6,51,124,43,-12,-31,3.119059118
11.091374,-51,31,-3,14,-51,-39,-58,-55,3.119059118
11.099458,69,21,9,5,36,61,24,24,3.119059118
11.099476,-40,2,-2,-23,109,-19,-21,-1,3.119059118
11.114502,87,15,5,-9,59,-33,34,63,3.119059118
11.114534,-115,-9,-2,-19,-69,58,-31,-31,3.119059118
11.116677,65,-17,-6,-6,-57,-15,-10,5,3.119059118
11.116683,-52,-16,-4,29,26,10,-33,13,3.119059118
11.139137,73,6,-2,-24,-2,13,16,19,3.119059118
11.139147,-28,3,13,56,-23,-25,11,-50,3.119059118
11.139149,-11,-28,-9,-17,-25,-57,-14,-11,3.119059118
11.139151,17,3,-4,-7,-57,-22,15,-27,3.119059118
11.152017,14,21,-8,-8,-31,9,-21,-27,3.119059118
11.152048,-18,-19,6,-13,-67,33,28,71,3.119059118
11.159631,-4,17,4,38,125,-35,-38,13,3.119059118
11.159658,-5,8,4,-10,-74,-52,8,-48,3.119059118
11.174663,-67,-3,4,-54,-96,59,-20,12,3.119059118
11.174690,23,-23,0,31,98,77,19,-7,3.119059118
11.176291,78,-4,-4,17,47,34,4,-15,3.119059118
11.176307,-6,10,-3,-15,-82,-116,24,-20,3.119059118
11.197134,-18,-9,-5,25,58,57,16,21,3.119059118
11.197152,-6,17,0,5,-77,-43,4,-9,3.119059118
11.197952,1,8,2,-27,102,65,10,108,3.119059118
11.197960,15,-19,0,7,15,17,-40,-24,3.119059118
11.214166,9,-36,-5,-8,-33,-32,7,18,3.119059118
11.214179,-29,-29,5,29,106,-13,11,15,3.119059118
11.219539,-78,15,-5,9,-79,-24,-15,-84,3.119059118
11.219569,-26,-7,-2,1,58,-58,0,65,3.119059118
11.234381,19,-7,-1,-40,86,53,-1,-12,3.119059118
11.234391,-107,18,21,-15,-64,-53,18,-42,3.119059118
11.235063,48,-19,-5,48,78,5,-34,34,3.119059118
11.235097,29,13,-4,-16,96,-10,16,-3,3.119059118
11.257427,-43,-26,-14,16,-126,-18,-51,-7,3.119059118
11.257451,73,13,5,8,-3,-107,35,28,3.119059118
11.259621,-62,2,4,-47,-13,36,13,50,3.152854799
11.259635,31,14,3,13,36,65,11,6,3.152854799
11.271431,30,8,1,12,-61,-38,6,10,3.152854799
11.271448,-1,17,-2,-15,-70,-24,-26,45,3.152854799
11.279572,51,-24,-8,9,20,-42,7,-30,3.152854799
11.279592,47,3,-8,-5,-29,33,-7,-3,3.152854799
11.294563,-38,30,7,13,-33,22,16,2,3.152854799
11.294578,19,0,-6,18,79,-37,0,-17,3.152854799
11.295359,-1,16,18,-40,-118,-71,-7,29,3.152854799
11.295370,13,18,4,71,38,36,37,15,3.152854799
11.317097,13,-31,-14,-63,55,83,-13,65,3.152854799
11.317121,30,34,2,21,53,39,19,-21,3.152854799
11.319045,-68,-19,-3,-14,-37,-15,6,-61,3.152854799
11.319051,86,48,-7,-2,-34,19,3,1,3.152854799
11.332180,-28,-23,-3,-15,-38,-72,2,-15,3.152854799
11.332210,36,10,-3,28,-10,23,-3,42,3.152854799
11.339833,-34,43,5,9,2,-12,7,18,3.152854799
11.339856,-58,-11,12,-9,12,2,-1,-21,3.152854799
11.356373,2,5,-12,33,5,-35,3,-23,3.152854799
11.356384,-10,-38,-7,-62,90,-29,-25,15,3.152854799
11.356386,38,11,-4,8,-91,11,-23,-10,3.152854799
11.356389,-30,-31,1,-48,-62,-28,17,16,3.152854799
11.377072,21,34,15,50,32,-5,30,25,3.152854799
11.377093,-17,-36,-16,9,81,8,-19,-34,3.152854799
11.378054,33,-9,-2,-11,-71,-94,-5,0,3.152854799
11.378062,-49,-31,-15,-37,60,109,19,-18,3.152854799
11.400578,-7,5,-7,-33,3,-67,-60,-37,3.152854799
11.400588,-21,13,1,-1,22,-27,40,38,3.152854799
11.401024,-58,-6,-5,58,115,73,-29,-74,3.152854799
11.401039,-58,-2,3,-17,-128,-72,3,-16,3.152854799
11.414608,-37,50,9,7,-10,12,27,18,3.152854799
11.414627,79,-71,-10,-13,1,16,-36,-29,3.152854799
11.415769,52,19,-6,-12,-24,10,8,15,3.152854799
11.415784,-19,2,10,17,-9,-26,-62,-31,3.152854799
11.437128,-50,-11,-2,-14,-34,39,4,-47,3.152854799
11.437159,10,40,0,-2,-20,-9,17,6,3.152854799
11.438726,17,8,5,-11,117,3,15,28,3.152854799
11.438739,-21,-52,1,38,-73,-13,-13,-5,3.152854799
11.460398,56,3,-1,-27,52,35,-10,-25,3.152854799
11.460503,12,39,12,-4,-108,-22,9,-14,3.152854799
11.462063,-96,-69,-21,-53,19,-2,-12,-19,3.152854799
11.462075,99,-31,-1,56,90,78,-14,-2,3.152854799
11.474689,97,-19,-17,-7,77,-34,-14,-14,3.152854799
11.474720,-61,-23,0,-7,-80,4,6,-8,3.152854799
11.476453,3,5,-4,1,-86,-17,-17,-10,3.152854799
11.476475,12,18,12,0,52,-36,3,-5,3.152854799
11.497132,2,9,-1,7,-54,-25,7,-14,3.152854799
11.497150,-6,-17,0,9,-4,24,7,31,3.152854799
11.498389,10,58,11,15,-27,-28,0,99,3.152854799
11.498402,-49,-3,-13,-32,20,64,7,32,3.152854799
11.520225,36,0,9,48,-75,-12,25,-38,3.155621907
11.520254,-33,33,5,-23,-83,-27,-11,5,3.155621907
11.521503,7,-62,4,70,113,97,1,-48,3.155621907
11.521559,-50,32,-5,-29,-37,-96,-12,7,3.155621907
11.534535,-34,-54,-9,-10,119,75,36,29,3.155621907
11.534553,-49,-16,-12,-43,9,13,-34,0,3.155621907
11.535422,54,31,4,-15,-5,-55,70,0,3.155621907
11.535430,44,-3,-5,39,90,-68,-18,-27,3.155621907
11.557108,-30,-19,-3,-10,-59,28,-30,7,3.155621907
11.557138,-19,7,3,30,33,42,4,23,3.155621907
11.558934,31,21,0,-10,-45,-16,-5,19,3.155621907
11.558955,-72,13,0,-19,39,6,17,-30,3.155621907
11.580576,13,7,-2,4,-26,-53,-21,-43,3.155621907
11.580618,63,-2,-2,1,20,50,15,-81,3.155621907
11.582657,-9,-6,-3,-1,-32,6,-34,38,3.155621907
11.582690,-15,27,8,13,-6,-47,35,19,3.155621907
11.594485,-37,17,5,31,13,30,-20,4,3.155621907
11.594503,95,21,8,4,-68,1,10,-18,3.155621907
11.595309,-72,-40,-16,-62,31,89,-22,-95,3.155621907
11.595320,58,39,7,18,-89,-4,79,31,3.155621907
11.617263,-17,-31,-1,22,56,-59,28,18,3.155621907
11.617294,47,-9,-11,-2,-72,21,-22,1,3.155621907
11.619610,-53,66,23,13,67,-62,2,36,3.155621907
11.619621,-40,-62,-22,-30,15,61,-11,-2,3.155621907
11.640561,78,5,-9,-41,-128,-15,-33,4,3.155621907
11.640586,7,3,6,0,101,-14,10,71,3.155621907
11.641267,-49,6,-4,36,23,2,7,-83,3.155621907
11.641289,24,-26,-1,-13,-62,12,-20,31,3.155621907
11.655094,50,63,10,11,-12,-32,-2,95,3.155621907
11.655121,-54,-16,-3,-27,-32,-40,-5,4,3.155621907
11.657128,52,13,8,27,-19,-72,-16,-10,3.155621907
11.657141,41,14,-7,-48,79,76,-44,-8,3.155621907
11.677408,-85,-40,-6,-11,12,66,10,-45,3.155621907
11.678982,93,27,-5,24,67,2,41,28,3.155621907
11.678989,3,-42,-5,-4,-102,-84,-9,36,3.155621907
11.678992,-27,19,-1,0,-82,51,7,-30,3.155621907
11.700558,-16,-13,-5,-16,100,-28,18,-3,3.155621907
11.700567,-60,11,12,17,33,-4,-21,-12,3.155621907
11.700913,9,-46,-2,-5,40,46,26,9,3.155621907
11.700946,64,6,-10,-5,-65,-34,-8,-37,3.155621907
11.714635,12,-9,6,9,-8,7,7,-54,3.155621907
11.714669,-64,13,-1,-10,63,-4,21,22,3.155621907
11.715275,29,20,-8,-17,-86,-61,6,17,3.155621907
11.715381,-33,-35,5,-4,75,-62,-17,29,3.155621907
11.737702,0,31,15,46,-29,-12,-25,-60,3.155621907
11.737730,21,-2,2,27,95,28,21,25,3.155621907
11.740568,-37,-27,-13,-90,102,112,-10,-13,3.155621907
11.740574,15,-1,-6,28,-2,-1,44,4,3.155621907
11.761147,-24,20,6,-5,-78,-26,19,24,3.155621907
11.761163,26,-24,-13,4,-124,-3,-18,-24,3.155621907
11.767126,5,-33,-3,8,-69,3,-10,-5,3.155621907
11.767146,22,-6,9,-2,1,-33,4,-7,3.155621907
11.776775,27,42,1,-22,38,-17,-18,25,3.146338125
11.776794,-42,-41,-6,-7,-64,-29,-21,-74,3.146338125
11.776796,20,25,4,11,35,23,7,30,3.146338125
11.776799,-5,-9,-8,-1,14,-39,-26,-19,3.146338125
11.797191,27,10,2,17,45,69,11,19,3.146338125
11.797211,27,0,-3,-45,-24,-10,-20,51,3.146338125
11.797881,-32,15,-3,48,97,-37,-1,-45,3.146338125
11.797903,14,-14,5,-12,-121,117,20,25,3.146338125
11.822150,-52,42,2,0,78,8,21,13,3.146338125
11.822162,-1,-54,-14,-25,-35,50,-64,-57,3.146338125
11.822168,-9,19,4,-19,8,-3,-8,-18,3.146338125
11.822173,-57,6,-11,2,-19,-62,4,21,3.146338125
11.834844,10,-22,-1,18,-13,-23,-17,49,3.146338125
11.834867,13,34,17,14,-90,-17,10,9,3.146338125
11.836225,-27,18,-2,-2,20,-71,8,24,3.146338125
11.836238,13,16,0,-26,-2,79,-21,6,3.146338125
11.857311,79,-86,-25,13,43,-22,9,-49,3.146338125
11.857331,-12,18,10,-19,60,-80,1,9,3.146338125
11.857832,20,-7,12,44,-28,111,29,28,3.146338125
11.857849,-21,26,4,33,127,-128,18,60,3.146338125
11.880264,-66,-16,-14,-88,-79,78,-83,31,3.146338125
11.880288,93,-11,0,14,-53,-69,41,21,3.146338125
11.882092,25,-29,-2,-3,109,-36,25,-28,3.146338125
11.882098,-7,27,15,-8,-36,98,13,-59,3.146338125
11.894718,88,-20,-13,-9,-67,-127,-29,38,3.146338125
11.894738,-21,-6,-4,14,44,27,-2,-33,3.146338125
11.897090,58,37,7,3,-85,-15,16,73,3.146338125
11.897104,44,-28,-4,7,-79,-29,-32,-100,3.146338125
11.917191,-4,38,10,9,-26,-5,23,18,3.146338125
11.917205,-8,-65,-10,-11,15,18,7,68,3.146338125
11.917774,5,-1,-2,-13,21,-27,-4,-3,3.146338125
11.917814,-31,10,9,12,0,67,44,30,3.146338125
11.940338,9,1,6,85,107,-97,-33,-34,3.146338125
11.940355,-43,-10,-22,-81,94,67,57,-40,3.146338125
11.942842,-20,31,1,-6,4,28,45,-30,3.146338125
11.942858,29,-20,5,-6,-57,-116,-10,105,3.146338125
11.954729,-95,-18,-10,-37,-51,86,37,-14,3.146338125
11.954895,-57,-31,-4,22,-47,-45,-36,-37,3.146338125
11.956778,-20,21,15,5,-13,-19,-13,-11,3.146338125
11.956790,41,-34,-15,-6,9,-1,6,-41,3.146338125
11.979403,-76,-16,1,-14,-40,-41,11,4,3.146338125
11.979415,-16,-12,3,29,33,14,-17,17,3.146338125
11.979418,-10,-14,-6,-12,-56,31,-19,-37,3.146338125
11.979421,-19,34,5,20,-26,-28,-18,40,3.146338125
12.000441,51,38,13,10,62,2,35,47,3.146338125
12.000467,9,-4,-4,5,83,-72,-62,-89,3.146338125
12.003504,-15,-38,-10,-6,65,-20,10,-3,3.146338125
12.003512,6,-22,4,-16,21,-104,-18,-36,3.146338125
12.013883,-35,2,-14,-46,-64,102,29,-37,3.146338125
12.013902,56,74,10,53,22,-105,14,44,3.146338125
12.022527,-44,-44,-10,2,-22,-12,-10,42,3.112668631
12.022613,18,2,-6,0,35,-36,-23,22,3.112668631
12.045222,-90,-29,-2,-16,-53,-23,-15,-40,3.112668631
12.045296,40,12,6,16,7,16,17,13,3.112668631
12.045925,73,17,-8,-11,-33,20,-47,-14,3.112668631
12.045947,-18,-32,1,11,-2,38,7,53,3.112668631
12.060736,12,46,4,0,-9,-21,15,43,3.112668631
12.060756,-22,24,13,6,40,46,18,-3,3.112668631
12.060995,114,-39,-14,-17,-88,10,-6,23,3.112668631
12.061123,-21,-7,-8,-10,11,-6,-15,-31,3.112668631
12.073819,39,4,3,2,107,-92,-15,16,3.112668631
12.073830,-21,20,-4,-40,77,43,10,49,3.112668631
12.082635,-50,-4,11,48,-19,48,10,-18,3.112668631
12.082666,-17,20,-9,8,115,84,40,-43,3.112668631
12.097240,-3,-20,-1,-33,-117,29,-37,6,3.112668631
12.097273,31,-20,-12,14,-51,-40,-35,-27,3.112668631
12.099724,-7,18,3,-13,-79,-24,-6,-16,3.112668631
12.099729,25,12,7,-1,-59,4,4,-14,3.112668631
12.120217,32,-2,2,33,21,-47,25,-27,3.112668631
12.120232,-58,-32,3,-20,-43,12,10,33,3.112668631
12.120928,96,48,-7,7,-13,-10,-22,-31,3.112668631
12.120937,49,-31,1,-26,-75,-47,-4,-11,3.112668631
12.134049,-56,-44,10,30,-113,-18,-29,66,3.112668631
12.134056,79,39,0,1,42,42,0,-12,3.112668631
12.142192,-36,-72,-17,-7,-28,-10,40,2,3.112668631
12.142217,-28,42,13,5,-25,-13,-68,-6,3.112668631
12.157785,57,8,-1,-6,71,60,58,-33,3.112668631
12.157808,11,-3,-4,-16,-75,5,23,-30,3.112668631
12.160465,-50,10,4,9,21,49,-7,-40,3.112668631
12.160479,0,4,3,11,51,-42,3,31,3.112668631
12.180542,-23,-19,-4,-15,-53,14,35,-30,3.112668631
12.180548,-51,70,10,14,-10,-25,-34,10,3.112668631
12.180883,-72,-22,-3,-15,37,-81,16,-30,3.112668631
12.180904,-10,-10,-11,-26,-45,40,-14,17,3.112668631
12.193964,25,4,5,33,77,10,4,7,3.112668631
12.193990,24,-25,3,25,56,6,6,-50,3.112668631
12.202147,-24,63,10,-12,-128,-49,-7,-11,3.112668631
12.202163,-31,-7,-4,9,8,-33,-29,-9,3.112668631
12.217098,1,-22,-6,-13,80,-62,-38,55,3.112668631
12.217116,28,-18,-12,-17,-110,54,18,15,3.112668631
12.217689,47,-14,4,-15,32,-45,-22,0,3.112668631
12.217697,38,19,-2,-30,-69,-21,8,2,3.112668631
12.240473,34,24,1,35,91,-32,-17,-36,3.112668631
12.240498,-32,-2,1,-6,-118,-52,15,65,3.112668631
12.243389,10,31,-3,7,18,7,31,24,3.112668631
12.243401,-56,-35,-7,6,8,-34,-52,-35,3.112668631
12.254316,-23,0,-9,-32,-86,27,-38,-35,3.112668631
12.254413,33,52,-1,0,47,-1,-12,-20,3.112668631
12.262176,-34,-62,6,16,-20,-7,-6,45,3.112668631
12.262194,59,11,-7,-37,-20,27,52,25,3.112668631
12.277166,-20,-20,4,41,32,-77,-3,-43,3.141606097
12.277183,-29,-25,-5,-62,-32,79,-5,-5,3.141606097
12.278026,-2,-30,-4,1,-76,-14,-38,14,3.141606097
12.278044,-112,2,4,-15,101,-6,18,-23,3.141606097
12.300566,32,9,9,16,-73,62,49,11,3.141606097
12.300591,53,-12,-10,1,90,67,32,-24,3.141606097
12.302793,-6,18,5,6,13,-71,-17,57,3.141606097
12.302800,12,-27,-8,-29,-22,30,1,8,3.141606097
12.322851,87,10,-6,18,-27,4,-34,-6,3.141606097
12.322858,-99,16,6,17,-33,-22,-20,-12,3.141606097
12.323534,13,-12,-11,-15,-8,3,3,-22,3.141606097
12.323611,-18,-1,1,22,1,7,8,-53,3.141606097
12.338816,-16,8,-4,-36,-9,21,1,16,3.141606097
12.338828,10,12,15,9,-55,-58,13,22,3.141606097
12.338830,-14,21,0,55,124,26,-29,-34,3.141606097
12.338833,63,12,4,-20,83,-62,10,33,3.141606097
12.360401,-105,-15,-8,5,85,-5,-8,19,3.141606097
12.361590,24,-19,-4,44,-76,-51,5,-13,3.141606097
12.361597,32,3,1,-100,-104,65,28,0,3.141606097
12.361600,-38,-31,-3,15,-50,78,-9,-2,3.141606097
12.383420,27,23,-10,1,4,-44,-23,45,3.141606097
12.383438,-33,8,3,12,-21,-32,22,8,3.141606097
12.383563,-16,18,5,3,-7,-45,18,-17,3.141606097
12.383571,-15,-9,-3,38,-56,0,-46,79,3.141606097
12.397045,-13,-15,-7,-45,-41,15,0,23,3.141606097
12.397072,3,-5,0,-1,2,23,14,-6,3.141606097
12.398558,-59,-19,-1,1,8,-1,-10,-1,3.141606097
12.398570,58,-20,-2,-5,16,13,1,-37,3.141606097
12.420397,17,38,12,2,-112,-44,15,-8,3.141606097
12.420416,-29,-10,-13,24,91,27,1,-8,3.141606097
12.422743,-44,-40,-11,-65,-53,5,-11,-23,3.141606097
12.422756,39,2,0,75,104,-61,-2,-34,3.141606097
12.442935,13,4,9,-16,67,44,22,-8,3.141606097
12.442956,16,-1,15,26,61,-38,2,-1,3.141606097
12.444849,21,57,3,6,-7,3,6,53,3.141606097
12.444869,-103,-32,-13,-23,-128,2,-23,-88,3.141606097
12.457390,11,-51,-7,-6,-12,-75,-26,-14,3.141606097
12.457483,-16,-73,1,2,-69,8,-32,-46,3.141606097
12.460040,17,21,4,28,127,11,13,30,3.141606097
12.460054,54,81,1,-9,-51,-28,24,-36,3.141606097
12.480422,41,-6,1,-1,18,43,9,28,3.141606097
12.480444,25,-3,-1,-22,-112,4,-1,30,3.141606097
12.481302,-3,18,-4,34,66,-19,-24,-33,3.141606097
12.481363,-56,-1,6,68,95,71,11,27,3.141606097
12.503616,33,-35,-6,-27,-128,6,-25,19,3.141606097
12.503659,-4,-20,-13,-1,127,73,7,20,3.141606097
12.503668,39,-25,-6,-37,-93,-42,-13,-33,3.141606097
12.503675,-33,2,-4,-20,67,64,-29,36,3.141606097
12.517226,14,9,-4,5,-61,-13,21,-21,3.141606097
12.517249,-115,32,17,33,-5,-48,-3,26,3.141606097
12.518846,59,-50,-4,7,-18,-5,13,-66,3.141606097
12.518899,71,37,-8,-31,19,-42,8,52,3.141606097
12.540292,-77,10,3,12,20,5,11,-89,3.151061137
12.540299,36,35,2,-31,-16,-11,-18,-17,3.151061137
12.540835,-19,10,6,23,41,43,10,6,3.151061137
12.540842,-11,34,15,17,-74,-35,17,9,3.151061137
12.562899,-37,-39,-13,-51,0,94,28,-22,3.151061137
12.562924,24,16,-7,13,1,-21,-34,100,3.151061137
12.564981,21,-2,6,33,-65,-89,6,39,3.151061137
12.564994,29,1,0,-19,72,92,34,26,3.151061137
12.577248,-45,-10,3,68,98,-123,8,27,3.151061137
12.577274,22,-11,-2,-29,-109,95,-7,-64,3.151061137
12.578823,-35,-8,-13,-62,59,64,18,74,3.151061137
12.578830,-3,13,7,22,-128,-23,15,4,3.151061137
12.600929,-45,7,-5,-4,15,-44,-26,-51,3.151061137
12.600946,86,27,-11,-6,-19,-69,10,12,3.151061137
12.600952,36,6,-4,-10,26,57,-34,-89,3.151061137
12.601033,-20,-3,2,-11,69,9,-8,39,3.151061137
12.623119,33,12,6,1,26,38,7,15,3.151061137
12.623141,-80,25,5,-7,17,-69,-2,-22,3.151061137
12.624751,-22,14,6,22,-110,70,58,12,3.151061137
12.624764,-45,-39,-6,-86,-107,-93,-87,-78,3.151061137
12.637447,28,-44,-21,48,76,67,-8,-14,3.151061137
12.637470,5,-23,-11,-15,-108,-38,-8,19,3.151061137
12.638761,-10,-15,-2,33,36,-121,-9,-8,3.151061137
12.638771,-12,14,-1,-34,96,127,40,8,3.151061137
12.660623,5,47,15,-30,-47,-69,2,34,3.151061137
12.660643,31,2,-1,6,-25,-61,-14,-38,3.151061137
12.662504,-67,1,-5,13,43,-32,-8,10,3.151061137
12.662519,39,-17,3,48,-52,-70,12,51,3.151061137
12.682892,59,50,3,-24,-32,4,-12,-57,3.151061137
12.682915,-85,-43,0,25,127,23,0,61,3.151061137
12.683525,37,3,3,2,-40,12,-20,-47,3.151061137
12.683532,-47,-23,4,-14,-43,-16,23,9,3.151061137
12.697189,37,-14,-7,37,-8,9,-39,-68,3.151061137
12.697208,-2,17,3,-21,-30,-1,-18,-23,3.151061137
12.697956,18,18,10,-25,4,2,80,33,3.151061137
12.698011,40,0,-9,-43,39,-66,-39,-30,3.151061137
12.720623,-61,-55,-2,13,1,4,5,-2,3.151061137
12.720646,-2,-60,-10,-28,-81,43,36,51,3.151061137
12.721904,15,31,-6,23,-16,-27,-46,21,3.151061137
12.721915,17,-6,-1,11,-24,-26,18,-34,3.151061137
12.742982,5,45,6,-27,-3,-19,6,-5,3.151061137
12.743002,14,20,11,22,42,-8,-11,-13,3.151061137
12.743681,2,-41,-14,-35,-11,24,-9,12,3.151061137
12.743704,28,17,9,65,17,25,5,9,3.151061137
12.757031,-73,4,-2,-52,-51,-2,14,26,3.151061137
12.757039,16,4,-8,5,74,8,16,16,3.151061137
12.757961,-73,10,1,-7,13,38,-9,-20,3.151061137
12.758117,85,-15,-5,15,-77,-40,-3,-7,3.151061137
12.780504,-52,-15,-1,60,-87,-115,9,31,3.151061137
12.781489,19,-10,-4,-83,106,119,41,6,3.151061137
12.781498,-45,3,5,0,-64,-112,-23,35,3.151061137
12.781501,-27,-6,-3,12,-63,-16,-13,73,3.151061137
12.803901,17,-2,-4,-6,-13,-7,-9,-23,3.156865754
12.803907,-4,-9,-5,20,-86,-73,7,-49,3.156865754
12.803910,-20,25,9,4,42,85,11,-9,3.156865754
12.803912,13,-29,-3,16,16,10,-17,-41,3.156865754
12.819354,20,39,-3,-29,-71,16,3,49,3.156865754
12.819367,11,5,-2,26,49,-24,-23,-48,3.156865754
12.819373,25,28,8,-19,2,-37,8,17,3.156865754
12.819378,-64,18,-2,4,29,59,11,-21,3.156865754
12.840302,-27,6,-3,-26,-52,35,-13,-18,3.156865754
12.840323,-18,-25,2,21,-101,35,-11,-2,3.156865754
12.841427,7,-18,-17,28,101,16,6,-79,3.156865754
12.841437,9,34,6,-16,-93,-64,19,40,3.156865754
12.863031,20,-1,6,-23,-66,58,-9,19,3.156865754
12.863065,-11,5,-15,-25,97,48,-10,-20,3.156865754
12.865518,-6,-14,-4,-6,-124,20,-1,1,3.156865754
12.865530,54,-36,-16,-14,-24,-30,-30,-44,3.156865754
12.877283,48,23,11,21,127,-56,-18,-32,3.156865754
12.877301,24,-28,6,1,-99,-33,-3,-4,3.156865754
12.879615,38,19,3,9,21,26,0,84,3.156865754
12.879631,-12,5,-4,-1,49,-2,27,17,3.156865754
12.900417,-4,0,-1,-4,-3,-2,16,-22,3.156865754
12.900440,18,45,8,5,8,-43,0,18,3.156865754
12.901035,-3,-7,0,-12,-3,-9,-7,-44,3.156865754
12.901110,25,17,6,-17,-106,21,5,47,3.156865754
12.923385,-2,-41,0,51,101,75,31,-41,3.156865754
12.923416,-44,15,-10,-9,-104,-117,1,-5,3.156865754
12.926077,24,-46,-22,-49,-43,62,-9,9,3.156865754
12.926095,-18,13,3,-6,-67,30,-1,-44,3.156865754
12.936824,-15,9,2,-8,-21,-3,14,14,3.156865754
12.936856,74,-1,-1,-10,-60,38,-21,-9,3.156865754
12.944803,-18,-45,-7,35,6,-110,-11,-5,3.156865754
12.944823,-17,23,0,3,85,11,-5,-16,3.156865754
12.960462,54,3,0,-45,-26,-59,-14,16,3.156865754
12.960524,3,-39,-7,23,54,70,5,1,3.156865754
12.961069,7,27,4,1,-7,-50,-26,23,3.156865754
12.961080,-14,-8,1,4,-47,48,7,-37,3.156865754
12.982800,-39,-6,1,-26,-114,-70,-23,-49,3.156865754
12.982823,-1,21,10,21,114,69,-5,105,3.156865754
12.985203,24,-2,4,0,15,-27,-1,-82,3.156865754
12.985209,-68,-11,1,-3,5,66,46,34,3.156865754
12.996788,1,-15,-2,10,74,-65,-12,-1,3.156865754
12.996813,0,2,-4,-15,-53,-19,-26,-60,3.156865754
13.006811,43,8,-2,0,61,61,16,37,3.156865754
13.006820,-16,0,-5,1,49,-46,-14,-14,3.156865754
13.022392,16,-31,-11,-11,-58,-5,-31,13,3.156865754
13.022401,-26,-3,5,-4,8,-20,7,8,3.156865754
13.022405,16,10,2,-5,-28,-21,16,-37,3.156865754
13.022436,-12,-5,9,31,95,8,-4,64,3.156865754
13.042801,-45,7,-6,-26,-13,-37,14,69,3.109590562
13.042821,102,-13,-5,37,-64,70,-69,75,3.109590562
13.045088,-70,42,21,-15,-43,-71,88,-32,3.109590562
13.045100,19,-29,-8,-32,97,8,-10,-5,3.109590562
13.056848,-7,-29,-17,-16,59,76,-37,-3,3.109590562
13.056871,-34,9,5,14,5,-107,26,-48,3.109590562
13.067888,52,-4,-6,6,-32,92,-12,14,3.109590562
13.067905,0,-6,-3,-2,-55,-22,18,-25,3.109590562
13.080475,-34,5,-2,11,1,9,12,13,3.109590562
13.080506,-22,0,-7,-39,-36,-32,-5,-71,3.109590562
13.082854,21,-8,2,28,-22,10,1,24,3.109590562
13.082866,-35,-14,-1,6,-5,-31,-7,-44,3.109590562
13.103161,64,36,0,-2,-11,42,-2,29,3.109590562
13.103183,-23,-46,-10,-22,-61,-20,10,-66,3.109590562
13.105351,9,3,5,30,34,-34,-40,45,3.109590562
13.105356,29,4,0,3,-39,-37,-30,-45,3.109590562
13.125716,30,31,6,36,40,74,6,69,3.109590562
13.125741,-74,-8,1,-19,107,-72,-30,-55,3.109590562
13.128322,27,46,15,27,51,102,31,93,3.109590562
13.128337,-99,-3,-1,-30,-128,5,-47,-35,3.109590562
13.140774,7,-51,-9,-29,-98,18,12,-30,3.109590562
13.140805,-51,46,-1,-3,-22,-49,40,-8,3.109590562
13.143589,8,-11,-7,26,-78,-21,-48,-40,3.109590562
13.143605,39,46,7,5,16,97,47,42,3.109590562
13.162853,39,-2,6,16,-9,-44,-2,-42,3.109590562
13.162878,1,-35,-20,-37,-43,15,-5,33,3.109590562
13.164402,-11,-2,-1,-21,12,-38,-5,-47,3.109590562
13.164424,-4,-16,-3,18,7,-34,-10,-12,3.109590562
13.176612,-7,41,10,9,-1,20,22,-23,3.109590562
13.176629,17,12,11,10,-11,41,18,-40,3.109590562
13.186850,-42,0,-10,-9,34,-87,-23,-15,3.109590562
13.186861,25,-9,4,24,17,-21,0,6,3.109590562
13.200388,-29,-3,-2,-22,23,48,-2,-4,3.109590562
13.200420,-11,-11,-10,5,127,51,-26,-13,3.109590562
13.203582,-9,6,0,-29,61,70,-1,38,3.109590562
13.203588,-30,16,5,19,-76,5,8,70,3.109590562
13.223170,68,-9,-8,0,-14,-96,-13,-8,3.109590562
13.223237,39,-27,-4,21,-111,15,15,-24,3.109590562
13.224306,-9,2,-5,13,12,-3,-21,2,3.109590562
13.224336,-20,35,-1,-34,44,-36,-6,19,3.109590562
13.238034,-94,-102,1,9,-26,28,24,16,3.109590562
13.238042,13,0,-11,-2,82,-24,-15,-54,3.109590562
13.246746,21,-35,-1,-18,-90,-7,6,0,3.109590562
13.246758,-31,-14,0,22,18,-5,-1,23,3.109590562
13.260514,-19,74,17,37,38,-104,13,-10,3.109590562
13.262742,-62,-32,9,-15,33,102,-49,2,3.109590562
13.262756,31,32,-4,-27,39,-6,54,66,3.109590562
13.262759,-4,-24,-9,10,77,-80,-38,18,3.109590562
13.284385,52,3,1,-14,72,127,66,47,3.109590562
13.284394,-42,54,9,7,-72,-128,0,-38,3.109590562
13.284397,-97,-10,-3,10,-60,1,-3,32,3.109590562
13.284399,103,-51,-7,-17,-82,-5,-15,-39,3.109590562
13.305748,-45,11,-10,-6,19,23,-10,3,3.099387409
13.305769,58,-29,-3,40,-16,-43,-7,-12,3.099387409
13.307603,-53,16,-1,-23,-5,17,4,-16,3.099387409
13.307609,-1,37,14,17,15,-20,27,-71,3.099387409
13.320333,-37,-59,-19,-21,-12,22,-22,-5,3.099387409
13.320356,-5,12,-9,-16,-5,14,3,50,3.099387409
13.321755,41,7,5,5,-128,-32,-21,-6,3.099387409
13.321765,-53,-2,0,-47,-27,-26,-21,-7,3.099387409
13.343272,112,16,-4,-3,-31,48,4,51,3.099387409
13.343310,-46,29,15,76,56,3,10,25,3.099387409
13.345779,26,-12,4,-26,-83,16,-28,-23,3.099387409
13.345793,0,0,-7,-17,52,-49,26,7,3.099387409
13.365813,-26,46,5,-5,-2,25,-49,-28,3.099387409
13.365844,7,-41,4,-9,-57,-74,30,34,3.099387409
13.368349,-14,-6,-8,16,27,99,0,-42,3.099387409
13.368359,-18,25,9,9,-79,-41,0,14,3.099387409
13.380530,60,25,-8,5,2,-44,-40,-46,3.099387409
13.380555,32,-25,-10,-28,19,43,25,27,3.099387409
13.381992,-69,18,9,43,20,-36,-4,-78,3.099387409
13.382011,69,-88,-27,-25,4,44,-1,5,3.099387409
13.403225,-31,5,1,4,10,-27,0,19,3.099387409
13.403277,-7,46,10,6,-40,-54,-15,34,3.099387409
13.405026,-27,-5,7,-43,-60,-22,8,-19,3.099387409
13.405031,-4,6,-1,60,-61,19,-28,34,3.099387409
13.425311,-10,-28,-2,-42,-106,20,-6,-32,3.099387409
13.425328,25,16,-2,40,68,44,19,30,3.099387409
13.427070,26,-44,3,-10,-76,-2,0,19,3.099387409
13.427089,7,31,-11,-41,11,16,-16,-38,3.099387409
13.440158,39,-44,1,22,-20,-48,10,-7,3.099387409
13.440166,-63,3,-4,-32,-104,28,0,-55,3.099387409
13.447035,46,-29,-18,-14,30,-75,-25,68,3.099387409
13.447062,25,-4,12,11,-6,-5,34,17,3.099387409
13.462994,-94,27,-2,-14,-100,74,20,64,3.099387409
13.463124,75,16,4,-22,15,4,4,30,3.099387409
13.464576,-78,-13,-5,33,56,54,1,-18,3.099387409
13.464587,46,-27,-8,-69,14,-70,-29,2,3.099387409
13.486480,-32,21,10,38,127,-59,-22,-5,3.099387409
13.486489,-26,25,7,4,-44,46,9,21,3.099387409
13.486767,-49,2,-4,21,-69,-11,-9,14,3.099387409
13.486774,-3,-3,0,23,49,11,38,2,3.099387409
13.500059,-44,-28,-2,-48,-76,-23,-35,14,3.099387409
13.500085,78,-33,-17,-6,103,5,-1,31,3.099387409
13.506949,49,19,-3,-28,5,-77,-13,16,3.099387409
13.506972,-22,59,7,78,99,24,1,-39,3.099387409
13.523257,-41,-44,-9,-44,-87,-21,0,24,3.099387409
13.523282,47,12,-4,-9,-67,-13,5,21,3.099387409
13.524583,14,4,-2,-16,127,97,-8,14,3.099387409
13.524621,51,0,-2,2,71,17,-10,47,3.099387409
13.545446,-60,1,8,-1,-16,18,6,-91,3.099387409
13.545463,-38,-6,-4,28,-102,-54,19,-4,3.099387409
13.547324,40,-17,-3,5,-4,81,4,-8,3.099387409
13.547336,-6,1,1,-13,-38,-30,-14,-72,3.099387409
13.559729,0,7,8,13,-8,-3,14,8,3.249104213
13.559757,-2,13,4,-22,20,16,2,17,3.249104213
13.566573,4,-3,-2,12,4,-59,-2,-34,3.249104213
13.566595,-43,-17,-3,-3,-63,35,-4,-34,3.249104213
13.582870,40,21,-1,-7,-37,-112,7,21,3.249104213
13.582896,47,-12,-11,8,69,104,-23,-79,3.249104213
13.584406,-1,-1,1,8,9,-18,32,2,3.249104213
13.585456,4,12,-2,-65,-109,48,14,114,3.249104213
13.605617,14,15,-6,-18,88,41,45,0,3.249104213
13.605641,40,-29,15,71,98,-54,-20,-10,3.249104213
13.607265,68,48,8,22,6,55,24,74,3.249104213
13.607270,32,-6,-1,-38,-52,12,-23,-50,3.249104213
13.620092,22,6,0,73,40,37,4,-21,3.249104213
13.620124,-107,24,5,-42,-72,9,26,29,3.249104213
13.626600,59,31,2,6,-14,-34,21,1,3.249104213
13.626623,-96,-91,-21,9,-37,-18,-32,-68,3.249104213
13.644094,18,15,6,9,-12,-26,-2,39,3.249104213
13.644108,-51,13,2,-30,-23,-20,-17,-29,3.249104213
13.644452,-18,-14,3,18,49,-19,-2,-6,3.249104213
13.644477,-89,9,7,-5,-87,37,33,7,3.249104213
13.665883,48,29,-1,31,127,-108,-18,27,3.249104213
13.665907,-25,-11,-11,-54,-100,48,6,-5,3.249104213
13.668561,-34,-6,-4,2,43,75,6,-76,3.249104213
13.668567,64,-4,0,6,-93,-22,-12,83,3.249104213
13.679735,-16,2,0,43,83,82,10,-31,3.249104213
13.679752,18,4,1,9,-42,6,35,41,3.249104213
13.688719,-20,5,1,-8,-67,-86,-10,0,3.249104213
13.688726,-33,14,-7,-11,17,-15,-36,-9,3.249104213
13.704885,43,81,21,-3,-72,6,-11,-62,3.249104213
13.704893,-64,-96,-33,-28,7,-1,-20,-40,3.249104213
13.704896,-13,-5,0,35,0,-15,-5,-30,3.249104213
13.704898,0,19,2,17,52,3,34,9,3.249104213
13.725522,-72,8,12,-7,-21,-2,-8,-85,3.249104213
13.725544,28,21,12,-3,-63,-34,14,26,3.249104213
13.727647,45,-12,-27,-49,77,-3,-51,-80,3.249104213
13.727660,-26,8,4,24,29,-57,27,42,3.249104213
13.740106,76,-7,-7,-15,-128,52,49,20,3.249104213
13.740132,-53,-15,-9,58,93,75,-8,2,3.249104213
13.746664,-53,22,4,-53,-49,-102,-75,22,3.249104213
13.746695,-9,19,11,29,26,84,65,-1,3.249104213
13.762949,34,1,-24,-25,-30,1,-20,9,3.249104213
13.762973,6,32,14,12,-67,-96,-6,30,3.249104213
13.765119,30,22,-1,8,-50,41,-9,0,3.249104213
13.765128,-17,-34,0,-9,127,39,23,30,3.249104213
13.785667,-25,-35,0,8,-58,-56,-27,-45,3.249104213
13.785703,81,-17,-11,-38,40,-3,-6,-21,3.249104213
13.788259,1,-20,11,17,4,-24,9,-19,3.249104213
13.788267,-23,68,4,-3,13,-30,-15,-48,3.249104213
13.799029,-30,-41,-8,25,69,60,20,49,3.249104213
13.799049,26,39,6,-25,-29,-50,-9,-2,3.249104213
13.810979,-11,-27,-3,15,-66,-12,22,28,3.143043732
13.810994,16,-6,-13,-22,34,-78,-24,-64,3.143043732
13.823166,-28,-42,-4,10,-99,57,37,78,3.143043732
13.823190,-54,25,-5,-40,-18,-16,-16,-86,3.143043732
13.825622,-24,-17,1,7,-39,-25,-26,34,3.143043732
13.825641,23,17,0,10,38,-40,34,-39,3.143043732
13.845473,20,18,0,-13,49,-21,-32,-16,3.143043732
13.845491,-42,-3,10,0,-64,-45,22,55,3.143043732
13.847083,-36,7,-1,-10,-42,1,24,-10,3.143043732
13.847103,24,-41,-5,13,-43,8,-17,-8,3.143043732
13.859717,-55,-35,-4,-5,95,2,-15,-16,3.143043732
13.859731,12,9,8,27,36,22,-10,28,3.143043732
13.869137,-59,-17,-6,-37,-65,-3,9,6,3.143043732
13.869148,6,16,16,42,23,33,6,16,3.143043732
13.883107,-1,-4,-2,17,-13,-31,2,-7,3.143043732
13.883130,-1,0,-3,-44,-71,-67,-25,17,3.143043732
13.885060,74,-29,-2,43,76,26,-11,-16,3.143043732
13.885066,13,-2,-8,-63,22,-57,-37,4,3.143043732
13.907623,47,39,20,35,-47,51,17,10,3.143043732
13.907630,58,-33,-21,1,97,122,14,16,3.143043732
13.907633,-51,26,-13,-11,-10,-38,-28,48,3.143043732
13.907636,15,20,5,15,15,40,-3,11,3.143043732
13.919211,11,-15,-11,-43,-103,12,-20,29,3.143043732
13.919244,-56,15,11,18,17,9,11,-26,3.143043732
13.929717,86,10,5,4,-9,-17,6,-31,3.143043732
13.929730,20,-48,-13,15,-40,-9,-21,90,3.143043732
13.943031,-60,-9,-2,-38,24,-41,-9,-14,3.143043732
13.943061,3,25,9,-3,-16,18,19,-2,3.143043732
13.945128,-18,-42,-1,35,-24,-73,-13,-35,3.143043732
13.945141,-8,15,-3,-12,22,94,-22,5,3.143043732
13.965487,10,52,10,26,121,-24,41,59,3.143043732
13.965582,50,-73,-13,19,69,63,12,-5,3.143043732
13.966928,-69,13,4,2,-26,50,11,-37,3.143043732
13.966966,-69,5,5,-63,-89,16,16,5,3.143043732
13.988381,26,2,-13,15,-16,-86,-24,-67,3.143043732
13.988404,-78,18,17,29,-31,18,25,55,3.143043732
13.989374,73,7,-8,-15,85,57,-2,42,3.143043732
13.989395,6,-38,-24,11,-76,-5,-22,-62,3.143043732
14.002808,-25,-42,-4,-30,-36,-9,-15,-9,3.143043732
14.002817,0,24,4,-3,34,-26,-6,-49,3.143043732
14.004546,-50,34,21,-11,-66,43,48,28,3.143043732
14.004630,70,-17,-14,18,70,-35,-47,-28,3.143043732
14.025628,14,2,-11,-20,46,-16,-44,19,3.143043732
14.025660,10,54,17,13,29,-51,8,70,3.143043732
14.027952,-6,-29,4,1,14,-74,11,-75,3.143043732
14.027996,11,-22,-7,32,-54,96,-45,60,3.143043732
14.039302,3,10,-9,-58,113,21,-13,20,3.143043732
14.039325,20,9,-4,22,-55,-4,-6,-40,3.143043732
14.048980,-1,-2,1,-34,-33,-23,19,75,3.143043732
14.048993,-27,6,9,13,92,-17,29,-21,3.143043732
14.062914,-29,11,2,21,-25,58,15,-22,3.143043732
14.062926,-25,2,-9,-31,-75,-57,-49,-22,3.143043732
14.064488,-32,-17,-12,-10,30,20,-14,-6,3.143043732
14.064535,19,29,8,2,-6,-3,-5,-8,3.143043732
14.085456,83,9,7,20,-29,-68,3,34,3.207331692
14.085478,-31,-39,-10,-17,90,82,52,11,3.207331692
14.087277,20,12,-3,2,1,99,-31,58,3.207331692
14.087283,-86,-5,8,-7,-120,-83,58,-1,3.207331692
14.099225,-55,-20,-1,-22,-85,-102,-27,-26,3.207331692
14.099252,24,20,3,24,78,69,9,-16,3.207331692
14.109216,38,38,12,3,1,23,18,-7,3.207331692
14.109228,19,-46,-15,-11,-82,-54,6,40,3.207331692
14.123949,-37,-7,0,-35,-85,19,21,-8,3.207331692
14.126542,-31,-30,-5,3,32,2,-29,-61,3.207331692
14.126561,-14,-19,-6,-15,2,-36,-37,20,3.207331692
14.126567,-23,53,8,12,94,27,10,-44,3.207331692
14.145474,-3,-42,-1,15,-48,5,12,1,3.207331692
14.145516,32,-9,-5,13,-32,-50,-21,26,3.207331692
14.146994,-8,24,0,-1,64,19,35,-24,3.207331692
14.147019,24,20,6,25,-60,-30,24,51,3.207331692
14.159228,-5,-21,-16,-30,-73,-47,-37,-60,3.207331692
14.159259,-13,53,7,15,49,-5,2,-1,3.207331692
14.171211,-17,-47,3,25,122,-128,-1,0,3.207331692
14.171220,12,-3,-6,0,-52,114,20,-64,3.207331692
14.183630,-74,-27,-9,-29,-16,-43,7,94,3.207331692
14.183675,29,-4,-3,-21,-109,-55,-17,-36,3.207331692
14.186154,7,31,-7,-19,18,-62,11,-19,3.207331692
14.186165,-41,21,10,20,123,25,-8,-15,3.207331692
14.205893,65,5,4,28,105,26,-14,-84,3.207331692
14.205919,-66,-75,-11,-32,-31,3,-12,-1,3.207331692
14.206869,43,-4,-20,-1,16,18,-10,25,3.207331692
14.206877,-13,9,1,-38,-45,6,-3,-20,3.207331692
14.228018,-21,38,8,61,28,30,22,-13,3.207331692
14.228038,-34,35,21,-32,-128,-31,-39,30,3.207331692
14.229833,-18,-29,-9,21,74,-43,29,-3,3.207331692
14.229848,-9,-24,-3,18,95,-10,-39,-17,3.207331692
14.243058,-17,-2,20,44,93,63,64,57,3.207331692
14.243082,35,12,-22,-62,8,-7,-25,-11,3.207331692
14.245504,11,17,15,-49,-128,-38,-19,18,3.207331692
14.245525,14,1,-14,26,77,93,16,14,3.207331692
14.266111,3,-36,-1,27,-15,-44,15,13,3.207331692
14.266119,10,-15,-10,7,-21,-34,0,26,3.207331692
14.267402,-44,-14,-4,-7,-57,12,-2,-18,3.207331692
14.267436,-2,5,5,-20,-56,-66,-14,-7,3.207331692
14.288305,-15,0,-1,-14,-7,38,0,-47,3.207331692
14.288339,27,15,-1,31,44,12,20,38,3.207331692
14.291425,-8,-24,-4,-9,-39,27,-21,-2,3.207331692
14.291431,-70,-35,0,-4,-31,-28,16,9,3.207331692
14.303401,-5,26,-1,1,-23,36,3,-36,3.207331692
14.303432,-7,22,6,-3,48,-35,13,-56,3.207331692
14.305331,32,16,11,22,-16,63,2,25,3.207331692
14.305342,-29,12,8,37,-26,-65,-32,-23,3.207331692
14.327562,-32,36,-5,-22,-105,69,35,63,3.045104309
14.327575,53,-43,-13,30,-26,-69,-7,-22,3.045104309
14.327580,-12,30,15,97,-62,-74,-13,-39,3.045104309
14.327583,54,-27,-12,-117,79,65,59,53,3.045104309
14.347997,-6,-23,-11,-26,-25,-64,-48,59,3.045104309
14.348017,-21,14,18,12,-38,-20,20,-21,3.045104309
14.349459,14,19,-13,1,-67,-7,7,6,3.045104309
14.349488,7,13,10,19,-26,-55,-11,17,3.045104309
14.363069,57,33,5,8,41,5,-10,-12,3.045104309
14.363093,-11,29,-1,-16,39,46,5,23,3.045104309
14.364563,-8,-19,-4,-38,-26,-24,20,5,3.045104309
14.364586,-23,18,0,22,61,40,-9,54,3.045104309
14.385693,22,2,1,-13,93,46,-9,3,3.045104309
14.387933,25,7,9,27,-95,-70,-43,21,3.045104309
14.387943,12,-34,-19,-28,124,110,-13,26,3.045104309
14.387946,15,-20,-7,-21,-128,10,-17,-45,3.045104309
14.408445,-59,19,4,-14,-32,-83,18,-20,3.045104309
14.408476,33,-12,5,-17,-70,-82,-9,7,3.045104309
14.409567,-3,-66,-14,38,88,98,12,-29,3.045104309
14.409593,31,59,6,-30,-106,33,-12,45,3.045104309
14.422218,11,-75,-17,-23,27,-69,-45,-7,3.045104309
14.422251,-21,-14,-1,-10,-12,-12,0,-77,3.045104309
14.429158,-22,24,11,-1,18,-22,-2,33,3.045104309
14.429174,47,16,4,25,15,-45,6,7,3.045104309
14.445441,-16,72,4,9,18,45,18,14,3.045104309
14.445461,-17,-76,-10,-8,-14,27,-63,17,3.045104309
14.447997,-60,-28,0,12,29,-36,6,-15,3.045104309
14.448004,-12,7,-1,-1,-84,-44,-12,-34,3.045104309
14.467867,33,41,19,15,33,-51,0,31,3.045104309
14.467875,-59,-42,-5,58,84,-43,34,-73,3.045104309
14.469437,104,-2,-19,-99,-128,97,-59,24,3.045104309
14.469470,-14,2,-2,28,111,-118,10,-24,3.045104309
14.482305,-21,-43,-9,-8,-100,-22,-14,-46,3.045104309
14.482312,-17,4,0,-12,-24,-25,-11,67,3.045104309
14.489327,28,23,16,30,-24,-86,40,-39,3.045104309
14.489344,-16,-26,1,9,25,-10,16,-12,3.045104309
14.505068,0,41,3,0,-23,18,-5,10,3.045104309
14.505098,113,2,-8,8,61,27,0,39,3.045104309
14.513617,-22,0,5,-13,-8,-13,-2,1,3.045104309
14.513625,11,-45,3,-14,-83,29,4,25,3.045104309
14.528246,11,2,-6,46,80,-16,2,-45,3.045104309
14.528263,-56,64,6,0,44,120,28,-53,3.045104309
14.529449,-33,-61,-11,-47,-61,-74,-17,22,3.045104309
14.529497,6,45,-9,12,77,20,-33,-56,3.045104309
14.542805,-56,-72,-10,-10,-102,10,-23,-5,3.045104309
14.545425,77,4,11,30,101,-41,41,44,3.045104309
14.549392,-33,23,11,12,-28,-1,16,-72,3.045104309
14.549413,-10,32,5,3,30,73,7,17,3.045104309
14.565787,-37,-13,-4,-13,-97,-36,5,26,3.045104309
14.565814,-13,-35,-12,19,44,1,-9,-52,3.045104309
14.566895,40,66,6,24,46,-10,-2,0,3.045104309
14.566902,-73,-35,-6,-25,-90,-10,12,-65,3.045104309
14.588300,104,-38,-11,27,98,-39,15,39,3.159389503
14.588331,-42,40,-1,-33,-33,92,25,33,3.159389503
14.590115,-20,-8,1,25,85,-55,-63,-11,3.159389503
14.590121,-13,-33,-3,-10,-41,-25,38,59,3.159389503
14.602931,17,40,6,-21,-43,21,13,-24,3.159389503
14.602962,7,-33,-10,-25,-13,11,-5,14,3.159389503
14.609255,10,7,-3,-11,-12,-10,44,12,3.159389503
14.609281,7,-6,-1,41,15,-74,-39,37,3.159389503
14.625786,11,6,6,-3,96,37,8,2,3.159389503
14.625860,-32,-45,-1,-5,-24,6,20,-25,3.159389503
14.627393,-2,1,-3,-7,-49,-21,-25,24,3.159389503
14.627419,82,11,7,-2,42,-54,4,21,3.159389503
14.647978,-28,10,-1,-5,-59,43,-34,-53,3.159389503
14.647999,-63,-10,-1,16,5,-49,-18,24,3.159389503
14.649716,-38,9,6,-14,-15,77,23,11,3.159389503
14.649729,-13,-31,-5,16,13,-54,18,-51,3.159389503
14.662444,-13,-7,-12,-8,-48,33,-60,-32,3.159389503
14.662463,19,19,10,-6,46,-35,11,-61,3.159389503
14.669026,-46,29,-2,18,-91,68,34,6,3.159389503
14.669049,22,-3,-9,-2,109,11,-73,-20,3.159389503
14.685439,11,-6,-6,-21,-71,-96,23,23,3.159389503
14.685455,9,6,-2,-29,-46,-31,4,11,3.159389503
14.686872,64,29,9,24,-100,59,30,3,3.159389503
14.686879,-64,-26,-8,-12,55,-87,-5,-14,3.159389503
14.708267,76,-22,-3,4,-3,35,5,19,3.159389503
14.710640,7,-5,-2,7,-31,33,-20,-13,3.159389503
14.710655,1,-15,-6,-4,49,-55,2,41,3.159389503
14.710658,-23,48,10,-3,-66,75,20,-43,3.159389503
14.721706,-22,-22,14,-3,-52,-14,8,1,3.159389503
14.721732,-7,38,-14,-7,40,2,14,13,3.159389503
14.731027,36,-3,3,32,124,-18,-30,10,3.159389503
14.731046,7,-7,-7,-75,-110,23,-7,20,3.159389503
14.745527,-83,0,0,31,127,103,-30,-7,3.159389503
14.745550,111,46,-16,-9,-10,-90,-12,-25,3.159389503
14.747246,-35,-67,0,-17,-82,-5,7,16,3.159389503
14.747272,2,-14,13,8,-25,-6,7,37,3.159389503
14.768239,-22,-5,-17,-50,44,-3,-38,-39,3.159389503
14.768272,20,-22,-3,13,-102,39,-6,21,3.159389503
14.769664,62,8,-5,-12,93,-19,-11,-45,3.159389503
14.769689,-56,16,16,31,-10,-28,25,109,3.159389503
14.781533,125,11,-6,0,-22,10,21,33,3.159389503
14.781571,-81,-3,-1,-6,9,8,-9,-5,3.159389503
14.792022,-45,-23,-5,11,-3,-8,9,-17,3.159389503
14.792033,41,8,-4,-43,-39,18,-15,-42,3.159389503
14.805484,-107,43,17,19,-16,-54,14,25,3.159389503
14.805508,12,-10,-10,21,68,40,10,36,3.159389503
14.806972,19,-32,-7,-16,-72,-61,-12,-15,3.159389503
14.806982,0,21,-1,20,41,10,52,-47,3.159389503
14.828129,1,-9,-6,-7,-30,15,10,-15,3.159389503
14.828146,2,18,3,-27,-40,88,-17,-7,3.159389503
14.829587,-26,20,2,-15,67,-48,-5,-37,3.159389503
14.829615,7,-7,0,20,76,105,-15,-56,3.159389503
14.843815,52,3,8,3,-53,15,62,41,3.108810903
14.843828,-66,-9,8,4,-18,0,3,8,3.108810903
14.852057,75,9,-17,-11,32,-12,-13,-44,3.108810903
14.852064,-11,-22,-5,5,-64,-16,-1,25,3.108810903
14.865566,41,54,14,41,52,-33,-36,13,3.108810903
14.865583,-90,-75,-7,-8,-128,5,-16,-87,3.108810903
14.866987,26,19,10,-4,93,10,8,42,3.108810903
14.867002,11,15,-2,13,-73,22,-12,18,3.108810903
14.888650,23,-44,-7,-48,-29,-54,-3,1,3.108810903
14.888682,-32,115,22,37,48,14,32,18,3.108810903
14.891509,7,-11,0,74,63,-17,-40,-16,3.108810903
14.891521,-73,2,-23,-46,90,2,41,8,3.108810903
14.901643,10,0,0,6,70,-6,-23,-65,3.108810903
14.901673,49,3,-2,-13,-4,-83,-19,57,3.108810903
14.912233,3,10,5,6,40,14,17,19,3.108810903
14.912246,20,12,-2,-29,-28,-48,-47,45,3.108810903
14.926389,-40,1,2,22,-8,5,11,16,3.108810903
14.926431,28,-22,3,-10,-15,-24,12,-29,3.108810903
14.927116,-59,24,3,-30,-71,47,-3,26,3.108810903
14.927129,81,-24,2,45,-17,-11,-9,3,3.108810903
14.948273,-70,-54,-22,-22,-46,-12,4,-65,3.108810903
14.948297,38,-12,3,-9,2,-34,-13,15,3.108810903
14.950831,-50,-14,2,37,-110,34,13,-18,3.108810903
14.950848,22,8,1,-18,53,38,12,-12,3.108810903
14.961697,-13,-6,6,10,-63,-63,-5,2,3.108810903
14.961797,-19,-37,-13,-32,65,16,-7,0,3.108810903
14.972661,-109,46,6,-12,1,29,6,7,3.108810903
14.972669,104,-23,-7,-25,-102,-75,31,59,3.108810903
14.985641,46,-22,-19,48,78,-18,-24,-52,3.108810903
14.985655,49,-4,-1,-14,-115,74,0,32,3.108810903
14.987013,95,16,4,-33,-38,-17,34,99,3.108810903
14.987034,-104,-17,7,35,-31,-8,-29,7,3.108810903
15.008556,28,10,0,-56,-62,-30,7,41,3.108810903
15.008587,17,-6,3,28,34,-6,1,2,3.108810903
15.011144,8,-19,0,9,22,8,-17,-36,3.108810903
15.011157,14,9,0,-1,13,9,2,-42,3.108810903
15.021813,-38,-30,1,7,6,-10,4,-1,3.108810903
15.021837,10,24,2,-6,-19,17,18,78,3.108810903
15.030479,-32,-23,-11,-9,-84,-55,-9,-45,3.108810903
15.030529,-8,4,-6,54,24,-37,21,-4,3.108810903
15.045566,-24,8,-5,-101,101,83,-17,7,3.108810903
15.045579,18,-4,-1,51,-70,92,29,14,3.108810903
15.046997,-32,-18,4,-41,75,15,-12,-21,3.108810903
15.047005,-12,-29,1,-1,-114,51,15,-4,3.108810903
15.067974,22,14,0,51,49,-10,20,49,3.108810903
15.067993,31,8,-9,-17,-64,-60,-5,-54,3.108810903
15.069468,53,-30,0,2,32,68,-26,-6,3.108810903
15.069479,-43,22,6,11,79,-34,-29,-59,3.108810903
15.082793,-22,10,5,9,-59,9,-9,20,3.108810903
15.082824,-7,-5,0,-12,1,-40,-21,0,3.108810903
15.092722,33,26,-1,28,47,-14,0,-11,3.201053867
15.092738,7,15,4,-16,6,11,6,31,3.201053867
15.105900,-4,-3,8,57,-121,-48,30,-62,3.201053867
15.105942,-3,14,9,-15,-22,36,-17,-11,3.201053867
15.108359,-29,16,-11,-24,50,65,-8,-18,3.201053867
15.108370,7,-27,-10,-17,-95,-24,-24,-5,3.201053867
15.128196,-73,44,3,5,88,-43,20,8,3.201053867
15.128226,22,-90,-28,-12,-19,52,-41,-43,3.201053867
15.129627,-14,-3,-9,-44,25,-81,7,-46,3.201053867
15.129651,7,-1,1,6,-9,124,-31,10,3.201053867
15.141927,-9,3,0,15,-33,7,-9,-11,3.201053867
15.141979,-36,17,14,27,50,-64,9,68,3.201053867
15.152658,44,12,-5,-1,-76,1,17,28,3.201053867
15.152664,-6,-3,-6,-5,-11,-45,-30,-31,3.201053867
15.165637,-1,-29,3,-20,-72,1,7,52,3.201053867
15.165669,-19,29,2,4,38,-29,10,-4,3.201053867
15.167788,-35,-8,-2,7,-54,-21,0,33,3.201053867
15.167794,3,32,7,2,8,-34,22,6,3.201053867
15.188311,27,-32,-10,-6,86,29,-25,-26,3.201053867
15.188359,-46,21,11,-9,-3,71,11,28,3.201053867
15.189488,-10,-50,-10,20,-9,-58,-13,-61,3.201053867
15.189509,-23,8,-17,-72,91,-74,-66,-37,3.201053867
15.210630,33,34,1,-5,95,75,28,3,3.201053867
15.210654,-14,-2,7,1,-18,-72,-1,4,3.201053867
15.213154,9,47,4,12,0,-5,15,17,3.201053867
15.213161,-1,-3,15,33,18,58,3,-2,3.201053867
15.225781,19,-25,-11,-14,-71,3,-34,-50,3.201053867
15.225799,-19,-51,3,21,-12,-96,4,-29,3.201053867
15.227247,24,38,13,-12,40,40,-5,31,3.201053867
15.227260,-43,-74,-15,49,116,98,10,-16,3.201053867
15.248709,14,35,4,-18,-62,-45,5,5,3.201053867
15.248716,63,-31,6,24,-44,-5,5,5,3.201053867
15.249439,-10,16,-5,-3,-2,5,0,-36,3.201053867
15.249446,11,-19,-2,-56,-1,-58,32,46,3.201053867
15.270892,-63,19,1,51,51,-28,-19,19,3.201053867
15.270913,-18,25,-4,-35,-88,96,0,-44,3.201053867
15.272911,16,9,2,-9,28,-3,-13,30,3.201053867
15.272917,-13,-2,-9,-10,-49,-3,11,-8,3.201053867
15.285795,-16,12,5,3,-79,-25,6,12,3.201053867
15.285833,106,7,-12,5,127,17,-7,-19,3.201053867
15.287477,-35,-57,-4,-11,-81,-14,2,19,3.201053867
15.287489,-7,52,17,13,-25,-52,27,3,3.201053867
15.308377,42,-15,-10,-15,-35,104,-27,2,3.201053867
15.308426,-37,27,-15,-9,-38,-111,0,-1,3.201053867
15.310446,2,29,12,52,-50,-14,48,-55,3.201053867
15.310459,-2,-50,-4,-36,-59,-2,-18,6,3.201053867
15.330579,-74,42,29,34,88,-115,33,35,3.201053867
15.330611,72,-11,-5,-10,75,114,6,62,3.201053867
15.331988,32,-22,-2,49,-70,-3,-5,79,3.201053867
15.332002,13,30,-9,-34,-55,77,3,43,3.201053867
15.344929,35,-22,-1,-29,-126,-9,4,7,3.201053867
15.344956,-39,37,-6,-15,-65,-64,-2,-6,3.201053867
15.352226,-21,-25,2,-11,-29,-51,-6,14,3.152133731
15.352264,18,2,5,26,31,4,0,-7,3.152133731
15.375713,1,-10,-11,1,3,24,6,-25,3.152133731
15.375731,8,21,5,6,35,-14,-18,-3,3.152133731
15.377251,-59,5,1,-13,-6,30,10,3,3.152133731
15.377276,-29,20,-3,9,-4,-43,-27,-21,3.152133731
15.390634,82,-38,-18,3,7,33,-6,-69,3.152133731
15.390643,-49,76,8,-13,-79,-21,27,-10,3.152133731
15.392074,-88,-31,11,44,-8,-40,-29,46,3.152133731
15.392098,45,-51,3,-4,-92,51,44,-4,3.152133731
15.404765,56,-20,-22,-75,14,91,-54,-11,3.152133731
15.404773,-27,22,10,34,-18,-24,14,-3,3.152133731
15.411677,4,-11,-9,-41,72,77,21,23,3.152133731
15.411697,14,32,-1,29,-45,-128,-23,-42,3.152133731
15.427946,-51,-11,1,1,-48,117,9,72,3.152133731
15.427963,-24,-52,0,-17,57,-28,-14,-1,3.152133731
15.430193,-14,54,-11,-36,-31,42,-22,-18,3.152133731
15.430200,9,26,3,20,20,-30,8,-3,3.152133731
15.451746,10,-2,-4,-4,-10,-57,8,8,3.152133731
15.451753,-2,-11,2,-8,-6,8,-2,-13,3.152133731
15.451928,65,7,-3,17,32,-50,-4,32,3.152133731
15.451942,-58,-21,-14,-47,-100,26,20,-21,3.152133731
15.465437,-6,-2,6,40,85,-107,-62,40,3.152133731
15.465568,-51,-2,2,66,62,3,52,-1,3.152133731
15.472108,44,15,-8,-105,8,82,-41,-40,3.152133731
15.472130,-70,-19,7,16,108,36,73,55,3.152133731
15.488059,76,-35,-6,7,20,13,-7,-45,3.152133731
15.488081,-20,-26,-8,-17,11,-32,-33,13,3.152133731
15.490100,14,11,1,-12,-39,30,7,-9,3.152133731
15.490106,5,14,9,43,56,-25,3,10,3.152133731
15.510643,-74,22,5,6,-56,-3,20,-13,3.152133731
15.512631,-27,-28,-6,-5,-6,12,-21,-21,3.152133731
15.512638,92,-18,-5,9,-78,-41,2,16,3.152133731
15.512642,29,11,-1,-13,36,-23,-43,-7,3.152133731
15.525290,1,65,3,-16,-49,71,34,69,3.152133731
15.527695,-14,-66,-3,26,24,33,-13,17,3.152133731
15.531820,-52,17,7,-21,-66,-98,-19,31,3.152133731
15.531872,-31,-29,1,-24,-93,-28,-19,8,3.152133731
15.548056,71,13,0,52,121,102,32,-33,3.152133731
15.548094,25,3,-12,-42,25,-115,0,27,3.152133731
15.549561,-6,8,0,12,34,-3,-13,1,3.152133731
15.549581,-67,4,-2,16,-45,31,3,-33,3.152133731
15.570634,8,32,6,-22,-48,-72,0,0,3.152133731
15.570655,-1,20,-9,-11,-58,38,-23,-23,3.152133731
15.572059,3,-61,0,40,41,-4,14,-35,3.152133731
15.572073,35,25,-4,-18,-63,-4,-14,27,3.152133731
15.584983,-25,-15,1,14,68,-53,-9,-50,3.152133731
15.585006,-26,32,0,-39,-108,-9,13,-32,3.152133731
15.592187,19,-17,-4,-42,-47,31,29,55,3.152133731
15.592228,-5,46,12,76,127,20,-54,16,3.152133731
15.610088,20,-1,0,16,-11,-5,19,-6,3.150542868
15.610104,12,-12,5,25,-4,-51,-12,-6,3.150542868
15.610107,-49,-30,-14,-56,-79,33,18,-82,3.150542868
15.610110,23,20,-10,-20,-28,11,-25,-5,3.150542868
15.630663,-45,31,11,16,-22,-22,22,54,3.150542868
15.630683,-3,-6,6,19,0,-24,17,-71,3.150542868
15.632776,19,10,-6,7,-26,-94,-19,11,3.150542868
15.632792,-74,5,0,2,13,52,35,-1,3.150542868
15.646045,89,-32,-18,-24,-34,-52,-36,-49,3.150542868
15.646065,1,-23,2,-15,-20,34,4,-7,3.150542868
15.654913,-15,-12,2,47,23,15,5,-3,3.150542868
15.654919,28,8,6,-14,-25,-90,16,-24,3.150542868
15.668148,-56,-28,-5,6,46,62,8,5,3.150542868
15.668180,16,-5,-6,-12,34,127,-43,20,3.150542868
15.671254,-31,15,7,13,-50,-48,-15,-4,3.150542868
15.671266,86,-33,-7,-3,50,-12,2,25,3.150542868
15.690630,-2,5,4,14,-97,-105,-38,50,3.150542868
15.690640,-19,11,-6,-58,-71,80,26,-35,3.150542868
15.692451,38,-37,10,45,25,66,-8,-20,3.150542868
15.692464,-3,-19,-18,-40,-45,-13,10,-93,3.150542868
15.704256,-26,-44,-8,-17,-50,-36,-10,66,3.150542868
15.704265,-16,10,8,40,81,-32,17,21,3.150542868
15.713971,57,30,-2,-31,-22,-2,9,3,3.150542868
15.713984,24,-23,1,28,66,3,-19,47,3.150542868
15.728123,-4,12,6,-31,3,-14,4,17,3.150542868
15.728152,-54,11,-5,-35,-95,-59,-12,30,3.150542868
15.729956,17,-50,-6,3,54,-7,14,-52,3.150542868
15.729968,-8,23,5,36,-96,-67,-35,4,3.150542868
15.750472,29,17,-2,15,3,-69,3,-10,3.150542868
15.750480,-54,-5,2,-17,59,79,63,42,3.150542868
15.751992,57,9,-6,-28,-90,-25,7,-4,3.150542868
15.752026,29,14,-1,-2,-10,109,15,7,3.150542868
15.764834,-31,-9,8,21,-30,-60,-2,-9,3.150542868
15.764843,16,43,4,10,-10,18,-4,-44,3.150542868
15.774504,-13,-11,0,30,51,5,6,21,3.150542868
15.774511,61,9,2,4,-68,15,-46,24,3.150542868
15.788188,-37,-37,-3,-17,71,3,-3,-17,3.150542868
15.788212,2,22,-7,9,22,-31,-19,34,3.150542868
15.789475,-40,11,-5,-7,-10,10,18,-24,3.150542868
15.789518,38,-14,1,2,44,7,3,7,3.150542868
15.811097,-26,14,8,-14,-64,60,0,-18,3.150542868
15.811111,63,8,17,39,76,-27,14,115,3.150542868
15.812207,24,29,-16,12,88,-33,33,16,3.150542868
15.812224,-9,-38,-11,-33,99,32,7,-98,3.150542868
15.824470,0,17,1,-19,-58,119,18,-1,3.150542868
15.824493,-6,-14,13,2,-84,10,-38,-42,3.150542868
15.835419,-62,55,4,47,-68,-44,-7,37,3.150542868
15.835437,17,-12,-6,-41,-85,-67,-22,14,3.150542868
15.848038,13,-17,-11,19,30,-7,-14,-6,3.150542868
15.848064,-50,-10,-2,-10,2,-17,-22,-44,3.150542868
15.849642,60,-7,1,10,47,20,-3,11,3.150542868
15.849654,21,10,1,-6,13,17,27,22,3.150542868
15.870726,-62,-23,-3,-7,-40,-42,-26,-51,3.176172422
15.870756,-40,1,-2,4,-80,34,21,-7,3.176172422
15.873070,-92,-18,-7,-19,91,-45,-30,-23,3.176172422
15.873080,62,-16,-2,15,14,-24,63,65,3.176172422
15.884422,-18,18,6,-17,-83,-35,-17,0,3.176172422
15.884453,31,-5,-2,35,92,11,0,20,3.176172422
15.900831,-65,27,13,24,82,-11,28,-74,3.176172422
15.900839,-23,-10,-2,-3,-12,89,31,-34,3.176172422
15.908260,2,11,-1,-57,-73,-37,28,1,3.176172422
15.908285,10,9,-12,26,27,-111,-43,-15,3.176172422
15.910758,-2,-13,3,2,-106,24,25,-36,3.176172422
15.910773,5,30,4,-5,-1,-26,-5,41,3.176172422
15.930652,12,43,16,28,-31,19,23,4,3.176172422
15.930675,0,-57,-18,-7,-9,-26,-28,-13,3.176172422
15.932238,84,-46,-9,-14,15,62,-23,-22,3.176172422
15.932251,-29,17,11,23,-30,-19,1,22,3.176172422
15.944231,32,22,-13,-34,36,19,4,-26,3.176172422
15.944250,56,-1,-9,-27,-25,-28,-35,-10,3.176172422
15.954286,-36,-23,4,4,85,-23,-32,-35,3.176172422
15.954304,-9,-14,-1,5,-81,-19,0,3,3.176172422
15.970333,-84,22,-2,49,127,-41,-17,-17,3.176172422
15.970383,60,-6,-1,7,-96,109,87,-2,3.176172422
15.970386,-1,-2,-1,-93,-128,-13,12,32,3.176172422
15.970388,-3,-2,1,73,25,-51,18,13,3.176172422
15.990829,-3,-15,-6,20,51,79,-33,11,3.176172422
15.990853,-15,0,-4,8,-65,-41,-11,-49,3.176172422
15.992665,1,3,0,1,-71,19,-36,110,3.176172422
15.992688,-22,9,9,-18,-6,-17,22,5,3.176172422
16.004408,-53,-27,-3,-7,-23,-4,3,23,3.176172422
16.004431,32,-13,-7,-32,10,-14,-24,-36,3.176172422
16.015176,46,-5,-16,5,-34,-4,-11,-68,3.176172422
16.015188,25,25,-1,-25,-80,12,-36,42,3.176172422
16.028096,4,-9,-10,1,69,-6,41,4,3.176172422
16.028115,44,21,22,-6,-59,-68,-32,-6,3.176172422
16.029544,-6,35,9,88,122,3,34,2,3.176172422
16.029601,-4,-40,-9,-34,97,38,50,-24,3.176172422
16.050541,28,8,11,-23,-128,-35,27,9,3.176172422
16.050551,-10,11,0,16,17,-19,24,29,3.176172422
16.051953,-9,-3,-4,21,-38,43,-44,11,3.176172422
16.051962,-8,13,-5,-3,6,16,3,-67,3.176172422
16.065513,-8,9,5,7,-8,7,6,30,3.176172422
16.065524,39,-28,-12,-29,-47,-37,-33,-12,3.176172422
16.075272,-7,-15,-2,-13,-88,-25,-4,15,3.176172422
16.075282,-51,-17,-11,-10,5,8,-35,-68,3.176172422
16.088271,-29,-4,1,-28,-8,8,16,47,3.176172422
16.088296,-13,-11,0,36,-1,21,12,-17,3.176172422
16.090041,40,-1,5,-33,34,-21,-17,33,3.176172422
16.090048,-13,9,7,73,92,-90,-31,10,3.176172422
16.111674,29,14,0,27,101,76,25,-70,3.176172422
16.111685,-6,43,9,-30,-41,-66,29,75,3.176172422
16.112161,-92,-40,-3,-14,-40,52,-6,-36,3.176172422
16.112168,73,-43,-14,-35,51,-40,-14,13,3.176172422
16.133043,-32,-22,-5,26,6,38,-33,-33,3.154621425
16.133066,16,18,2,-15,-32,-8,2,6,3.154621425
16.135137,-33,15,-1,-14,7,-43,3,1,3.154621425
16.135150,-69,28,19,3,-69,-11,10,19,3.154621425
16.148344,29,-28,-22,-7,74,29,-20,-11,3.154621425
16.148364,35,-50,-10,-19,-55,20,-3,0,3.154621425
16.149517,0,14,-4,0,-122,-25,-24,16,3.154621425
16.149534,6,12,0,38,59,11,-10,90,3.154621425
16.170745,10,-23,13,-30,-95,15,21,50,3.154621425
16.170777,-92,10,3,-5,26,36,-9,-15,3.154621425
16.177092,98,13,-4,36,58,-23,-8,-19,3.154621425
16.177129,34,6,8,-2,-71,81,-25,-15,3.154621425
16.193329,18,-9,-4,-1,-114,-74,20,55,3.154621425
16.193448,-35,-29,-12,-35,-2,74,-21,-11,3.154621425
16.194730,-13,-5,2,-16,67,21,10,-26,3.154621425
16.194749,41,18,-18,-35,-61,-39,-27,-64,3.154621425
16.208519,43,12,7,13,46,22,-12,-12,3.154621425
16.208543,73,6,3,28,-17,-15,5,-35,3.154621425
16.209677,10,9,6,2,4,-5,21,49,3.154621425
16.209701,-13,-2,-9,-34,-51,21,-4,-22,3.154621425
16.230654,17,9,0,0,-2,-32,12,36,3.154621425
16.230685,-49,7,0,13,87,-49,8,29,3.154621425
16.232987,-3,7,4,9,-31,-13,-13,-6,3.154621425
16.232992,-5,-15,-10,15,-1,24,43,75,3.154621425
16.253172,24,13,7,-35,-128,-38,-18,-69,3.154621425
16.253207,-68,1,7,72,127,38,8,29,3.154621425
16.254590,-23,8,0,-20,0,30,-7,32,3.154621425
16.254610,12,-7,-1,-23,-90,60,27,32,3.154621425
16.268128,61,-19,-6,11,-29,-32,-20,-38,3.154621425
16.268138,36,-7,0,3,-40,-47,-22,-4,3.154621425
16.269474,-17,2,0,-6,11,88,36,-69,3.154621425
16.269481,-32,29,8,14,13,-87,-22,22,3.154621425
16.290669,-63,10,-1,-18,-11,54,-9,0,3.154621425
16.290693,-13,-2,-7,-12,-33,27,21,-13,3.154621425
16.293048,36,-3,2,-24,25,-30,1,21,3.154621425
16.293062,-4,9,8,18,80,-13,-18,-25,3.154621425
16.313743,-10,-35,-9,5,-50,-51,14,12,3.154621425
16.313750,-2,2,6,25,102,-39,8,3,3.154621425
16.314505,-33,2,0,-8,-15,-16,40,30,3.154621425
16.314512,-56,-18,-3,2,-60,-4,-20,-37,3.154621425
16.327509,-65,-9,-1,25,124,60,16,-11,3.154621425
16.327534,9,39,1,-42,-75,64,21,-45,3.154621425
16.334347,-70,-67,-1,35,-37,-25,-30,33,3.154621425
16.334374,88,-19,-16,-64,-20,6,4,-84,3.154621425
16.350658,67,15,2,2,61,-103,17,-12,3.154621425
16.350676,3,-13,-3,-8,6,-5,-28,-12,3.154621425
16.351991,-57,17,-8,7,-31,24,4,-7,3.154621425
16.352016,-32,35,9,-8,-33,2,13,49,3.154621425
16.373494,-55,-60,-11,23,3,16,-33,-54,3.186199812
16.373518,42,22,1,-20,-6,5,9,47,3.186199812
16.377033,22,16,10,53,-14,-11,-2,-28,3.186199812
16.377046,-15,-11,-4,-40,-54,-75,-46,28,3.186199812
16.387927,29,52,-4,36,-28,-5,-21,-43,3.186199812
16.387957,-19,-41,3,26,120,107,-26,28,3.186199812
16.394517,-36,14,-10,-63,18,90,56,-29,3.186199812
16.394581,69,-31,-21,-37,-100,-81,-77,-69,3.186199812
16.410820,66,36,18,5,-50,-8,11,91,3.186199812
16.410845,-48,-21,-13,-4,14,-13,35,-71,3.186199812
16.412251,-50,18,4,-3,-99,-25,-54,11,3.186199812
16.412268,-4,8,4,12,7,32,6,-10,3.186199812
16.433152,56,-12,-6,-36,33,-14,-30,-16,3.186199812
16.433174,-23,-13,2,17,-53,-38,5,77,3.186199812
16.434612,11,9,0,-2,15,-34,-4,70,3.186199812
16.434688,-62,-18,6,28,67,36,34,-61,3.186199812
16.455915,-28,15,2,-3,-55,-11,-2,-7,3.186199812
16.455923,16,18,6,44,64,65,26,-5,3.186199812
16.457023,-45,-68,-13,-100,-57,-66,-5,-16,3.186199812
16.457044,58,20,1,65,53,77,8,20,3.186199812
16.470710,35,7,9,74,6,-64,19,62,3.186199812
16.470766,-49,10,-8,-57,80,5,21,-11,3.186199812
16.472040,33,35,-21,-26,-115,56,-6,-21,3.186199812
16.472061,-23,-38,2,-7,127,0,14,-1,3.186199812
16.493415,0,-24,8,-8,-114,-4,10,3,3.186199812
16.493448,-24,-26,2,10,-128,-38,-12,30,3.186199812
16.495719,-5,24,4,51,104,-21,-8,5,3.186199812
16.495731,-68,-8,-8,-36,-50,20,41,2,3.186199812
16.507587,-29,-38,-14,7,34,2,-14,-21,3.186199812
16.507610,85,-6,-3,7,-57,-7,-25,-68,3.186199812
16.514516,47,33,13,-4,28,7,16,22,3.186199812
16.514536,-69,-16,4,16,46,-18,-22,-20,3.186199812
16.531422,-4,45,0,-22,-8,-26,9,-12,3.186199812
16.531430,54,9,-3,-37,-121,-35,-22,-6,3.186199812
16.532066,76,2,2,42,63,21,-6,14,3.186199812
16.532106,11,31,10,-7,-114,-128,-18,45,3.186199812
16.553371,-19,5,0,-10,127,36,34,0,3.186199812
16.554714,-13,4,-8,-8,20,95,20,-21,3.186199812
16.554728,-77,-28,-3,3,-29,-54,-14,-5,3.186199812
16.554733,36,8,-3,-6,62,124,42,-12,3.186199812
16.567572,-12,-2,1,-30,-15,-24,-16,-5,3.186199812
16.567598,12,-5,1,3,-23,-54,-11,21,3.186199812
16.574182,2,-30,9,3,11,-28,-6,-40,3.186199812
16.574204,-20,27,4,15,8,-15,21,-15,3.186199812
16.591099,-19,34,-7,-35,-17,22,-34,-19,3.186199812
16.591137,-9,-64,-24,-3,-14,-63,-21,5,3.186199812
16.593733,52,7,3,23,31,-17,-8,-17,3.186199812
16.593747,-19,3,-3,-6,-128,-64,-35,49,3.186199812
16.613068,-28,15,7,-12,-42,116,4,-23,3.186199812
16.613091,3,28,13,38,-14,45,34,-5,3.186199812
16.614758,-66,62,-2,12,104,-46,8,1,3.186199812
16.614777,113,-52,-9,-6,-52,-1,-50,-20,3.186199812
16.626736,-33,-20,-7,-17,26,11,-23,25,3.152845789
16.626754,-5,15,10,-14,-26,7,44,7,3.152845789
16.636896,-11,-17,-6,-14,-46,100,-6,13,3.152845789
16.636903,-29,-17,-9,-4,63,3,-13,-29,3.152845789
16.651072,-4,-3,-6,-37,-104,-46,14,-71,3.152845789
16.651102,-20,-23,2,46,108,65,0,45,3.152845789
16.653592,36,27,8,9,-4,-19,5,1,3.152845789
16.653598,5,17,5,-2,4,24,3,81,3.152845789
16.673060,16,-36,-4,26,-2,-8,17,33,3.152845789
16.673077,-81,83,16,-18,-72,-49,-12,-51,3.152845789
16.674535,119,-35,-39,-21,-111,-56,-35,-67,3.152845789
16.674544,-125,-34,-7,33,-57,25,-20,-59,3.152845789
16.687922,40,-4,-20,-25,127,-20,8,-16,3.152845789
16.687931,23,43,22,60,72,-85,-7,32,3.152845789
16.697305,-20,-23,-3,-32,65,99,-23,-22,3.152845789
16.697319,1,57,12,-53,-98,-96,4,62,3.152845789
16.710680,38,-14,1,25,61,-39,-22,-10,3.152845789
16.710704,42,-35,-13,-27,-10,-24,-10,69,3.152845789
16.712061,-35,7,9,3,-19,-46,5,-9,3.152845789
16.712074,21,0,5,38,106,66,13,2,3.152845789
16.734481,-23,11,1,-13,-34,35,10,19,3.152845789
16.734489,17,-6,-8,-20,-15,-19,-55,-40,3.152845789
16.734678,-43,-47,10,32,-55,1,28,100,3.152845789
16.734685,-43,52,-2,-21,-8,20,10,15,3.152845789
16.746857,2,-30,-13,6,-43,-45,-17,-41,3.152845789
16.746882,-29,-4,-3,-12,-46,16,36,-8,3.152845789
16.757816,0,-9,-10,-52,68,23,-11,-59,3.152845789
16.757822,63,12,0,42,127,56,7,-5,3.152845789
16.770979,-109,-34,3,-17,-105,-67,2,32,3.152845789
16.771002,43,-27,-14,0,37,126,37,7,3.152845789
16.772295,-4,4,2,-16,-6,-22,29,67,3.152845789
16.772304,67,25,9,10,84,10,-3,-8,3.152845789
16.793710,-53,-4,-3,1,-82,84,25,-3,3.152845789
16.793751,-76,47,20,10,-1,-2,2,-18,3.152845789
16.796167,93,-60,-17,-10,-100,-79,-12,-68,3.152845789
16.796181,32,8,-8,16,-27,-22,-3,-28,3.152845789
16.806901,26,9,-1,-3,73,8,-25,71,3.152845789
16.806925,-74,11,2,-31,20,-8,3,44,3.152845789
16.817871,24,18,3,34,18,25,0,-28,3.152845789
16.817878,-42,-43,-9,-62,-128,-81,-4,-20,3.152845789
16.830645,28,24,6,27,108,-48,-57,-49,3.152845789
16.830663,27,2,2,39,-28,68,50,7,3.152845789
16.832364,-26,18,10,3,13,-79,3,40,3.152845789
16.832380,6,-31,-8,-7,-15,38,47,-10,3.152845789
16.853634,38,30,3,-20,50,14,-47,6,3.152845789
16.853671,2,-61,-2,-6,121,-126,-79,14,3.152845789
16.855889,25,26,-5,18,64,113,52,6,3.152845789
16.855895,-39,2,2,-3,-43,-45,-39,-26,3.152845789
16.866742,-26,30,1,11,-28,9,43,-60,3.152845789
16.866759,-32,-19,-5,-12,-40,-33,-5,-22,3.152845789
16.877372,70,2,1,0,-31,-8,-10,9,3.152845789
16.877388,-9,-18,-1,14,67,-1,-22,19,3.152845789
16.890582,-11,-5,0,-15,-14,6,18,44,3.155572336
16.890616,-53,-17,-11,10,-54,-52,-55,-29,3.155572336
16.892176,-24,-7,-2,-21,84,36,-15,51,3.155572336
16.892190,32,-8,-13,-15,94,66,23,56,3.155572336
16.913219,-20,-6,-3,23,6,59,3,3,3.155572336
16.913243,-24,29,7,12,-84,-39,42,-3,3.155572336
16.916328,-8,5,-2,-8,22,-32,-73,-28,3.155572336
16.916334,-29,19,9,-25,-40,22,-2,-18,3.155572336
16.927075,-12,-7,0,11,-16,20,16,-2,3.155572336
16.927103,127,-43,-20,-29,-54,-16,-9,-58,3.155572336
16.936211,11,24,6,25,-8,-17,-19,0,3.155572336
16.936217,-28,-31,1,13,-32,16,54,-14,3.155572336
16.951904,9,-3,3,-11,-22,-39,-21,43,3.155572336
16.951913,-32,10,2,-13,-70,28,-5,79,3.155572336
16.952061,-16,3,-1,21,3,-14,12,1,3.155572336
16.952068,21,3,1,-4,-10,-59,-8,7,3.155572336
16.973513,-64,-30,2,-3,24,4,-20,-21,3.155572336
16.973737,29,-1,-14,-28,89,80,2,-19,3.155572336
16.976728,-31,21,7,-4,-27,-21,-20,-6,3.155572336
16.976743,0,37,10,52,19,-64,-9,-18,3.155572336
16.987085,4,-34,-10,-9,36,57,6,-30,3.155572336
16.987132,24,32,13,-23,-80,-128,-9,45,3.155572336
16.997145,-48,-7,-7,-10,-54,-5,9,-3,3.155572336
16.997159,5,18,1,-4,79,-33,10,-28,3.155572336
17.010710,65,71,7,29,1,-70,23,60,3.155572336
17.010741,-31,2,3,-15,-34,26,0,-12,3.155572336
17.012498,104,-30,0,14,-32,16,-8,-49,3.155572336
17.012512,-29,-43,-6,19,-35,-2,-22,22,3.155572336
17.033080,13,17,0,-3,1,16,3,-49,3.155572336
17.033098,35,18,-2,2,72,-5,-3,8,3.155572336
17.034705,-17,-16,-2,-48,-40,29,42,46,3.155572336
17.034765,20,7,10,42,-11,-55,-61,-6,3.155572336
17.046857,-33,-6,-4,21,6,71,24,14,3.155572336
17.046878,-23,-7,-7,-5,45,31,-40,-59,3.155572336
17.056370,-48,-7,-6,-23,68,18,19,-21,3.155572336
17.056381,54,4,-4,-20,2,-11,36,7,3.155572336
17.070655,-31,-35,3,28,-128,-58,-13,4,3.155572336
17.070678,15,24,-2,-15,-26,80,22,-29,3.155572336
17.072056,-72,-8,9,20,32,-117,-12,13,3.155572336
17.072070,41,-11,-8,-25,-23,-28,1,20,3.155572336
17.094914,20,10,-2,-1,10,-29,0,-37,3.155572336
17.094926,10,20,2,14,-6,-37,-5,2,3.155572336
17.094929,29,18,4,13,-64,26,3,9,3.155572336
17.094932,-10,29,8,-16,19,53,-8,17,3.155572336
17.115698,53,-27,-5,-32,-93,-61,5,-15,3.155572336
17.115721,-1,-28,-6,1,73,23,18,54,3.155572336
17.117098,14,31,8,40,-32,13,49,17,3.155572336
17.117136,-3,-5,-4,-15,63,25,-30,14,3.155572336
17.130730,-36,-4,-11,-29,-41,35,-16,9,3.155572336
17.130748,59,-62,-21,-39,-32,-51,-20,-61,3.155572336
17.132150,-37,-19,-8,20,-88,27,-46,11,3.155572336
17.132164,-48,-12,-10,-34,-37,-52,43,-20,3.155572336
17.153714,-34,11,5,20,92,77,1,57,3.128049970
17.153752,-50,2,3,-35,-62,-26,1,-36,3.128049970
17.155770,23,13,1,44,91,-34,2,6,3.128049970
17.155777,99,-12,-5,2,-98,-60,-34,10,3.128049970
17.175881,-18,15,5,29,34,31,10,2,3.128049970
17.175905,49,31,6,11,22,-10,-5,66,3.128049970
17.177305,-89,-36,-1,-40,-66,-2,6,-4,3.128049970
17.177329,-12,16,3,20,125,9,3,-15,3.128049970
17.191355,7,-8,4,1,-81,-44,-18,-4,3.128049970
17.191379,5,11,2,-9,-23,52,2,-57,3.128049970
17.192070,73,-43,-10,-11,77,52,-31,9,3.128049970
17.192092,-120,-33,-12,-16,-68,-16,2,-18,3.128049970
17.213198,27,-7,-7,-11,-53,-77,8,-5,3.128049970
17.213222,0,-5,9,29,113,7,28,11,3.128049970
17.216023,-75,24,-2,-16,-51,58,-17,-38,3.128049970
17.216035,37,12,6,4,39,29,15,-24,3.128049970
17.236195,70,-10,-7,1,73,20,-35,-4,3.128049970
17.236219,-117,20,10,26,-7,-52,10,-56,3.128049970
17.237136,48,-8,-7,0,3,-29,15,46,3.128049970
17.237158,51,11,-1,-16,-111,21,13,13,3.128049970
17.250209,23,-26,-10,31,96,-68,-6,-59,3.128049970
17.250228,-21,23,-6,-1,-99,50,2,23,3.128049970
17.256831,-14,-13,5,-12,98,-49,16,-60,3.128049970
17.256846,-36,-25,8,27,-110,-38,-22,-21,3.128049970
17.273322,-8,17,7,-60,-48,-24,7,9,3.128049970
17.273339,39,-14,-8,35,25,70,52,30,3.128049970
17.276228,2,11,1,2,85,-60,7,16,3.128049970
17.276241,-23,-2,-2,-68,28,-55,-25,49,3.128049970
17.295905,-6,3,10,48,74,106,57,-30,3.128049970
17.295919,56,-28,-11,0,-29,-104,-45,60,3.128049970
17.297156,-3,-3,-7,-3,-96,7,7,-4,3.128049970
17.297164,-28,3,-6,8,-1,7,4,-54,3.128049970
17.311814,31,49,-10,-58,-96,-51,-48,27,3.128049970
17.311837,-40,-16,1,7,21,-3,-18,-25,3.128049970
17.318492,-19,-8,-1,-3,-21,14,6,18,3.128049970
17.318498,12,4,1,57,-81,14,0,-13,3.128049970
17.333196,18,21,6,3,44,23,-21,28,3.128049970
17.333217,18,-1,1,-31,-64,-108,47,30,3.128049970
17.334781,42,20,3,1,-100,69,-52,-3,3.128049970
17.334795,5,-15,-6,7,127,41,5,-2,3.128049970
17.356394,-41,-11,-10,-61,24,65,5,2,3.128049970
17.356435,9,-3,2,17,-59,-90,-10,6,3.128049970
17.358844,-25,-2,1,-14,36,70,31,-28,3.128049970
17.358863,3,-2,-2,9,-1,-52,-73,-10,3.128049970
17.370412,39,38,7,23,-18,9,0,0,3.128049970
17.370434,-63,-19,-10,-17,10,-4,-31,-25,3.128049970
17.376934,15,8,3,29,-33,-24,16,61,3.128049970
17.376952,25,26,0,-4,78,40,23,23,3.128049970
17.393295,-38,-35,-5,-5,-34,-46,12,-11,3.128049970
17.393314,-2,39,14,-14,-86,0,-28,-53,3.128049970
17.394844,-39,-18,2,48,97,61,39,-7,3.166230663
17.394910,-18,2,-2,12,12,87,17,-1,3.166230663
17.416189,5,-88,-5,-9,59,-5,0,-28,3.166230663
17.416221,52,56,8,10,13,108,35,-6,3.166230663
17.417582,-67,-57,-15,-44,-95,-108,-38,-18,3.166230663
17.417592,-3,-23,-17,-66,-103,-78,10,29,3.166230663
17.430086,17,12,3,46,16,60,4,7,3.166230663
17.430103,-9,-17,0,7,1,-1,-15,-23,3.166230663
17.437082,59,21,-1,-3,89,-49,-12,-31,3.166230663
17.437109,-24,39,10,6,49,-32,21,39,3.166230663
17.453865,-61,-59,-11,-10,-61,-104,-17,-36,3.166230663
17.453873,33,-5,-5,7,-9,-1,-16,32,3.166230663
17.454579,-21,21,3,-5,-49,-11,2,-39,3.166230663
17.454586,-4,-6,-4,-74,-33,-64,-12,-10,3.166230663
17.475808,3,5,20,98,-39,-30,69,16,3.166230663
17.475888,-36,-21,-17,-18,127,98,-39,-39,3.166230663
17.477515,-1,1,-2,-10,20,-33,5,9,3.166230663
17.477526,27,-55,-7,8,-128,88,5,-30,3.166230663
17.490415,34,14,-1,-30,-83,-27,5,40,3.166230663
17.490441,-32,-12,-11,-4,109,-39,-6,-73,3.166230663
17.496924,13,-4,6,-2,-117,-37,6,41,3.166230663
17.496957,-6,42,-2,11,5,4,3,51,3.166230663
17.513261,-27,-4,-3,4,15,34,6,-9,3.166230663
17.513279,90,11,7,13,18,-30,-5,5,3.166230663
17.514923,-18,14,-5,-25,7,5,-11,-17,3.166230663
17.514938,25,-23,-1,22,16,11,10,-57,3.166230663
17.535661,36,26,7,-21,-32,-31,-24,10,3.166230663
17.535677,-76,-15,-11,-37,-75,-18,13,13,3.166230663
17.538846,66,-34,2,51,14,-103,-56,-10,3.166230663
17.538884,-77,25,8,-11,-87,84,35,5,3.166230663
17.550025,27,17,-3,79,92,14,-8,18,3.166230663
17.550045,76,-37,-9,-47,18,-32,-21,13,3.166230663
17.556906,10,42,10,-8,116,78,87,58,3.166230663
17.556926,-30,-31,-3,22,1,-67,-85,-61,3.166230663
17.573840,-76,31,5,-31,-7,21,6,57,3.166230663
17.573871,9,4,9,32,-27,-91,-7,12,3.166230663
17.576436,-43,18,-1,-9,-16,23,-27,6,3.166230663
17.576453,127,29,3,-30,-34,-40,-10,51,3.166230663
17.595741,-63,-26,-23,-1,42,3,11,-50,3.166230663
17.595759,-86,2,10,26,-43,2,20,42,3.166230663
17.597165,67,-13,-11,-30,14,-26,-35,-42,3.166230663
17.597180,44,14,8,24,-4,36,23,9,3.166230663
17.609406,11,19,5,-19,-17,-6,-10,-7,3.166230663
17.609431,27,-13,-9,-17,-105,4,12,-5,3.166230663
17.618449,-64,31,13,87,15,-10,14,-52,3.166230663
17.618455,-44,-12,-3,5,97,26,16,4,3.166230663
17.633261,59,-39,-6,-45,-99,-128,-33,0,3.166230663
17.633280,0,16,-8,-34,-18,127,-2,2,3.166230663
17.634567,-4,10,3,-14,-35,-12,36,35,3.166230663
17.634594,-18,-6,2,8,-38,-50,3,-6,3.166230663
17.655887,-18,1,-4,24,79,-9,16,-89,3.096719447
17.655895,-4,-19,4,-2,-50,40,-6,26,3.096719447
17.657138,-40,23,2,-12,-28,-6,-18,37,3.096719447
17.657172,63,-28,-20,-10,15,2,-5,-35,3.096719447
17.671312,17,-31,0,-29,-35,22,1,4,3.096719447
17.671321,-89,8,2,-37,-37,-23,2,-2,3.096719447
17.679793,12,-51,-12,63,113,4,-9,-41,3.096719447
17.679804,-16,8,7,48,34,-34,21,1,3.096719447
17.693221,-34,23,4,-58,-120,33,-30,-7,3.096719447
17.693250,35,-7,-15,-4,99,-25,-49,-12,3.096719447
17.695671,-84,-6,3,8,-46,71,-3,8,3.096719447
17.695684,-69,-35,-17,-25,-24,3,-23,-21,3.096719447
17.716820,23,5,1,55,11,11,31,28,3.096719447
17.716826,-85,9,-4,-11,67,3,-51,-29,3.096719447
17.717104,51,24,2,-20,-128,-73,27,68,3.096719447
17.717111,-71,-28,-6,18,12,30,-17,5,3.096719447
17.729278,-32,19,-5,-36,-57,13,1,-21,3.096719447
17.729297,-29,0,11,18,-35,-14,-6,17,3.096719447
17.739515,-12,26,-12,-25,15,-21,-9,-35,3.096719447
17.739522,42,0,6,0,30,17,36,-8,3.096719447
17.753520,13,-6,-4,1,63,-12,-8,-1,3.096719447
17.753550,33,13,-2,-9,21,-16,-2,21,3.096719447
17.755866,-4,-15,-1,-11,-17,24,-16,-11,3.096719447
17.755873,10,21,10,7,-79,-18,25,-43,3.096719447
17.776083,-73,-8,-7,-5,35,92,9,-49,3.096719447
17.776115,-53,17,14,79,8,-22,61,14,3.096719447
17.779137,73,-11,-31,-91,47,104,-2,-54,3.096719447
17.779149,-13,-17,-4,-3,-113,-49,-38,42,3.096719447
17.789532,20,21,6,-11,88,-22,24,29,3.096719447
17.789563,10,-14,0,39,-11,1,-1,-21,3.096719447
17.800846,2,75,17,-11,-19,8,6,65,3.096719447
17.800854,37,-70,-6,-16,-31,-29,-11,-9,3.096719447
17.813318,64,4,-13,14,73,30,-21,3,3.096719447
17.813336,20,-6,3,-3,-63,-10,4,-20,3.096719447
17.815051,-3,24,7,3,-66,-50,6,13,3.096719447
17.815069,-8,75,14,-28,52,-10,-27,-11,3.096719447
17.835870,-79,-29,-1,80,-67,9,18,11,3.096719447
17.835895,105,-29,-20,-2,63,23,10,35,3.096719447
17.837255,22,-1,7,-27,-28,-55,-21,8,3.096719447
17.837266,-37,18,-4,-33,-25,-24,17,52,3.096719447
17.849664,-86,13,13,-24,-128,-30,11,42,3.096719447
17.849682,84,5,-7,34,125,100,23,-34,3.096719447
17.858480,9,-54,-1,-8,-33,50,27,-8,3.096719447
17.858488,-31,0,4,33,112,1,14,10,3.096719447
17.873607,-28,33,7,-20,29,-26,-27,28,3.096719447
17.873613,-66,-28,-9,-24,-94,-47,-17,-34,3.096719447
17.874728,-91,9,-3,14,36,-36,-20,26,3.096719447
17.874737,77,-25,-6,-2,6,54,8,-63,3.096719447
17.895900,-19,6,6,-14,-76,2,11,9,3.096719447
17.895924,54,11,3,-13,80,-52,-13,9,3.096719447
17.897992,3,45,11,31,41,-79,-3,-25,3.096719447
17.897998,-55,0,-10,2,-38,55,43,3,3.096719447
17.909436,45,-32,-9,34,-67,-82,-37,8,3.104534053
17.909462,-15,30,6,-18,-90,98,74,36,3.104534053
17.920376,-23,-66,1,-19,-24,-107,-5,-36,3.104534053
17.920384,-7,31,7,-3,-41,0,52,14,3.104534053
17.933858,58,-2,-12,-17,-53,-72,-29,0,3.104534053
17.933922,-14,8,5,-2,-17,13,1,33,3.104534053
17.935879,-50,-15,-5,4,13,76,5,-47,3.104534053
17.935890,62,-1,-6,13,24,-13,-46,-32,3.104534053
17.955908,26,-6,5,1,36,8,18,13,3.104534053
17.955930,-110,-34,6,9,14,-35,-26,58,3.104534053
17.959099,104,-7,-10,-3,-13,16,-8,15,3.104534053
17.959111,-31,48,9,-69,-81,-8,-12,40,3.104534053
17.969303,40,3,10,58,69,27,16,-4,3.104534053
17.969356,38,27,-10,56,-81,-27,-2,-5,3.104534053
17.979580,35,-1,-2,-65,41,18,-57,-49,3.104534053
17.979589,-4,-3,-4,-14,65,-47,-25,26,3.104534053
17.993684,-80,-36,-8,-69,-50,-6,-29,-15,3.104534053
17.993717,-2,1,-8,19,42,-15,25,-21,3.104534053
17.996209,46,9,10,41,57,-71,10,41,3.104534053
17.996225,-5,-7,-9,-6,-58,64,-7,43,3.104534053
18.016071,-75,15,4,-20,25,9,30,-3,3.104534053
18.016116,89,-36,-14,-23,-7,-85,-50,-1,3.104534053
18.017398,-68,-16,-10,-17,-83,-17,-7,3,3.104534053
18.017425,9,43,14,43,94,27,12,0,3.104534053
18.038321,-8,-42,-6,-42,-92,15,0,-61,3.104534053
18.038347,12,16,18,62,64,-11,5,68,3.104534053
18.039757,-7,0,-1,-3,67,73,15,5,3.104534053
18.039823,-34,35,15,34,-32,-80,10,13,3.104534053
18.053270,127,-18,-20,-4,46,42,-34,-88,3.104534053
18.053296,-63,4,0,-45,85,-18,38,-8,3.104534053
18.054798,-12,-10,3,-6,-101,78,14,24,3.104534053
18.054818,-38,-10,0,33,125,64,-25,6,3.104534053
18.076232,50,20,11,2,8,-105,13,-5,3.104534053
18.076252,-4,6,-12,-51,-36,45,-48,-8,3.104534053
18.077249,-11,22,-1,40,-13,-76,0,7,3.104534053
18.077266,-22,-48,-10,-29,-128,37,11,-22,3.104534053
18.098545,26,19,5,20,93,-46,-22,39,3.104534053
18.098565,-20,3,1,16,-11,-5,2,-27,3.104534053
18.099833,0,5,-3,-4,-68,45,-8,-6,3.104534053
18.099846,-18,-18,0,28,21,-14,-9,-2,3.104534053
18.113097,69,-14,-15,-34,7,46,-1,-34,3.104534053
18.113116,-71,47,24,75,43,-52,-4,-1,3.104534053
18.114931,-10,-6,-5,1,-25,49,-3,20,3.104534053
18.114985,86,-68,-26,8,4,-113,-22,-56,3.104534053
18.137830,-16,15,-3,-23,-86,127,30,66,3.104534053
18.137844,6,37,13,-31,62,-60,-9,-67,3.104534053
18.137851,17,-37,-10,27,-12,65,15,32,3.104534053
18.137856,-17,16,4,2,-43,-17,-10,2,3.104534053
18.158243,-37,1,-4,11,19,-50,-7,-12,3.104534053
18.158259,-10,-3,3,-24,-124,-12,-15,4,3.104534053
18.160238,-32,-13,1,-1,0,-19,-22,-47,3.104534053
18.160250,-1,-5,-5,-8,44,-3,8,-15,3.104534053
18.172629,-117,34,9,-10,7,11,18,18,3.109437334
18.172718,64,-61,-20,-23,-76,13,0,-12,3.109437334
18.180019,15,4,-12,-7,-8,-66,-5,-53,3.109437334
18.180043,-37,3,9,-11,-75,-15,-2,31,3.109437334
18.195068,-67,4,6,39,86,-1,32,55,3.109437334
18.195086,2,3,4,50,80,40,-13,36,3.109437334
18.197413,27,-10,-14,-47,114,44,-2,-46,3.109437334
18.197419,-45,-19,7,-29,-83,-99,11,3,3.109437334
18.217511,12,-18,-10,1,42,30,-54,6,3.109437334
18.217548,-15,36,6,-17,40,105,35,-51,3.109437334
18.218163,-12,-70,-5,36,-29,-109,-12,47,3.109437334
18.218197,18,-18,-11,-31,18,42,6,-3,3.109437334
18.232102,8,2,-6,-14,6,-23,-23,-2,3.109437334
18.232125,-37,-19,-10,-20,-39,12,-12,-84,3.109437334
18.240319,-54,27,11,15,-10,-15,-12,-52,3.109437334
18.240337,8,16,-2,-5,-46,38,-2,-22,3.109437334
18.255165,36,-13,-5,28,103,17,13,-8,3.109437334
18.255182,24,-4,-7,-18,-11,-59,-47,-13,3.109437334
18.257227,-13,22,13,15,-49,-68,38,28,3.109437334
18.257239,-7,20,3,51,127,58,-27,4,3.109437334
18.279555,82,23,15,-12,-93,27,43,-24,3.109437334
18.279566,35,-48,-17,-22,-79,24,-10,15,3.109437334
18.279568,-16,4,-1,-10,92,28,24,18,3.109437334
18.279571,-40,15,3,1,-47,87,-24,-17,3.109437334
18.294758,-20,-22,7,25,-13,-37,22,32,3.109437334
18.294770,8,7,-4,-23,-54,-23,2,3,3.109437334
18.300425,27,-5,-6,1,-7,-50,13,55,3.109437334
18.300454,88,65,13,11,28,-15,-17,-10,3.109437334
18.315174,-106,-60,-2,-9,-18,8,-25,5,3.109437334
18.315218,73,-11,-6,-10,-17,-55,4,1,3.109437334
18.316069,-14,-34,2,0,-1,30,-12,-51,3.109437334
18.317888,7,36,5,-27,-9,-11,19,54,3.109437334
18.338022,28,33,10,86,72,-26,-14,3,3.109437334
18.338053,-34,-14,0,34,24,-71,22,5,3.109437334
18.340014,49,19,-4,-94,-44,93,15,42,3.109437334
18.340022,-31,-42,-21,-13,96,-35,-19,-33,3.109437334
18.351968,21,-1,-11,-33,-115,-78,-1,4,3.109437334
18.351994,-71,17,25,78,-73,-42,38,15,3.109437334
18.360321,85,7,-5,16,52,83,-33,-51,3.109437334
18.360343,-10,-27,2,-12,9,-62,-4,46,3.109437334
18.375837,-9,31,5,-34,-19,-14,-4,41,3.109437334
18.375853,-49,27,2,-19,-13,-32,9,-10,3.109437334
18.375895,75,-29,-13,7,-29,-36,-32,31,3.109437334
18.376016,14,-17,4,7,7,27,14,8,3.109437334
18.397677,6,37,3,2,26,2,8,36,3.109437334
18.397709,-62,25,8,-11,-86,52,-16,-6,3.109437334
18.400081,20,13,-3,18,40,-14,4,-9,3.109437334
18.400087,7,-19,-9,25,0,-5,12,-4,3.109437334
18.412024,29,10,6,-12,-125,7,-15,60,3.109437334
18.412042,-22,-10,-5,-64,121,20,27,17,3.109437334
18.420146,-66,4,-5,60,-86,1,27,-3,3.078390731
18.420170,-11,-1,-4,-13,58,32,-12,-34,3.078390731
18.435174,40,32,-7,-2,-25,-48,-19,-62,3.078390731
18.435181,108,-26,-10,-19,1,24,-14,20,3.078390731
18.435803,-44,8,16,17,-51,57,39,8,3.078390731
18.435879,-63,41,16,3,-18,-37,-13,44,3.078390731
18.457961,35,-101,-26,-14,4,5,-10,18,3.078390731
18.457988,57,6,-11,-9,5,-91,-55,-19,3.078390731
18.460812,-9,13,6,-13,-7,15,21,-13,3.078390731
18.460824,-16,12,7,-1,-69,34,27,-8,3.078390731
18.472225,-8,-5,-5,-7,127,-24,-2,-22,3.078390731
18.472358,36,31,4,26,-113,-4,21,-54,3.078390731
18.482031,-6,-3,6,9,44,-117,-4,41,3.078390731
18.482042,-102,-27,-13,-18,-13,45,-22,-27,3.078390731
18.496402,-3,-2,-3,18,-23,-25,18,-26,3.078390731
18.496419,-47,-14,1,-29,-56,39,-19,-4,3.078390731
18.496425,27,29,2,-19,10,-10,-1,-10,3.078390731
18.496430,21,-20,-11,11,-16,27,-4,-6,3.078390731
18.517598,-19,7,-5,-12,-28,30,12,9,3.078390731
18.517612,-63,11,13,-9,14,80,-21,19,3.078390731
18.519005,-25,-31,-10,6,48,-31,-33,-21,3.078390731
18.519018,127,-14,-17,-4,-1,-22,35,-31,3.078390731
18.532363,-6,-24,-2,3,43,30,9,3,3.078390731
18.532379,-24,-17,-3,-21,-10,-15,10,-54,3.078390731
18.540282,7,32,10,-12,-54,6,-14,49,3.078390731
18.540337,-103,-16,4,53,-9,-28,-12,-9,3.078390731
18.555117,82,51,6,26,90,-30,10,-33,3.078390731
18.555134,19,-30,-1,39,50,-25,-7,32,3.078390731
18.556844,-82,65,8,-29,16,43,42,3,3.078390731
18.556850,52,-49,-12,-4,-22,-77,10,-30,3.078390731
18.577777,-15,-9,-23,-50,-61,101,-53,30,3.078390731
18.577838,-6,2,5,16,-100,6,50,67,3.078390731
18.578467,-18,-2,3,42,125,-21,-41,-40,3.078390731
18.578483,-64,30,9,-23,-61,-1,26,9,3.078390731
18.591993,8,-10,3,7,-42,-18,-9,-77,3.078390731
18.592018,15,-16,-18,-14,32,-10,-21,-14,3.078390731
18.600097,59,-2,-2,-12,-63,-10,19,47,3.078390731
18.600121,-30,32,5,-4,-60,-8,-10,83,3.078390731
18.615107,34,-50,-4,23,47,-17,-19,-65,3.078390731
18.615126,37,-2,-1,-16,-44,-9,17,19,3.078390731
18.616172,-7,-11,6,50,-22,-53,-34,-17,3.078390731
18.616181,85,3,-1,-29,1,50,17,24,3.078390731
18.638071,-86,77,18,1,3,98,4,29,3.078390731
18.638084,-46,-83,-24,-39,-17,-31,12,-61,3.078390731
18.638238,61,-35,-15,-12,-41,-6,14,-11,3.078390731
18.638253,-2,17,1,18,-5,-44,-11,-26,3.078390731
18.652654,-3,12,6,-13,-11,-3,24,37,3.078390731
18.652670,-22,29,9,19,54,8,-4,-16,3.078390731
18.660401,-42,3,-1,-22,-53,-15,-31,7,3.078390731
18.660430,-37,-38,-8,20,61,13,3,-13,3.078390731
18.675844,-2,1,-5,-66,-63,-23,-13,-67,3.094538209
18.675872,12,14,3,54,0,61,0,30,3.094538209
18.676432,-22,-8,3,48,33,-83,-6,-36,3.094538209
18.676451,21,26,4,-9,69,51,-2,3,3.094538209
18.697416,-74,-13,0,-11,-1,91,17,23,3.094538209
18.697440,31,3,0,-14,-21,11,20,16,3.094538209
18.705723,3,57,2,-10,-46,-70,10,2,3.094538209
18.705750,57,-47,-15,-3,-21,12,2,-13,3.094538209
18.712037,-26,-8,5,27,-7,-78,-3,-2,3.094538209
18.712055,39,23,5,-16,-82,-43,-2,2,3.094538209
18.720120,-84,-10,-12,-20,57,101,-12,-18,3.094538209
18.720148,-16,6,0,-4,-24,-38,5,3,3.094538209
18.735014,79,-18,-8,-5,-4,-12,6,1,3.094538209
18.735024,-58,21,9,13,63,9,6,-13,3.094538209
18.735865,30,-21,-7,-9,-41,-4,-28,49,3.094538209
18.735886,-4,41,16,7,29,20,10,29,3.094538209
18.757763,-95,-27,-8,-4,-70,-23,-7,-1,3.094538209
18.757787,30,-14,-5,20,100,-48,-17,-55,3.094538209
18.760540,-23,-15,8,20,-89,14,-6,-24,3.094538209
18.760553,41,-1,-2,-30,55,-54,-4,55,3.094538209
18.772330,4,23,5,45,75,46,40,121,3.094538209
18.772353,-6,8,-2,-29,51,46,1,-41,3.094538209
18.781630,-2,-27,-6,-26,91,38,36,-17,3.094538209
18.781641,-30,4,0,13,-125,24,-44,-44,3.094538209
18.797580,-63,23,17,-2,11,-27,5,-13,3.094538209
18.797597,97,-18,-20,-17,-20,-11,-25,1,3.094538209
18.797600,-34,-20,-9,5,14,46,-5,14,3.094538209
18.797602,6,-9,0,-2,-6,-38,9,-37,3.094538209
18.817722,-14,3,-1,1,9,-20,-7,19,3.094538209
18.817746,-48,37,5,-2,-11,27,3,25,3.094538209
18.818627,6,-52,-6,-10,-93,-42,0,11,3.094538209
18.818653,20,-1,-6,-55,-19,-8,5,-61,3.094538209
18.832187,14,-10,-12,27,-56,-79,-19,-13,3.094538209
18.832215,-42,1,4,38,96,80,13,-17,3.094538209
18.841226,26,18,-4,-25,-31,-40,-84,-22,3.094538209
18.841252,-61,11,12,-17,51,61,45,-4,3.094538209
18.855601,27,-4,-2,-11,37,54,17,1,3.094538209
18.855631,32,25,14,10,-97,-69,-3,51,3.094538209
18.857945,23,-76,-29,-43,-28,45,23,-88,3.094538209
18.857951,-4,-27,-16,21,7,-6,-52,-7,3.094538209
18.877652,-16,29,12,3,-28,-45,-15,7,3.094538209
18.877670,11,-33,-20,-23,-7,-53,-23,25,3.094538209
18.878364,-52,39,27,39,72,49,43,-39,3.094538209
18.878371,55,-7,-5,3,-114,-75,15,41,3.094538209
18.891901,73,36,4,-13,-6,53,5,-24,3.094538209
18.891918,-53,-16,-3,-3,-97,-22,-1,7,3.094538209
18.900215,43,21,0,-26,98,19,32,59,3.094538209
18.901098,-3,1,4,36,127,-10,-14,33,3.094538209
18.915097,14,-2,-2,1,-28,20,-18,33,3.094538209
18.915114,16,-4,2,-1,-45,114,50,75,3.094538209
18.915837,-12,12,6,11,20,0,15,-23,3.094538209
18.915843,-5,5,-6,-21,-71,-62,-49,-15,3.094538209
18.939077,-22,-19,-7,-12,64,-12,2,-30,3.057871767
18.939089,-1,52,-4,-43,7,65,-25,40,3.057871767
18.939091,-79,-83,-17,-16,-128,-62,-7,-68,3.057871767
18.939094,-2,16,10,8,-40,-7,21,77,3.057871767
18.954159,-7,9,-6,-11,-39,-16,-8,-63,3.057871767
18.954167,-116,22,13,15,74,-68,-1,12,3.057871767
18.960211,120,18,-7,3,75,13,-28,-25,3.057871767
18.960237,3,-1,1,1,-7,34,6,-5,3.057871767
18.975440,-22,-20,-1,-26,-94,-50,-3,18,3.057871767
18.975569,10,-3,1,15,-12,-10,4,10,3.057871767
18.977519,-4,28,8,27,59,-45,3,16,3.057871767
18.977530,-68,-28,-6,3,91,66,35,8,3.057871767
18.998332,75,11,6,13,-7,-61,17,35,3.057871767
18.998362,-12,-27,-9,14,-54,48,-61,-72,3.057871767
19.000616,-2,8,0,-39,-8,-64,75,75,3.057871767
19.000624,-53,18,-1,-20,43,81,-1,-5,3.057871767
19.021127,30,-39,-25,-25,36,7,-5,-67,3.057871767
19.021153,71,-2,7,28,94,-25,18,32,3.057871767
19.021477,-71,24,9,-28,-35,16,13,36,3.057871767
19.021498,56,47,20,79,98,5,-12,-40,3.057871767
19.035403,-128,-78,-26,-22,-37,-44,-42,-36,3.057871767
19.035461,76,-23,-18,-10,-24,-42,-18,-15,3.057871767
19.036000,-1,26,7,14,-72,19,-7,4,3.057871767
19.036095,-2,4,6,-17,-94,-21,18,21,3.057871767
19.058507,-16,11,3,10,57,30,3,-29,3.057871767
19.058538,13,-12,-2,23,19,-50,-22,-37,3.057871767
19.061279,-3,14,7,-13,-42,-29,-3,16,3.057871767
19.061291,-24,-29,-19,17,-21,79,-36,-41,3.057871767
19.080885,23,12,12,-20,-95,-91,10,9,3.057871767
19.080948,-33,13,14,-3,92,-50,22,92,3.057871767
19.081552,19,1,-8,-17,126,101,16,8,3.057871767
19.081565,-1,-21,-7,-9,2,-101,-28,-8,3.057871767
19.095655,28,89,13,-21,-20,123,67,29,3.057871767
19.095670,-77,-87,-25,2,40,-101,-39,-65,3.057871767
19.095872,23,40,-5,-4,-50,11,-41,-20,3.057871767
19.095880,-15,25,2,7,-17,-7,35,30,3.057871767
19.117856,-65,16,10,30,-18,4,-4,9,3.057871767
19.119543,-61,-56,-15,-22,-43,-11,7,-2,3.057871767
19.119556,-10,-9,-3,29,0,9,-20,-9,3.057871767
19.119561,-25,-23,-7,-26,-29,-14,-3,-27,3.057871767
19.142940,-1,27,18,20,-33,-12,-4,29,3.057871767
19.142956,29,29,3,-7,27,27,37,-7,3.057871767
19.142958,-15,-41,-15,24,-93,-7,-87,-23,3.057871767
19.142961,23,25,8,-13,78,49,25,8,3.057871767
19.155786,24,-25,-4,-44,-64,93,-14,-9,3.057871767
19.155817,29,24,10,71,112,-34,52,29,3.057871767
19.158371,-79,11,5,-31,-122,-8,9,11,3.057871767
19.158382,54,-26,-8,-9,-42,-100,-21,-11,3.057871767
19.177748,-30,-28,-23,2,117,69,-41,-80,3.057871767
19.177774,37,26,-1,-19,-56,44,14,23,3.057871767
19.178642,-60,25,19,26,33,-31,6,26,3.057871767
19.178662,43,44,10,4,15,-7,25,12,3.057871767
19.200945,64,-28,-22,52,-38,-52,-20,47,3.062247764
19.200961,11,53,13,-26,-43,4,-8,45,3.062247764
19.203757,38,-4,-2,2,38,34,16,40,3.062247764
19.203766,-66,50,16,-7,-41,-72,16,1,3.062247764
19.215540,108,-22,-6,22,-62,-71,-11,-23,3.062247764
19.215572,-3,7,4,-21,-10,68,-14,11,3.062247764
19.217568,-20,-8,0,-22,53,-99,-15,-28,3.062247764
19.217575,-12,-24,-7,26,74,82,-5,-13,3.062247764
19.237624,-16,28,13,47,-56,-128,16,8,3.062247764
19.237663,-95,-24,-10,-63,-53,45,-38,-47,3.062247764
19.238304,117,32,0,-24,30,-46,33,0,3.062247764
19.238412,-83,38,14,9,-24,-33,-19,-5,3.062247764
19.260913,101,-102,-32,-43,-9,-15,-37,-9,3.062247764
19.260939,45,11,3,27,-28,-31,-13,-81,3.062247764
19.263155,-30,85,31,27,11,48,22,47,3.062247764
19.263169,-33,-60,-13,-13,-24,6,-21,-15,3.062247764
19.275344,-128,-64,-15,38,36,8,-6,-14,3.062247764
19.275362,71,18,-6,-9,-72,-7,1,-11,3.062247764
19.277350,16,47,1,-34,-97,12,-7,-4,3.062247764
19.277366,20,36,-1,28,64,-2,14,57,3.062247764
19.298771,-9,48,21,3,33,-4,7,-16,3.062247764
19.298779,-36,-17,3,-8,85,-6,21,51,3.062247764
19.298782,-25,-61,-16,3,-67,-24,-31,-10,3.062247764
19.298785,21,-14,1,-39,53,-2,-3,-5,3.062247764
19.321159,-34,-1,-10,-31,-24,108,-10,22,3.062247764
19.321190,0,-7,-10,-1,-92,-83,-7,0,3.062247764
19.323416,-9,-21,-9,-19,-43,-91,-23,-76,3.062247764
19.323429,26,-28,-10,15,-24,81,3,-8,3.062247764
19.335171,17,36,9,-6,43,-49,12,14,3.062247764
19.335202,-4,62,16,22,24,24,5,-63,3.062247764
19.337231,27,-60,-15,4,4,-33,-18,66,3.062247764
19.337243,-1,-35,-14,1,-57,-44,-25,-89,3.062247764
19.357616,-79,1,6,-32,63,19,22,7,3.062247764
19.357634,-55,8,13,38,-24,6,-1,3,3.062247764
19.360361,0,46,10,9,-26,21,14,34,3.062247764
19.360381,53,-63,-23,-17,92,-9,-30,-42,3.062247764
19.380139,102,28,14,24,24,-40,56,75,3.062247764
19.380156,-7,-16,-5,-20,-126,-80,6,-9,3.062247764
19.380888,-37,-71,-25,23,127,84,-14,-49,3.062247764
19.380908,54,24,11,-53,-128,-44,36,52,3.062247764
19.395281,6,9,-1,-11,-28,-29,-16,-23,3.062247764
19.395299,14,-24,-10,1,60,44,-8,28,3.062247764
19.396887,-19,50,13,27,-31,-9,10,5,3.062247764
19.396899,-53,-15,-3,-2,-111,-90,26,-32,3.062247764
19.418296,-14,-15,-3,-11,9,104,-4,-35,3.062247764
19.418328,-18,0,-9,-25,-21,-16,-38,91,3.062247764
19.420977,-63,-45,-5,-6,-61,11,1,-17,3.062247764
19.420984,-78,19,0,7,-6,-5,7,-27,3.062247764
19.440931,88,66,12,5,22,-30,4,17,3.062247764
19.440966,-71,-58,-12,-8,49,39,11,28,3.062247764
19.441478,28,16,9,-3,43,-14,-1,-102,3.062247764
19.441512,-55,-12,2,12,15,-31,-3,41,3.062247764
19.455683,25,-1,0,5,92,19,-64,15,3.043013202
19.455691,26,20,-5,-40,-53,75,43,-41,3.043013202
19.455694,25,7,0,9,-44,-98,-37,26,3.043013202
19.455739,-23,4,-9,-37,10,-4,8,-50,3.043013202
19.477695,-52,26,8,-11,-59,101,-12,20,3.043013202
19.477720,-16,-68,-22,3,-90,-109,-29,-72,3.043013202
19.479737,41,12,2,17,56,42,37,39,3.043013202
19.479750,-24,3,5,3,-52,2,-4,34,3.043013202
19.501569,29,2,-5,-4,26,-63,-10,-5,3.043013202
19.501576,15,25,6,14,35,-7,23,26,3.043013202
19.501578,9,-2,6,7,22,46,19,37,3.043013202
19.501581,-6,20,0,-17,-38,8,-37,-1,3.043013202
19.516734,-13,-25,-4,2,-111,-22,19,0,3.043013202
19.516747,28,21,7,-17,-87,-42,9,25,3.043013202
19.516750,-18,-17,-7,48,114,64,-41,-6,3.043013202
19.516752,-17,-19,4,7,-20,60,12,28,3.043013202
19.538049,-79,41,11,13,-81,-63,-15,5,3.043013202
19.538076,30,90,15,-8,-24,61,0,-48,3.043013202
19.539668,-26,-74,-32,-60,37,-15,20,-10,3.043013202
19.539703,19,22,-2,13,-41,-13,-13,3,3.043013202
19.560384,3,4,-2,13,36,14,28,1,3.043013202
19.560407,-14,16,16,13,4,-33,-18,9,3.043013202
19.562575,5,32,6,-3,-17,27,-12,-1,3.043013202
19.562589,45,0,-5,6,39,-33,-3,56,3.043013202
19.574923,61,-21,-1,-21,6,-37,12,-4,3.043013202
19.574944,-46,-28,-10,4,49,3,-10,-7,3.043013202
19.582716,-9,2,2,-2,-41,-16,6,-13,3.043013202
19.582739,58,-8,-3,5,56,29,9,72,3.043013202
19.597937,-54,-17,8,20,-109,-28,-18,-17,3.043013202
19.597955,26,-14,-7,4,103,-30,-5,-58,3.043013202
19.598382,42,4,-3,-2,-30,-52,19,-13,3.043013202
19.598443,-7,19,-4,-19,-16,104,12,-58,3.043013202
19.620746,35,22,-1,15,101,54,28,64,3.043013202
19.620778,-36,6,14,43,-105,-41,23,68,3.043013202
19.623356,88,2,-20,-56,54,-70,-26,-30,3.043013202
19.623362,42,2,-3,-11,17,26,13,-11,3.043013202
19.634931,-12,0,-3,-62,-93,-73,1,-7,3.043013202
19.634962,-21,-21,-10,57,109,46,-11,-64,3.043013202
19.643072,-16,69,33,28,-43,-37,-18,74,3.043013202
19.643102,116,-65,-28,-7,-20,-36,10,-39,3.043013202
19.657610,-38,-10,-8,-18,-8,19,-8,-38,3.043013202
19.657624,-15,3,0,-16,4,-14,-3,22,3.043013202
19.658218,-74,-4,6,16,-35,33,10,-24,3.043013202
19.658232,61,47,11,16,23,6,11,25,3.043013202
19.680172,32,25,1,1,-52,-19,-4,-6,3.043013202
19.680190,42,-20,-5,-43,16,-12,-29,71,3.043013202
19.682577,14,-17,-4,8,42,23,-19,-6,3.043013202
19.682583,-12,10,5,40,52,82,19,-50,3.043013202
19.694524,14,45,18,40,-60,-34,11,53,3.043013202
19.694547,40,-53,-15,-28,72,-40,-16,-30,3.043013202
19.704005,34,-49,-23,-39,-96,68,-13,3,3.020358066
19.704014,-47,3,4,-10,14,-13,15,-9,3.020358066
19.720914,-26,-4,0,16,61,11,-9,-36,3.020358066
19.720921,-56,75,29,40,24,14,3,64,3.020358066
19.720923,93,-59,-22,-7,-23,-40,-1,-19,3.020358066
19.720925,-61,-24,-17,-14,-28,-29,-23,-74,3.020358066
19.740452,-67,-10,1,-8,21,-9,25,11,3.020358066
19.740467,3,10,4,-5,-50,34,17,-7,3.020358066
19.740772,64,98,29,26,-39,-2,34,35,3.020358066
19.740808,-55,-18,7,10,74,-15,-33,-9,3.020358066
19.754800,116,-36,-46,-85,115,-91,-71,-26,3.020358066
19.756833,-13,-20,5,27,39,97,34,-7,3.020358066
19.762740,-41,11,2,-19,1,-60,-57,-9,3.020358066
19.762763,-61,11,1,23,-44,41,2,-11,3.020358066
19.777852,-32,12,15,-10,-90,-26,13,-25,3.020358066
19.777876,30,-10,-14,-2,114,62,-2,-29,3.020358066
19.780185,23,46,19,9,17,-12,51,49,3.020358066
19.780204,-104,-59,-8,-11,-104,-47,-8,67,3.020358066
19.800205,8,-29,-15,3,-3,5,-7,-43,3.020358066
19.800230,44,47,6,-7,-116,-54,-26,22,3.020358066
19.800862,-65,-18,0,5,-118,17,30,-26,3.020358066
19.800932,82,1,-11,-17,113,-34,-18,9,3.020358066
19.816056,-52,-62,-13,20,-81,-15,4,1,3.020358066
19.816079,-88,-12,-13,-44,-91,10,-23,-17,3.020358066
19.822932,-29,14,5,11,46,9,15,-16,3.020358066
19.822954,-20,30,14,11,31,10,-4,36,3.020358066
19.837674,-16,-1,8,-10,-37,-9,12,-49,3.020358066
19.837698,53,5,4,18,-9,-100,11,-25,3.020358066
19.839055,-38,-19,-3,49,23,91,-49,103,3.020358066
19.839068,24,-1,-3,-96,-112,-10,4,-3,3.020358066
19.860798,-27,13,10,28,-14,5,57,41,3.020358066
19.860810,115,2,-18,47,41,96,-9,-39,3.020358066
19.860995,11,-11,-7,-30,18,-104,3,-33,3.020358066
19.861002,-56,-1,6,18,-8,-63,6,-48,3.020358066
19.874466,-21,28,10,28,8,-20,-39,25,3.020358066
19.874485,1,-9,-5,-11,72,-8,35,11,3.020358066
19.883451,61,-5,-1,-7,9,-2,-1,78,3.020358066
19.883529,1,-6,-3,-2,-49,33,-18,-6,3.020358066
19.897760,6,4,-2,-17,20,-7,28,-19,3.020358066
19.897793,-38,-11,2,-12,-27,2,-18,16,3.020358066
19.900079,45,46,6,7,17,15,17,2,3.020358066
19.900085,-82,-49,12,53,-9,-71,-4,59,3.020358066
19.921011,23,-9,-22,-54,-16,127,-7,-13,3.020358066
19.921018,-22,-28,-7,-51,19,-113,-4,-8,3.020358066
19.921020,-45,-36,-14,20,48,118,-12,-41,3.020358066
19.921023,-16,17,-3,-15,-94,39,34,-42,3.020358066
19.943980,-38,1,-4,14,127,-73,-34,11,3.020358066
19.945775,22,-2,-1,-17,-42,50,-6,-44,3.020358066
19.945787,-45,-17,7,-27,-29,-64,33,-14,3.020358066
19.945789,9,63,7,28,23,-3,-11,-37,3.020358066
19.957665,40,-19,-3,-3,-12,37,-3,15,3.101501046
19.957688,26,13,0,13,-73,-24,19,39,3.101501046
19.960035,-54,-14,1,26,7,-10,3,-9,3.101501046
19.960047,62,17,-10,-12,1,-5,-20,-58,3.101501046
19.980258,-13,7,12,15,-113,-9,3,5,3.101501046
19.980281,-35,37,7,-24,-7,16,-8,27,3.101501046
19.982343,48,-18,-23,-42,-55,51,-35,1,3.101501046
19.982351,-19,-12,13,89,0,-48,28,83,3.101501046
20.003425,99,14,-8,-55,70,-99,-60,-18,3.101501046
20.003454,-79,-42,0,36,82,108,-7,41,3.101501046
20.004088,18,-1,-13,-41,-64,-7,-41,-41,3.101501046
20.004110,17,12,2,-18,-56,-68,-15,49,3.101501046
