timestamp,emg1,emg2,emg3,emg4,emg5,emg6,emg7,emg8,label
10.016947,55,15,3,8,-7,-7,-12,-15,1.370305001
10.017019,13,-36,-2,31,69,-20,-3,41,1.370305001
10.017251,22,26,-4,-49,-123,43,14,38,1.370305001
10.017259,-11,18,5,29,114,-61,8,-34,1.370305001
10.038680,-49,-32,-2,-7,-39,24,2,-2,1.370305001
10.038710,-7,11,8,9,-7,-36,-10,-30,1.370305001
10.041275,18,-13,-9,1,62,89,16,-6,1.370305001
10.041281,-31,-30,-4,5,48,-10,-16,18,1.370305001
10.052635,-67,12,1,-5,-20,-13,0,-23,1.370305001
10.052654,58,-28,-9,-8,-35,-39,-6,-26,1.370305001
10.059446,-26,25,3,5,-45,-10,0,-42,1.370305001
10.059462,-20,6,-1,-24,-92,25,12,25,1.370305001
10.076089,7,7,3,15,98,-11,-30,11,1.370305001
10.076106,-56,4,3,-18,-85,6,-15,16,1.370305001
10.078040,-55,-6,8,46,15,-31,6,-33,1.370305001
10.078050,72,-2,-7,-16,71,33,-6,4,1.370305001
10.099080,-17,-6,2,-9,-30,48,18,9,1.370305001
10.099102,-17,-15,-1,-11,-52,-86,-9,11,1.370305001
10.100848,-31,20,-4,17,106,23,10,7,1.370305001
10.100871,10,-47,-7,4,-47,-3,-14,3,1.370305001
10.112795,-16,-1,5,-17,-25,-30,-2,-5,1.370305001
10.112825,-22,5,3,4,26,62,1,1,1.370305001
10.119625,62,-23,3,-5,7,-79,4,-11,1.370305001
10.119649,-42,26,5,-4,-32,-32,-1,-67,1.370305001
10.136627,21,15,-4,-1,-2,1,-5,18,1.370305001
10.136659,-4,5,-1,11,23,14,8,13,1.370305001
10.138613,57,2,-4,0,-41,-10,1,62,1.370305001
10.138618,-9,12,-3,-19,68,-26,-27,-82,1.370305001
10.158731,15,-22,-8,-19,-106,40,7,-30,1.370305001
10.158740,7,9,7,-41,-88,-17,4,-27,1.370305001
10.159837,2,-13,-6,67,77,-5,7,32,1.370305001
10.159918,23,35,-1,-16,-3,53,-13,16,1.370305001
10.174468,11,-15,-7,2,33,-33,12,-7,1.370305001
10.174477,37,-14,2,0,-19,34,-4,-22,1.370305001
10.179621,-1,5,3,-31,-126,-4,1,0,1.370305001
10.179640,-29,-5,2,2,2,4,16,24,1.370305001
10.196072,24,12,1,44,121,-16,-13,5,1.370305001
10.196101,-23,7,0,30,52,-3,-1,19,1.370305001
10.198229,-12,10,5,-40,-33,3,-6,-24,1.370305001
10.198241,30,-21,-5,5,-16,-24,-4,2,1.370305001
10.221059,-22,4,-1,-27,64,10,-13,-16,1.370305001
10.221070,21,1,-2,38,59,31,10,32,1.370305001
10.221073,-23,25,2,-12,-58,-21,7,-17,1.370305001
10.221075,-2,24,0,-1,-32,14,-9,-9,1.370305001
10.232741,-13,-40,2,-15,-31,15,5,-30,1.370543855
10.232760,-4,22,-5,1,-10,-3,-13,-35,1.370543855
10.239995,7,-13,1,3,-10,0,9,56,1.370543855
10.240037,-35,0,-2,-12,43,5,1,9,1.370543855
10.256268,16,-6,-7,12,34,43,8,2,1.370543855
10.256302,30,-5,-7,-9,-14,-60,-3,-40,1.370543855
10.258040,-5,2,4,19,-23,21,9,8,1.370543855
10.258050,-12,-20,2,-7,-67,-18,-6,-10,1.370543855
10.278972,30,35,8,8,30,-3,-6,33,1.370543855
10.279005,-73,9,-3,26,-17,7,10,-78,1.370543855
10.281454,42,14,-3,-20,-33,-76,-14,52,1.370543855
10.281467,-11,-77,-9,-21,16,15,23,40,1.370543855
10.292964,19,5,-2,17,-25,-4,-6,32,1.370543855
10.292996,26,5,3,9,-7,-39,11,52,1.370543855
10.299440,-21,-6,-6,-12,47,51,-10,-61,1.370543855
10.299543,-1,28,1,17,-68,-11,0,9,1.370543855
10.315902,-33,-15,-2,-8,-2,-3,5,-5,1.370543855
10.315927,4,-20,-3,-17,14,13,-4,-43,1.370543855
10.317445,-11,-42,-6,-17,18,37,3,8,1.370543855
10.317464,26,15,4,21,36,-19,-20,-7,1.370543855
10.338656,-20,-28,-6,8,-91,-13,-12,-42,1.370543855
10.338679,-37,3,8,34,73,-11,-6,28,1.370543855
10.340118,50,14,-4,-25,-47,64,18,-72,1.370543855
10.340128,-16,12,-5,-7,2,-53,-40,3,1.370543855
10.353040,14,-6,-1,-10,-9,-7,1,10,1.370543855
10.353065,-13,19,0,-10,4,-13,-41,12,1.370543855
10.359393,-22,28,-2,-10,2,-14,-5,1,1.370543855
10.359410,-6,-14,2,-2,-78,1,14,-10,1.370543855
10.375740,33,33,-1,0,60,-13,-10,-5,1.370543855
10.375777,-42,-4,2,-10,-20,29,15,44,1.370543855
10.377205,-2,-30,-1,18,63,-11,-14,7,1.370543855
10.377214,58,-16,-6,14,-10,40,3,-27,1.370543855
10.398265,-29,34,7,-8,-60,-12,-14,31,1.370543855
10.398283,22,22,1,-9,-37,12,-8,-29,1.370543855
10.400052,-19,-19,-3,20,114,18,10,-13,1.370543855
10.400065,-9,53,3,-10,42,3,-19,73,1.370543855
10.412676,29,-64,-7,5,22,79,16,-19,1.370543855
10.412704,19,10,-3,-10,-87,9,8,16,1.370543855
10.419466,-58,-6,-4,-17,-51,2,-6,15,1.370543855
10.419484,-6,-4,2,10,10,17,31,50,1.370543855
10.436766,4,8,3,-12,47,-20,2,28,1.370543855
10.436778,-38,-8,-1,16,-40,3,-2,-68,1.370543855
10.437225,35,-6,1,-2,34,8,-14,6,1.370543855
10.437232,-21,-16,-4,2,-56,11,11,-13,1.370543855
10.458621,-29,13,1,-2,50,-30,-6,-15,1.370543855
10.459065,14,10,3,-23,-13,-1,35,77,1.370543855
10.460397,-18,15,2,25,-46,-45,-22,-60,1.370543855
10.460402,-5,-18,4,27,62,-24,-2,-35,1.370543855
10.472228,0,35,0,-32,-62,48,8,-1,1.370543855
10.472252,4,-40,-8,-7,32,31,-26,-18,1.370543855
10.482032,18,15,-3,-4,-24,-67,22,9,1.370543855
10.482056,-28,-8,0,-14,-44,-27,-36,-77,1.370543855
10.495977,-17,-37,0,13,-16,59,9,12,1.382743468
10.496002,26,-13,0,17,34,-33,2,9,1.382743468
10.497970,17,26,-2,-5,-36,33,4,31,1.382743468
10.497983,36,-26,-6,-23,31,-3,14,-11,1.382743468
10.518355,-6,-2,-5,-10,-82,-56,-11,-36,1.382743468
10.518403,26,3,-8,-8,61,1,-10,32,1.382743468
10.520058,-55,-18,7,-7,39,26,-4,9,1.382743468
10.520074,9,23,0,-20,-51,19,10,40,1.382743468
10.531939,29,2,3,29,12,-15,3,37,1.382743468
10.531961,-23,3,-3,9,82,-20,-9,-1,1.382743468
10.541786,60,20,-3,-13,-61,38,12,29,1.382743468
10.541801,-80,-10,-2,-24,-22,-29,11,-21,1.382743468
10.555860,-26,-25,5,17,43,-6,-7,-20,1.382743468
10.555885,16,-18,0,-9,2,-16,5,-23,1.382743468
10.557441,2,-25,-4,7,27,-2,-8,7,1.382743468
10.557461,39,-13,0,-2,-41,25,16,-13,1.382743468
10.579966,-18,10,-4,-4,-56,4,-3,-19,1.382743468
10.579983,-22,-9,-7,-40,-78,-37,17,16,1.382743468
10.579987,13,6,1,7,18,15,-15,-5,1.382743468
10.579989,51,9,0,14,14,-22,2,11,1.382743468
10.592006,-10,5,-3,8,-9,-16,-2,-28,1.382743468
10.592025,44,-2,1,-16,-48,30,-20,-16,1.382743468
10.602205,-74,-14,-3,-2,-6,-22,5,-21,1.382743468
10.602212,15,15,4,3,62,19,11,11,1.382743468
10.615794,-38,-7,-9,38,127,-23,-2,33,1.382743468
10.615813,-8,2,2,-8,-66,-2,17,-13,1.382743468
10.617823,26,-20,0,-21,-58,28,16,-8,1.382743468
10.617839,-28,-1,-1,22,40,5,-23,-33,1.382743468
10.638417,37,62,-3,-34,-43,2,-4,-2,1.382743468
10.638442,-20,-9,-1,11,15,-32,3,4,1.382743468
10.640251,-3,-3,-1,14,31,17,-1,15,1.382743468
10.640258,2,17,5,-2,-45,18,21,13,1.382743468
10.652366,1,-6,5,-11,26,-14,-24,50,1.382743468
10.652384,2,40,0,18,27,11,-2,-10,1.382743468
10.662088,-39,-20,2,-7,-13,-15,3,8,1.382743468
10.662104,64,-26,-7,-8,-64,-11,-6,-17,1.382743468
10.675920,36,-4,-8,-4,-7,-52,-14,-10,1.382743468
10.675962,-6,-13,-4,28,-18,-17,19,19,1.382743468
10.677257,-14,2,5,-39,-37,-55,-19,60,1.382743468
10.677264,-17,-37,-8,5,55,-40,-5,66,1.382743468
10.698375,-12,-41,6,-19,-50,-10,10,-17,1.382743468
10.698402,18,32,3,22,-55,6,-22,21,1.382743468
10.700042,22,13,-4,-17,4,28,3,-31,1.382743468
10.700052,9,7,-8,-7,69,-1,-18,-4,1.382743468
10.712233,15,-5,-5,-8,-24,26,8,-2,1.382743468
10.712253,-15,-22,2,-16,23,16,3,9,1.382743468
10.721401,22,7,0,16,-1,-16,-2,7,1.382743468
10.721412,-32,34,17,19,-41,-17,5,-31,1.382743468
10.736159,26,-3,-3,24,114,51,2,-1,1.382743468
10.736169,28,2,-5,-16,-88,-4,3,-19,1.382743468
10.737291,-30,14,-6,-18,61,-15,-18,-19,1.382743468
10.737304,2,2,-4,5,-24,-49,11,73,1.382743468
10.758479,-23,17,10,7,-23,-73,6,-21,1.389710815
10.758512,13,-3,2,5,38,13,-7,4,1.389710815
10.760596,-17,-1,-1,7,-22,-6,-4,3,1.389710815
10.760602,-7,4,-1,-12,-19,48,9,15,1.389710815
10.772069,-20,-17,1,4,-7,-19,-2,-18,1.389710815
10.772088,48,38,3,19,110,45,1,-20,1.389710815
10.781749,11,-36,6,26,3,-5,-12,-39,1.389710815
10.781762,12,-30,-13,-31,-43,27,-4,-11,1.389710815
10.797092,-41,46,-3,-20,-60,-27,-19,-15,1.389710815
10.797112,-4,22,-2,-2,-61,15,-5,21,1.389710815
10.797364,-21,2,-1,-1,0,6,-6,-82,1.389710815
10.797374,33,32,4,6,36,21,3,44,1.389710815
10.818570,64,-29,1,4,-27,-25,0,54,1.389710815
10.818587,-42,-35,-10,-11,43,7,-1,-19,1.389710815
10.820460,4,23,0,16,9,3,8,40,1.389710815
10.820466,-5,5,7,-21,-117,-36,-18,-21,1.389710815
10.841228,-3,5,-5,31,79,36,28,71,1.389710815
10.841259,-12,-11,-3,-20,-101,-20,-13,-25,1.389710815
10.843515,26,2,-3,-4,75,40,-1,-1,1.389710815
10.843526,3,-7,3,14,107,7,8,-33,1.389710815
10.855873,-106,21,-1,-17,-96,4,6,14,1.389710815
10.855893,27,-47,-12,-13,3,-22,-13,-50,1.389710815
10.858459,37,-13,-9,0,-39,5,0,24,1.389710815
10.858472,-9,14,5,-10,17,8,-5,-6,1.389710815
10.878848,-13,19,6,-10,-12,-39,-18,-37,1.389710815
10.878867,-38,-13,2,8,15,19,19,-44,1.389710815
10.880004,0,3,4,11,0,33,-2,4,1.389710815
10.880030,-26,3,-3,25,4,-45,-5,8,1.389710815
10.900936,34,-26,-4,-31,-50,10,-3,-18,1.389710815
10.900957,40,9,-4,-19,-88,-2,1,3,1.389710815
10.902452,-74,-7,1,2,56,21,-9,25,1.389710815
10.902527,2,11,2,14,36,-38,-3,-66,1.389710815
10.915820,-34,-66,-9,-5,32,97,17,-4,1.389710815
10.915844,19,-2,1,3,1,-38,-1,14,1.389710815
10.917680,20,-2,-2,-22,-104,-27,8,46,1.389710815
10.917689,-19,-16,9,43,104,33,6,-6,1.389710815
10.938575,-4,21,-4,-14,-56,-41,-17,-19,1.389710815
10.938584,38,8,-3,20,91,-14,-1,-33,1.389710815
10.939857,-12,-11,-3,11,-27,-56,-25,-28,1.389710815
10.939874,-26,2,-2,-19,-11,16,4,-17,1.389710815
10.961135,32,15,4,-16,-75,34,7,5,1.389710815
10.961351,-47,20,6,17,127,-46,3,46,1.389710815
10.963966,36,6,-12,-37,1,-10,-3,14,1.389710815
10.963978,12,-7,-12,5,10,27,2,-11,1.389710815
10.976135,-33,7,0,8,24,12,-4,-10,1.389710815
10.976166,-16,1,9,5,16,-1,12,84,1.389710815
10.978898,22,21,2,-3,-85,-12,2,-68,1.389710815
10.978914,22,-13,-3,8,-72,3,1,9,1.389710815
10.998983,19,25,1,-7,52,-25,-27,-12,1.389710815
10.998996,-11,-6,1,-16,-76,-14,-9,62,1.389710815
10.999807,-43,-48,-2,26,58,-17,3,-45,1.389710815
10.999861,-19,6,1,-1,-59,11,-30,24,1.389710815
11.021000,28,-9,-3,-37,-27,-29,4,-9,1.396673652
11.021049,2,-27,-1,1,-17,12,-9,-11,1.396673652
11.022968,16,15,1,23,77,46,-2,26,1.396673652
11.022975,-17,3,-3,-4,-57,-32,9,-11,1.396673652
11.035136,11,-2,1,10,79,-28,-5,5,1.396673652
11.035154,-13,7,-3,-10,-73,23,12,0,1.396673652
11.042236,-8,3,7,-5,0,-36,11,-4,1.396673652
11.042268,37,-4,-3,3,-7,45,1,25,1.396673652
11.058680,-30,-28,0,14,-23,8,10,-13,1.396673652
11.058711,14,1,1,1,43,19,-13,-33,1.396673652
11.060753,26,-22,-8,2,-17,-12,4,-15,1.396673652
11.060764,40,13,-5,-8,42,42,-9,-28,1.396673652
11.081100,-20,-6,5,9,-31,6,-1,2,1.396673652
11.081269,-36,2,-2,-11,-83,4,7,-14,1.396673652
11.082276,-3,-4,-1,20,89,-13,-26,8,1.396673652
11.082287,-67,17,3,-17,6,24,26,15,1.396673652
11.095471,88,-4,-13,11,10,28,-13,-35,1.396673652
11.095503,-39,-19,6,-20,-52,-58,-23,-43,1.396673652
11.102027,11,11,-6,-6,36,56,-1,23,1.396673652
11.102045,-55,-3,-1,-17,-13,-18,-5,-12,1.396673652
11.118318,39,24,2,20,-9,-41,-37,-12,1.396673652
11.118334,-25,-3,-5,-6,5,43,18,25,1.396673652
11.119989,2,8,0,-15,-39,6,3,-38,1.396673652
11.120002,29,-43,3,-15,-53,-35,-9,57,1.396673652
11.140884,-18,0,0,3,-8,13,16,-1,1.396673652
11.140917,32,-5,-5,24,104,22,-14,12,1.396673652
11.142623,4,6,1,-14,40,4,21,-17,1.396673652
11.142652,-58,13,0,4,-76,-18,-12,-27,1.396673652
11.155055,32,-32,-6,-19,-87,-6,6,18,1.396673652
11.155095,36,15,11,46,-20,-23,5,14,1.396673652
11.162039,-61,-3,-3,-1,6,13,-8,10,1.396673652
11.162059,56,21,-8,-4,48,-8,-1,3,1.396673652
11.178561,-28,-8,-1,-20,-40,21,-1,4,1.396673652
11.178594,-9,-5,-1,-5,33,-12,-3,-13,1.396673652
11.180851,-18,-1,7,13,-94,-52,0,7,1.396673652
11.180869,4,7,8,17,81,29,26,52,1.396673652
11.200882,-56,-11,-3,-6,23,-82,-30,22,1.396673652
11.200937,26,5,-9,-23,-4,-5,-1,0,1.396673652
11.202344,1,-3,3,1,-2,9,-1,29,1.396673652
11.202365,-2,-13,-8,-1,-30,-17,-10,-17,1.396673652
11.215552,17,8,8,24,110,28,20,5,1.396673652
11.215578,-31,22,2,-44,21,13,1,-11,1.396673652
11.231251,52,20,-7,-19,-102,-81,-24,-1,1.396673652
11.231264,18,-6,5,17,15,-22,12,-18,1.396673652
11.238309,44,16,-1,-24,-28,-6,-2,21,1.396673652
11.238326,0,-28,-6,28,54,55,27,-15,1.396673652
11.239739,-56,10,-1,-14,-18,11,4,-40,1.396673652
11.239752,1,-6,1,6,-4,-7,-20,12,1.396673652
11.261285,-34,11,1,9,28,5,13,-54,1.386249675
11.261297,-4,0,-3,-5,-27,2,-7,-7,1.386249675
11.262503,28,-17,4,-6,-6,0,12,77,1.386249675
11.262546,-38,-27,-7,-1,-12,4,-3,-55,1.386249675
11.277389,-59,-1,-1,12,62,28,-9,-3,1.386249675
11.277412,42,-8,-13,-25,-60,-2,12,-3,1.386249675
11.282030,62,-5,-3,23,89,3,-10,-29,1.386249675
11.282055,-59,-10,-3,-32,12,55,-6,-11,1.386249675
11.298348,-6,25,6,10,-4,18,-10,29,1.386249675
11.298366,-28,-30,0,-2,-14,-33,-7,-46,1.386249675
11.299916,5,24,6,3,-24,38,-12,19,1.386249675
11.299943,29,9,-5,-25,8,-2,13,39,1.386249675
11.321065,50,0,-4,35,33,-22,-1,-13,1.386249675
11.321089,-33,16,-3,-17,14,-4,-9,7,1.386249675
11.323628,-23,-12,-3,11,-56,5,-1,-19,1.386249675
11.323639,22,-11,1,26,5,-16,-2,-22,1.386249675
11.335459,-26,-7,2,-26,18,-4,4,-29,1.386249675
11.335502,42,37,4,7,127,15,13,70,1.386249675
11.342404,-52,-5,-1,-27,-40,-16,43,23,1.386249675
11.342435,-27,21,-1,6,-42,-60,-7,-29,1.386249675
11.358906,25,-13,-8,-12,67,28,-20,29,1.386249675
11.358932,2,4,-1,13,-62,-70,4,-5,1.386249675
11.361527,1,8,0,-9,8,12,12,-5,1.386249675
11.361538,-1,12,2,-11,5,5,0,-32,1.386249675
11.381102,50,-31,-7,44,-16,-22,-1,-7,1.386249675
11.381120,14,-20,-2,49,46,-20,-26,-1,1.386249675
11.382817,50,-11,-6,-35,28,46,9,32,1.386249675
11.382827,-40,-20,-1,-1,39,-24,-4,-12,1.386249675
11.394663,-37,27,-1,-23,-72,-18,-4,-35,1.386249675
11.394688,-15,-34,2,-7,-45,33,2,0,1.386249675
11.403233,4,0,9,40,90,-21,-15,38,1.386249675
11.403269,-1,-4,-4,-11,5,25,-3,45,1.386249675
11.418373,25,10,-5,-33,13,-17,26,-33,1.386249675
11.418386,16,5,-3,-10,-41,42,-13,14,1.386249675
11.419753,-66,-76,-5,14,29,32,26,-15,1.386249675
11.419767,22,-8,3,15,-16,-51,-40,-25,1.386249675
11.440958,-25,11,3,17,50,37,-3,9,1.386249675
11.440976,-50,-4,-1,-9,-58,25,-17,4,1.386249675
11.442693,-11,6,-7,-34,-65,-22,-21,-10,1.386249675
11.442706,-8,3,-6,14,26,25,13,-1,1.386249675
11.454693,9,10,0,9,-29,3,11,43,1.386249675
11.454785,-11,1,4,-5,14,6,0,-36,1.386249675
11.465094,-27,46,6,3,-3,-7,-5,2,1.386249675
11.465107,78,-36,-8,-2,-18,-7,1,38,1.386249675
11.480943,18,-5,-6,-17,-69,-12,2,-6,1.386249675
11.480963,36,36,8,3,45,-2,-3,10,1.386249675
11.480970,12,-45,-15,-15,-97,-23,-21,-50,1.386249675
11.480975,28,17,11,25,45,-12,-2,42,1.386249675
11.501734,-2,11,3,1,2,-33,11,-15,1.386249675
11.501770,-9,-42,-9,11,-8,61,-27,41,1.386249675
11.504997,26,10,0,-8,-9,-53,12,-49,1.386249675
11.505007,-19,4,-8,-21,-3,7,-20,-5,1.386249675
11.514497,-27,-39,6,37,71,63,-1,38,1.385578178
11.514549,-21,14,5,-16,-72,-37,-10,-40,1.385578178
11.525636,-17,13,-3,11,-11,-7,-5,17,1.385578178
11.525643,15,8,0,-13,-4,1,10,-25,1.385578178
11.538502,-53,-11,2,-17,-64,-10,6,26,1.385578178
11.538526,21,-34,-12,6,63,-2,23,-9,1.385578178
11.540888,30,-9,5,40,101,-11,-5,23,1.385578178
11.540894,5,-16,-4,-44,-92,27,27,-10,1.385578178
11.560939,17,2,-3,-33,-68,21,-1,-22,1.385578178
11.560948,-2,22,5,33,5,22,20,33,1.385578178
11.562558,-46,-1,2,6,60,-4,-15,-47,1.385578178
11.562579,-14,11,0,11,-53,27,1,-3,1.385578178
11.574496,18,-26,-7,-10,26,-74,10,-39,1.385578178
11.574502,9,-7,2,-3,25,-34,-21,-19,1.385578178
11.584761,35,54,1,14,-65,11,7,32,1.385578178
11.584777,-36,17,4,-27,-32,-21,-7,-21,1.385578178
11.598326,3,-26,-12,20,2,0,-13,-70,1.385578178
11.598344,-82,14,-3,-24,19,-6,9,-15,1.385578178
11.600347,34,-9,-4,10,42,20,4,38,1.385578178
11.600365,51,-9,-1,-18,-59,-15,20,26,1.385578178
11.621085,0,43,4,7,10,-10,-15,-31,1.385578178
11.621095,-13,12,-1,8,-19,-86,14,-6,1.385578178
11.622168,-12,-12,3,-33,-11,14,-12,-21,1.385578178
11.622176,1,6,2,14,-5,0,-6,0,1.385578178
11.636360,-21,4,2,-2,1,10,-3,45,1.385578178
11.636369,27,8,0,-1,-16,29,3,-20,1.385578178
11.645183,9,-11,-2,-8,-20,2,10,28,1.385578178
11.645195,-13,3,-3,14,57,-35,-17,-20,1.385578178
11.658804,2,-9,2,-18,-101,13,-6,24,1.385578178
11.658835,-24,52,-2,12,22,3,-11,-52,1.385578178
11.660418,-21,-63,-9,-16,-11,-34,-6,11,1.385578178
11.660424,-9,-1,-2,3,-2,19,-8,6,1.385578178
11.682336,16,17,-4,-16,35,36,-3,62,1.385578178
11.682348,-8,-33,-2,-13,-28,-33,8,13,1.385578178
11.682351,17,46,3,8,7,-42,-18,-8,1.385578178
11.682407,-22,1,2,13,40,74,20,3,1.385578178
11.694968,-2,2,2,-7,-50,-38,13,-6,1.385578178
11.695001,-6,30,7,6,-13,42,-14,72,1.385578178
11.705282,-2,-49,-9,-14,27,55,-6,-74,1.385578178
11.705288,81,-24,-10,12,70,-113,-15,-11,1.385578178
11.718197,-82,37,6,15,17,40,-4,15,1.385578178
11.718218,9,-48,-1,-2,15,1,24,12,1.385578178
11.719741,-42,26,3,9,6,-6,-27,-24,1.385578178
11.719755,15,14,2,-1,-81,-9,6,24,1.385578178
11.741278,21,-14,0,-18,73,-12,14,-25,1.385578178
11.741303,30,-9,-7,18,3,-6,-13,-19,1.385578178
11.743444,38,36,-3,-15,-22,20,15,31,1.385578178
11.743455,-41,-61,-4,15,27,2,-9,-14,1.385578178
11.755242,25,18,-3,6,-8,13,9,15,1.385578178
11.755273,-18,-30,-3,-18,-45,-3,-6,-11,1.385578178
11.765291,25,11,2,7,49,-10,-2,-1,1.385578178
11.765301,-29,29,5,-17,-13,7,5,-16,1.385578178
11.778418,23,-9,-1,24,4,2,4,-28,1.405092154
11.778444,17,-6,-1,-5,15,-22,-20,40,1.405092154
11.780110,-5,-2,-1,4,-18,56,13,-9,1.405092154
11.780187,-61,-3,-3,2,-6,-29,2,39,1.405092154
11.801105,47,-15,-7,-52,66,28,0,11,1.405092154
11.802744,29,16,-8,-22,2,23,-18,-29,1.405092154
11.802756,10,8,3,18,-17,-67,8,24,1.405092154
11.802762,-30,-3,-1,8,30,0,0,-17,1.405092154
11.814599,-27,-10,0,-2,-59,-40,8,5,1.405092154
11.814626,13,12,3,5,1,51,-5,4,1.405092154
11.823849,5,24,2,-26,-13,7,8,-21,1.405092154
11.823859,-34,-12,-2,13,38,19,0,9,1.405092154
11.839588,-39,-17,1,22,3,-34,-11,17,1.405092154
11.839596,3,-37,-14,-44,-42,0,-12,-28,1.405092154
11.839675,-63,-4,-2,-1,53,9,9,2,1.405092154
11.839682,95,40,-3,-12,-14,27,-16,24,1.405092154
11.860925,-4,-17,-3,-16,-5,-31,5,-36,1.405092154
11.860945,-17,15,5,33,39,-6,20,5,1.405092154
11.862854,12,6,6,5,-49,7,9,111,1.405092154
11.862872,-6,-4,-3,-17,20,41,-6,-33,1.405092154
11.883371,-15,5,-3,0,-14,-4,-28,-37,1.405092154
11.883391,2,0,1,1,35,-19,24,46,1.405092154
11.885321,2,-5,3,-22,-106,-102,-36,1,1.405092154
11.885333,39,-18,-1,1,99,85,4,-16,1.405092154
11.898426,52,48,-8,-22,-17,-1,11,2,1.405092154
11.898445,52,-10,-9,-12,-28,-4,-30,-36,1.405092154
11.899812,-28,-42,-11,1,-5,-40,7,-28,1.405092154
11.899825,-10,13,6,-1,45,-33,0,30,1.405092154
11.920833,-10,66,9,32,-14,29,8,19,1.405092154
11.920853,-6,-38,3,0,22,-6,1,49,1.405092154
11.922216,12,5,3,14,16,44,0,-68,1.405092154
11.922232,-12,-11,-12,-33,-89,-47,-35,-40,1.405092154
11.943430,15,-5,3,6,21,51,5,77,1.405092154
11.943447,-23,-5,-3,-2,-17,-26,-9,0,1.405092154
11.945527,3,-10,0,27,1,23,12,1,1.405092154
11.945543,-17,-11,3,3,-35,-27,12,-39,1.405092154
11.958440,-12,-33,0,1,101,13,1,18,1.405092154
11.958667,-35,16,-5,-11,-19,85,1,-62,1.405092154
11.960906,42,-49,-9,-35,-37,35,3,59,1.405092154
11.960912,-18,23,4,32,29,-32,0,1,1.405092154
11.980891,-24,-16,-1,9,74,-13,10,-2,1.405092154
11.980910,-11,22,-1,-21,-44,-18,-28,-32,1.405092154
11.982412,12,-27,-9,9,10,-46,11,-38,1.405092154
11.982529,-9,13,0,-3,-53,11,13,18,1.405092154
12.003578,-2,-26,4,0,-24,-4,-17,-11,1.405092154
12.003602,12,8,1,11,18,-6,13,16,1.405092154
12.005411,-5,13,3,-5,-5,5,-12,-10,1.405092154
12.005423,-33,-41,-3,6,-23,-58,-1,15,1.405092154
12.017620,-9,2,-4,2,-116,47,-8,-44,1.405092154
12.017677,36,9,-13,-10,94,14,-5,-31,1.405092154
12.024560,61,-6,8,-13,41,5,-4,14,1.405092154
12.024578,7,-17,-5,-11,-30,-9,30,-9,1.405092154
12.040887,-51,-9,1,44,-7,2,0,62,1.402874861
12.040895,33,9,2,-11,-44,-95,1,-27,1.402874861
12.042244,-23,21,0,9,-6,30,-6,-6,1.402874861
12.042280,-10,-9,-3,4,30,37,2,18,1.402874861
12.063447,17,1,0,-18,18,-70,-16,-60,1.402874861
12.063465,-25,-24,2,6,-45,24,15,4,1.402874861
12.065079,54,-7,-6,14,6,-10,-1,80,1.402874861
12.065095,16,36,6,-26,20,17,5,-31,1.402874861
12.077946,13,-25,-1,7,-31,-51,-1,-2,1.402874861
12.077977,-57,-4,4,-14,69,22,-20,7,1.402874861
12.084731,-6,31,-1,4,-46,49,24,-34,1.402874861
12.084757,2,0,-4,6,-31,24,-18,17,1.402874861
12.102073,29,-10,1,-6,-33,0,0,61,1.402874861
12.102085,17,27,2,13,25,-9,20,6,1.402874861
12.102278,-62,-20,0,2,-13,-13,-3,-13,1.402874861
12.102289,10,17,-3,5,30,7,-6,7,1.402874861
12.123604,1,-3,1,-9,17,-14,-12,-15,1.402874861
12.123638,-46,34,2,12,-89,32,21,-4,1.402874861
12.125165,-32,5,-10,-41,-24,-70,-48,-16,1.402874861
12.125171,57,6,-6,22,115,50,5,56,1.402874861
12.137504,-41,-80,-10,-7,-18,-5,4,-10,1.402874861
12.137522,30,-6,6,5,-40,47,-1,103,1.402874861
12.144917,-22,23,3,28,-27,19,-3,-60,1.402874861
12.144939,1,-3,4,-18,3,-10,-3,-23,1.402874861
12.161307,6,17,1,-6,-6,-16,-11,-6,1.402874861
12.161349,-4,14,5,16,31,-14,2,-3,1.402874861
12.163952,0,-8,-2,-27,-6,-6,8,-3,1.402874861
12.163966,-12,0,1,7,-123,-35,-17,-10,1.402874861
12.183545,-15,13,1,3,8,49,15,-12,1.402874861
12.183608,-32,13,6,3,-98,-37,8,-22,1.402874861
12.184897,-15,31,-13,-28,21,19,-32,59,1.402874861
12.184917,65,-42,-4,-7,-54,-37,-24,-28,1.402874861
12.198648,-19,-13,-11,-22,99,111,10,30,1.402874861
12.200831,13,-21,6,20,-19,-101,-2,-14,1.402874861
12.208113,-12,41,3,15,25,1,-1,3,1.402874861
12.208124,-37,10,3,-3,-16,-9,2,14,1.402874861
12.221026,12,20,0,-9,-48,-36,-10,-8,1.402874861
12.221049,22,-20,-7,-4,49,27,0,-5,1.402874861
12.223482,-5,-16,-1,10,18,2,7,-60,1.402874861
12.223493,-22,3,2,-3,12,-4,3,-38,1.402874861
12.243584,31,12,4,9,-5,-15,2,18,1.402874861
12.243610,5,-14,-1,3,49,15,4,7,1.402874861
12.244863,61,73,9,23,-30,38,-3,-17,1.402874861
12.244885,-89,-73,-17,-13,101,-90,-25,10,1.402874861
12.257824,83,2,-11,-8,-61,29,8,-15,1.402874861
12.257866,6,-5,-4,-45,-5,13,-4,-7,1.402874861
12.264756,10,-7,3,39,25,-3,-1,42,1.402874861
12.264773,-4,25,10,35,90,19,-2,-4,1.402874861
12.280830,-7,18,2,-15,-32,-39,19,-14,1.398309581
12.280859,-12,34,-5,1,13,8,-3,-17,1.398309581
12.282499,-23,-51,2,-8,15,-4,13,-35,1.398309581
12.282510,17,20,1,-14,-80,31,13,37,1.398309581
12.311110,-53,-15,-4,10,-63,-6,-4,-34,1.398309581
12.311131,50,25,-3,6,56,-20,-7,-15,1.398309581
12.313349,-6,-15,2,-13,-11,38,31,83,1.398309581
12.313363,-10,4,-7,-16,-108,-39,-3,-50,1.398309581
12.317577,44,6,-1,-30,-98,-57,-7,-1,1.398309581
12.317595,19,-31,-8,20,-1,16,4,-3,1.398309581
12.324739,20,-19,-2,-13,-43,4,-25,-45,1.398309581
12.324774,-66,8,2,7,68,28,44,22,1.398309581
12.340769,34,3,-5,1,63,-4,-40,-1,1.398309581
12.340793,-10,-8,-1,-6,-24,-5,-2,-13,1.398309581
12.342217,-20,-13,-4,9,-14,-46,-3,-9,1.398309581
12.342234,49,2,3,-8,-48,23,21,-38,1.398309581
12.365106,-14,2,7,19,20,-1,7,34,1.398309581
12.365125,-68,-18,-7,18,-17,-58,-3,-14,1.398309581
12.365191,-8,-17,-9,-21,77,60,-20,16,1.398309581
12.365216,75,17,3,-20,-44,24,-13,-14,1.398309581
12.377031,-19,5,-1,2,-32,1,2,22,1.398309581
12.379426,-8,-3,5,6,-50,-36,-15,9,1.398309581
12.387806,23,7,1,-4,17,52,29,1,1.398309581
12.387816,-3,-9,-8,9,0,29,-12,16,1.398309581
12.400960,-25,-1,0,2,36,-24,3,-18,1.398309581
12.400985,18,-1,-2,-30,9,12,-6,14,1.398309581
12.402318,-22,-5,4,9,40,-43,14,-17,1.398309581
12.402331,-6,2,0,16,37,6,18,10,1.398309581
12.425945,-18,3,3,-21,-7,29,10,-5,1.398309581
12.425954,-31,-14,-2,49,-29,14,-9,-34,1.398309581
12.425957,12,-2,2,-54,53,-1,-5,78,1.398309581
12.425959,11,10,-4,-3,-11,-49,-9,28,1.398309581
12.437439,-13,5,6,18,39,0,6,14,1.398309581
12.437471,-33,-10,-1,-38,-21,19,9,-22,1.398309581
12.447484,-11,36,2,30,40,-6,-6,-29,1.398309581
12.447497,39,-18,-6,-13,-65,-7,0,-5,1.398309581
12.461278,-14,4,1,14,13,-59,-18,20,1.398309581
12.461394,25,1,-2,-17,-2,56,0,-36,1.398309581
12.462586,-8,-12,-4,11,-30,-13,-3,-6,1.398309581
12.462606,-32,-3,0,-9,22,19,3,4,1.398309581
12.483418,-27,-5,2,-1,31,-3,1,-8,1.398309581
12.485188,2,7,-5,-17,-17,-43,2,20,1.398309581
12.485203,-5,-56,-2,12,-47,-10,8,-17,1.398309581
12.485206,-12,6,-1,3,72,-12,-3,5,1.398309581
12.497068,-28,-45,-13,21,57,25,-16,-20,1.398309581
12.497086,-10,-1,-3,-26,-37,24,12,7,1.398309581
12.505744,6,16,2,-13,-52,-31,0,28,1.398309581
12.505753,-8,11,6,41,34,-25,6,-17,1.398309581
12.520812,1,32,-4,-9,-28,56,-4,-11,1.398309581
12.520847,-14,13,10,1,-25,-7,1,121,1.398309581
12.522248,-57,-39,-20,-20,-50,-15,-14,-81,1.398309581
12.522283,6,3,3,10,46,41,-8,10,1.398309581
12.543392,13,-17,-1,-22,-42,-7,10,14,1.395763301
12.543408,-9,3,2,29,90,9,-5,-42,1.395763301
12.546347,13,36,4,17,-74,8,3,9,1.395763301
12.546361,-3,-11,3,-19,9,9,-6,13,1.395763301
12.557226,28,32,-1,-11,22,-13,-9,-86,1.395763301
12.557243,62,-27,-8,7,-30,72,18,20,1.395763301
12.565920,-6,5,-5,5,-8,-100,-29,-6,1.395763301
12.565933,-76,-47,-4,-10,-47,50,11,-7,1.395763301
12.581680,102,-2,-6,2,10,-13,-9,17,1.395763301
12.581700,6,12,5,-8,-18,-1,13,-25,1.395763301
12.589360,-30,-11,0,16,58,19,2,-4,1.395763301
12.589367,-52,17,2,1,0,-5,-9,-2,1.395763301
12.603359,-3,10,7,-24,-52,-40,-2,-15,1.395763301
12.603381,-4,-34,0,30,22,38,3,25,1.395763301
12.605064,14,5,2,3,2,25,-5,-69,1.395763301
12.605070,3,-7,0,-25,-39,-24,-6,2,1.395763301
12.617251,-60,8,2,12,69,2,-26,28,1.395763301
12.617276,55,-31,-5,-6,12,-43,-6,-10,1.395763301
12.627888,-23,-23,-1,-18,-16,5,-1,7,1.395763301
12.627897,40,45,0,-11,-79,10,13,6,1.395763301
12.641210,-21,-23,-10,-6,84,78,4,-47,1.395763301
12.641243,21,55,6,7,-48,-57,-32,-31,1.395763301
12.643292,-72,-20,4,-9,-52,-9,11,51,1.395763301
12.643302,42,24,6,29,16,12,-3,-19,1.395763301
12.663576,31,-25,-9,-32,-74,-28,7,7,1.395763301
12.663601,30,-38,-8,34,72,-27,0,36,1.395763301
12.664936,10,23,6,-7,25,4,-15,14,1.395763301
12.666585,0,35,-2,-10,29,8,-2,-18,1.395763301
12.677281,-11,-1,2,28,-58,24,9,-8,1.395763301
12.677309,-24,33,3,-56,-72,-33,3,13,1.395763301
12.686309,22,-6,-9,32,14,32,30,47,1.395763301
12.686320,-16,-29,-2,3,49,-36,-13,22,1.395763301
12.701024,-5,50,6,-2,-47,3,-1,-8,1.395763301
12.701048,-8,-16,-1,13,9,-1,-6,-7,1.395763301
12.703339,-5,6,-2,-14,-14,4,5,-2,1.395763301
12.703351,-19,3,1,-9,2,12,8,-25,1.395763301
12.723390,28,-38,-9,19,-6,-9,20,20,1.395763301
12.723434,-25,12,2,-1,-23,-42,-1,17,1.395763301
12.724798,39,12,2,-7,-34,-5,14,8,1.395763301
12.724813,-1,5,-4,13,39,-10,-14,-17,1.395763301
12.736957,-37,12,6,-16,-96,11,-5,-78,1.395763301
12.736977,-3,-20,-10,-5,127,69,-7,9,1.395763301
12.747352,78,22,-5,-12,56,16,-4,-18,1.395763301
12.747364,49,-21,-7,-8,-59,-24,-10,23,1.395763301
12.760953,-53,2,8,50,40,-19,-2,-3,1.395763301
12.760971,-11,8,4,-4,0,15,-8,-11,1.395763301
12.763342,-30,4,1,5,-22,-9,-6,-20,1.395763301
12.763356,47,40,-1,-10,-12,35,-7,9,1.395763301
12.783290,-46,-40,-6,17,25,-15,-7,1,1.395763301
12.783304,-10,4,0,-11,1,-3,0,4,1.395763301
12.784739,-5,7,10,2,39,-6,-1,19,1.395763301
12.784752,6,-13,-9,7,9,-61,15,-33,1.395763301
12.805892,29,-15,-3,-26,114,-19,4,53,1.403050624
12.805912,-35,8,-4,-51,-9,-19,-23,-42,1.403050624
12.807987,15,-13,-4,12,58,-50,-13,-21,1.403050624
12.808000,13,-23,0,6,14,16,-1,-2,1.403050624
12.820817,5,10,1,-9,-75,18,24,28,1.403050624
12.820835,-38,-12,-5,-6,22,-20,7,20,1.403050624
12.822322,-4,3,1,10,18,20,-2,45,1.403050624
12.822376,-60,-30,-6,-9,-47,-15,-10,5,1.403050624
12.843422,-23,28,1,-26,13,-14,-5,36,1.403050624
12.843461,2,3,7,10,-13,9,8,-24,1.403050624
12.845868,-26,-21,-3,2,-42,10,0,-26,1.403050624
12.845882,30,5,1,16,-2,14,2,49,1.403050624
12.865918,9,34,6,-13,-22,-7,0,-20,1.403050624
12.865935,23,-9,-5,-20,-84,55,12,2,1.403050624
12.867378,-18,-10,-4,26,97,-56,4,-5,1.403050624
12.867399,21,8,1,-16,-70,-17,-12,-7,1.403050624
12.880267,2,-19,-7,-7,24,79,-25,-23,1.403050624
12.880285,16,19,-2,2,-80,-46,9,-30,1.403050624
12.887349,6,-6,-2,-8,-53,-4,10,24,1.403050624
12.887371,-25,-6,2,3,17,26,6,-43,1.403050624
12.904947,21,29,3,12,-40,-32,20,35,1.403050624
12.904969,-29,-17,-4,-9,44,11,-34,-33,1.403050624
12.907310,24,0,1,10,36,17,-11,-52,1.403050624
12.907320,-25,3,-7,2,19,-10,1,0,1.403050624
12.926001,-15,-1,-2,-6,-3,-5,-5,-1,1.403050624
12.926045,33,8,-2,20,52,1,9,6,1.403050624
12.927344,-45,31,7,-15,34,2,2,-21,1.403050624
12.927360,19,-26,-1,-51,-86,60,8,-8,1.403050624
12.940459,5,-65,-1,59,127,-64,-32,-8,1.403050624
12.940479,21,9,-2,-4,-55,23,15,14,1.403050624
12.947075,59,21,0,-6,-13,40,-3,72,1.403050624
12.947094,-15,-8,-1,2,42,-22,6,-5,1.403050624
12.963575,4,6,-2,-13,-45,14,-5,-18,1.403050624
12.963677,5,21,2,7,63,-34,3,45,1.403050624
12.965693,-52,-35,-3,-33,-98,-16,-10,-38,1.403050624
12.965708,10,38,-1,41,32,21,3,-12,1.403050624
12.986158,31,-17,3,-15,-10,2,19,47,1.403050624
12.986170,-26,17,9,31,-23,-55,5,24,1.403050624
12.987220,8,-6,-5,-24,-11,45,-10,7,1.403050624
12.987256,4,15,1,-15,-20,-22,5,17,1.403050624
13.001298,33,-12,-11,15,98,-39,-39,-13,1.403050624
13.001309,-85,-1,5,-7,-75,53,10,-14,1.403050624
13.007225,97,-52,-8,12,13,-47,-5,-2,1.403050624
13.007257,-72,-15,-1,-21,6,20,-18,-18,1.403050624
13.023675,-6,23,-8,-18,-19,30,23,18,1.403050624
13.023776,48,-7,1,-2,20,2,-2,-5,1.403050624
13.025523,-22,10,-2,3,-18,18,-6,-10,1.403050624
13.025531,-19,-1,3,-3,21,-15,-5,22,1.403050624
13.048213,-60,-15,3,-1,-9,-5,4,-39,1.403050624
13.048225,32,-11,-10,-7,40,10,-6,-8,1.403050624
13.048228,-7,28,5,-7,-27,-6,10,8,1.403050624
13.048231,6,-22,-4,13,-24,-28,-2,17,1.403050624
13.060623,-27,5,-6,-17,7,39,15,21,1.397155870
13.060646,26,-16,12,47,-24,-26,-20,106,1.397155870
13.067083,62,9,-16,-24,2,49,-8,-12,1.397155870
13.067100,-5,-20,-3,-16,4,2,-29,2,1.397155870
13.083265,2,6,0,11,-5,-12,-9,-24,1.397155870
13.083282,-54,-1,0,-8,9,0,2,-16,1.397155870
13.084848,19,38,11,2,-67,0,7,-5,1.397155870
13.084870,-37,-46,-7,18,42,-8,-3,-13,1.397155870
13.105945,13,1,-1,-16,-26,16,14,-3,1.397155870
13.105969,55,31,-2,-8,16,2,-8,-16,1.397155870
13.108000,-8,-34,-1,9,-8,-1,12,-9,1.397155870
13.108014,41,39,2,3,10,1,-1,1,1.397155870
13.120378,-54,-64,-13,-38,34,-49,-5,2,1.397155870
13.120402,5,49,14,51,-4,21,19,-9,1.397155870
13.126982,-26,-68,-14,-8,41,-69,-29,28,1.397155870
13.127005,91,32,1,37,107,64,34,-23,1.397155870
13.143809,30,7,5,-29,-89,7,-7,14,1.397155870
13.143818,-8,22,-9,-20,-10,-10,2,-33,1.397155870
13.144715,13,1,-8,-13,-8,-18,-13,5,1.397155870
13.144732,3,-4,3,-1,-57,-38,-9,9,1.397155870
13.166481,10,19,9,32,5,17,-3,16,1.397155870
13.166506,27,-1,-1,-9,69,-3,3,-48,1.397155870
13.168021,-10,38,6,10,-35,6,5,-9,1.397155870
13.168037,-31,-19,-3,-46,-51,6,6,-10,1.397155870
13.180326,29,52,0,54,95,15,3,-14,1.397155870
13.180352,2,10,-2,1,-58,-8,7,14,1.397155870
13.187117,-92,-3,4,-11,101,9,-3,30,1.397155870
13.187134,43,-20,-12,-17,-107,-15,26,21,1.397155870
13.203714,-6,-3,-8,-13,57,33,-10,-55,1.397155870
13.203753,11,-11,1,-22,23,-43,-9,22,1.397155870
13.206011,-51,1,-1,43,-42,19,9,11,1.397155870
13.206020,7,17,5,1,-54,-14,-8,-5,1.397155870
13.226138,-58,30,12,31,60,47,7,-5,1.397155870
13.226162,-60,-107,-25,-41,-30,-15,-28,-8,1.397155870
13.228908,40,-13,-2,-16,-46,9,12,44,1.397155870
13.228925,-5,-32,4,11,32,-20,-20,0,1.397155870
13.240525,15,-15,-1,-11,-81,-17,8,11,1.397155870
13.240552,-14,14,4,6,23,12,0,-11,1.397155870
13.247017,17,41,5,4,23,16,2,-75,1.397155870
13.247041,-69,-32,-1,17,45,2,5,9,1.397155870
13.263455,82,10,2,-1,-40,-21,5,18,1.397155870
13.263476,-21,-33,-17,-56,7,37,-11,-66,1.397155870
13.265382,44,19,13,12,-29,-59,-5,16,1.397155870
13.265395,-32,-33,-11,33,100,-2,-9,-6,1.397155870
13.285770,9,1,-2,-10,-55,-17,17,16,1.397155870
13.285785,-45,-48,-2,-8,-18,-16,-8,-15,1.397155870
13.287297,12,4,2,0,5,30,5,59,1.397155870
13.287337,-3,46,5,-5,-11,13,-2,-3,1.397155870
13.300414,-1,-11,-2,-7,-35,-29,-9,16,1.397155870
13.300424,18,2,1,14,10,7,8,17,1.397155870
13.309496,-26,6,-4,-1,8,3,3,-28,1.390107402
13.309510,10,4,-1,-3,-17,-10,-6,3,1.390107402
13.323786,3,-15,-2,-6,-11,2,-3,8,1.390107402
13.323818,17,11,13,16,-29,-6,-6,3,1.390107402
13.325324,-80,38,-3,-40,-76,65,17,54,1.390107402
13.325339,85,3,-13,-12,13,-6,-26,-46,1.390107402
13.346129,-45,-10,-4,20,-5,-40,-17,77,1.390107402
13.346156,2,6,-2,-6,23,64,22,-26,1.390107402
13.348762,-14,0,2,12,1,-41,-20,-50,1.390107402
13.348776,12,34,9,-11,10,12,16,32,1.390107402
13.359894,1,14,-1,-6,-52,16,2,-15,1.390107402
13.359926,-34,-26,-1,12,65,-27,-17,-8,1.390107402
13.368768,27,-8,-2,-20,7,1,8,-32,1.390107402
13.368810,-28,12,-1,18,22,7,7,5,1.390107402
13.383318,2,-17,0,18,3,-7,-7,-40,1.390107402
13.383344,-15,8,1,-26,-79,-49,-2,39,1.390107402
13.384928,7,4,6,7,-62,44,-2,-37,1.390107402
13.384945,-18,9,1,12,7,-9,12,38,1.390107402
13.406541,-16,-50,-8,-41,-9,21,-44,-34,1.390107402
13.406584,42,41,-1,20,-16,-24,10,-9,1.390107402
13.408831,-36,-56,-8,7,8,-39,-23,51,1.390107402
13.408847,1,31,3,-27,-33,14,-1,9,1.390107402
13.420353,21,27,5,9,10,13,17,1,1.390107402
13.420376,-13,-2,1,7,13,30,-7,-59,1.390107402
13.430491,28,7,2,7,72,-24,-5,9,1.390107402
13.430504,-18,6,4,6,-36,1,6,-35,1.390107402
13.450904,7,18,0,-12,50,-3,7,28,1.390107402
13.450930,-74,-31,-3,9,-99,31,3,31,1.390107402
13.452516,31,2,-13,-12,-20,-31,-17,15,1.390107402
13.452537,87,-16,-3,-14,53,-32,4,-2,1.390107402
13.465881,-17,-15,-2,4,-40,-18,-10,-27,1.390107402
13.465996,-1,17,4,-28,43,-17,0,24,1.390107402
13.467781,8,-40,3,19,-44,29,14,-41,1.390107402
13.467790,-55,9,2,0,-14,-68,-10,-12,1.390107402
13.479602,64,-8,-9,-17,-44,49,-12,-9,1.390107402
13.479621,42,1,0,21,88,-9,14,8,1.390107402
13.489168,-18,12,-9,-25,18,-23,-7,-22,1.390107402
13.489176,-11,-6,0,0,-7,13,-3,-6,1.390107402
13.504805,-34,-3,5,5,22,2,11,-16,1.390107402
13.504817,-6,16,-3,-15,-97,-18,-29,-22,1.390107402
13.504820,17,-19,0,20,87,27,3,-44,1.390107402
13.504822,8,-40,-6,-1,-18,3,-9,23,1.390107402
13.526139,-24,15,2,1,5,-43,-10,-31,1.390107402
13.526226,-28,19,4,8,28,73,-10,10,1.390107402
13.528513,-2,-39,-9,-12,69,-31,11,3,1.390107402
13.528527,64,-2,-6,-30,22,78,1,35,1.390107402
13.539650,7,-20,-1,-7,38,-5,21,-1,1.390107402
13.539674,-4,22,5,30,-12,-69,-7,-1,1.390107402
13.550228,33,43,6,16,16,25,23,31,1.390107402
13.550242,-48,15,7,6,-3,15,-20,5,1.390107402
13.563449,14,-22,-6,-4,-24,-47,1,9,1.377407545
13.563475,10,3,-9,-18,-8,0,2,37,1.377407545
13.564898,-24,-16,-4,2,-29,6,-5,-61,1.377407545
13.564994,-7,1,0,-1,-18,-40,-3,-8,1.377407545
13.585740,-20,28,5,18,-4,8,-5,24,1.377407545
13.585770,7,5,2,1,53,-3,-1,-4,1.377407545
13.587188,-3,-6,1,21,-94,-30,9,36,1.377407545
13.587280,-23,-8,-1,-14,96,52,1,-3,1.377407545
13.599471,16,47,1,-20,-100,-71,0,-13,1.377407545
13.599493,38,-78,-11,19,70,66,-18,55,1.377407545
13.610269,4,22,-2,-10,28,38,63,-7,1.377407545
13.610276,-8,2,6,15,-26,-13,-11,4,1.377407545
13.623412,2,2,-2,-16,-12,36,8,-6,1.377407545
13.623432,32,33,2,-5,32,-51,0,-20,1.377407545
13.625108,-87,-10,-4,25,-51,-21,-6,-46,1.377407545
13.625115,-9,-6,-1,7,-17,0,10,-11,1.377407545
13.646475,-19,-11,-2,-12,-5,16,-23,5,1.377407545
13.646495,-59,11,1,7,-15,4,8,-26,1.377407545
13.647340,75,-32,0,33,35,6,-17,-3,1.377407545
13.647367,-49,19,-1,-40,-9,-22,2,-5,1.377407545
13.661183,-18,3,-3,-1,-19,22,-22,-2,1.377407545
13.661193,-28,-32,-6,-2,-61,23,28,-42,1.377407545
13.668663,23,-3,1,-10,37,-30,-32,26,1.377407545
13.668673,-2,12,3,29,3,9,2,-31,1.377407545
13.683388,-12,-5,-1,-4,-66,-70,-1,-6,1.377407545
13.683416,-5,20,3,5,21,-16,-10,5,1.377407545
13.684952,46,4,-1,-30,2,14,-3,-11,1.377407545
13.684964,-4,-17,-6,2,-41,-33,-11,11,1.377407545
13.707820,0,4,-2,29,68,10,4,-5,1.377407545
13.707831,43,-17,1,-2,-22,-23,9,16,1.377407545
13.707834,-55,38,-2,-23,-33,8,-10,8,1.377407545
13.707837,6,-41,-8,-5,-51,-42,-3,7,1.377407545
13.720048,37,21,-5,-13,47,84,0,-2,1.377407545
13.720080,54,-12,-3,20,1,87,11,68,1.377407545
13.730229,-30,21,-1,-17,8,-77,8,44,1.377407545
13.730241,11,29,9,-5,-33,24,-17,15,1.377407545
13.743592,-1,62,3,4,20,-9,5,0,1.377407545
13.743618,-56,-47,-4,-7,-34,43,16,-15,1.377407545
13.745938,34,17,0,8,117,40,-9,-5,1.377407545
13.745957,-8,6,-2,15,-52,-1,12,56,1.377407545
13.765737,18,1,3,11,18,-22,4,-14,1.377407545
13.765756,-38,10,-1,-28,-9,-18,-17,-37,1.377407545
13.767560,51,-21,-2,-6,0,35,-12,1,1.377407545
13.767572,-27,-9,-1,11,-10,-10,8,-27,1.377407545
13.788265,-6,6,3,7,25,11,-8,-1,1.377407545
13.788278,-14,0,0,-29,-8,-32,15,-15,1.377407545
13.789912,21,-5,-2,-7,-12,10,3,15,1.377407545
13.789949,6,-34,-12,-7,25,-7,-13,-60,1.377407545
13.803493,4,-26,0,3,-59,1,12,19,1.377407545
13.803510,6,35,7,5,24,-46,-4,16,1.377407545
13.804815,-47,21,7,18,-14,26,-7,-8,1.377407545
13.804831,22,-22,-7,-15,-46,-36,6,-2,1.377407545
13.825863,-109,-34,-14,6,20,7,-27,-20,1.376961382
13.825882,64,-11,-6,-26,65,29,-32,-14,1.376961382
13.828013,-41,25,2,4,25,-29,28,62,1.376961382
13.828024,53,11,5,5,19,45,-18,5,1.376961382
13.848336,-22,-1,4,-1,32,18,11,-19,1.376961382
13.848354,-4,-13,-7,4,-51,-17,1,-4,1.376961382
13.849779,-19,19,5,1,29,-22,-5,3,1.376961382
13.849874,-17,4,3,-32,-55,-7,8,-12,1.376961382
13.864914,4,12,-2,6,72,34,13,9,1.376961382
13.864928,16,-22,3,31,90,-17,-6,-6,1.376961382
13.865008,-77,-42,0,-4,-40,-52,-9,-31,1.376961382
13.865023,37,-25,-12,-13,27,65,29,28,1.376961382
13.885840,-4,-41,-12,-16,-14,13,-13,-20,1.376961382
13.885863,4,32,2,-16,-46,-88,25,0,1.376961382
13.887433,16,2,-2,23,48,61,-11,7,1.376961382
13.887500,-34,-6,-3,-3,35,-22,-6,-7,1.376961382
13.908637,-18,17,4,30,-28,-38,4,25,1.376961382
13.908668,-3,1,-2,-21,-52,0,9,-32,1.376961382
13.911307,30,-16,-2,1,-16,-2,-14,-17,1.376961382
13.911320,11,84,8,20,24,6,2,96,1.376961382
13.922344,-13,-33,2,-17,-33,-14,4,15,1.376961382
13.922367,59,3,-1,21,39,26,-3,-10,1.376961382
13.930324,52,-15,-8,-21,-29,-40,-13,-42,1.376961382
13.932034,-75,27,6,17,-38,-30,-20,-14,1.376961382
13.945102,93,-40,-15,-6,45,-23,-9,-6,1.376961382
13.945133,-45,25,1,-44,-122,20,-1,13,1.376961382
13.945900,-20,-23,3,6,-13,2,13,4,1.376961382
13.945926,-20,-14,-3,4,117,68,7,-27,1.376961382
13.976447,-17,-1,5,-8,-59,-52,-2,20,1.376961382
13.976720,7,-34,-3,36,34,-4,-10,-14,1.376961382
13.976729,21,27,3,-13,-96,-21,5,-7,1.376961382
13.976737,7,-6,-2,4,19,40,-8,-14,1.376961382
13.981988,-8,13,11,2,-1,-57,7,-3,1.376961382
13.982006,100,3,-10,-4,19,19,2,-19,1.376961382
13.990396,23,4,-5,-11,-19,-27,-14,75,1.376961382
13.990439,-26,-51,0,19,15,-6,7,-4,1.376961382
14.005646,18,-2,0,-12,15,35,1,-29,1.376961382
14.005660,-54,30,5,15,26,-15,-5,39,1.376961382
14.006292,-23,-24,-1,-13,83,24,-6,-20,1.376961382
14.006465,66,17,-6,16,50,-51,8,-7,1.376961382
14.027919,-21,13,1,-60,-34,-18,28,-47,1.376961382
14.028005,7,11,-2,63,48,78,-4,-9,1.376961382
14.030826,3,-17,-3,-10,-44,14,7,3,1.376961382
14.030839,-6,-21,-9,12,41,-45,-19,7,1.376961382
14.042141,10,-29,0,-11,-11,4,5,-7,1.376961382
14.042166,-25,50,9,2,3,-2,3,29,1.376961382
14.051494,44,-1,-9,-15,-13,1,6,-27,1.376961382
14.051505,-26,4,3,-3,-44,-5,-4,-34,1.376961382
14.065096,56,17,5,45,16,4,-21,32,1.376961382
14.065115,-13,-17,0,-35,33,10,10,-5,1.376961382
14.066820,6,18,1,15,-39,-2,-3,67,1.376961382
14.066834,-81,-6,-1,-69,-128,16,4,-16,1.376961382
14.088090,37,0,-9,34,44,3,-38,41,1.389151985
14.088112,-79,-55,-10,-35,-43,-10,-35,-70,1.389151985
14.090145,38,17,3,43,43,-44,19,54,1.389151985
14.090157,14,-20,-3,-23,-97,-9,-11,96,1.389151985
14.102009,-6,5,-2,-1,43,77,22,34,1.389151985
14.102028,-11,-4,3,6,9,-80,10,24,1.389151985
14.110614,-69,2,2,-27,-23,-1,-27,-47,1.389151985
14.110636,86,58,0,36,61,39,2,-22,1.389151985
14.125682,-56,5,-1,-17,-60,14,-7,-22,1.389151985
14.125713,35,-2,-7,23,76,-4,-11,-5,1.389151985
14.127845,9,-1,-3,-16,-20,19,22,-30,1.389151985
14.127858,44,29,4,-2,14,-27,-6,-25,1.389151985
14.147645,-37,-22,-1,5,29,-1,1,-18,1.389151985
14.147727,-11,1,2,-3,-38,2,12,35,1.389151985
14.148386,-19,10,2,-28,-43,-2,-25,-26,1.389151985
14.148400,39,9,2,44,86,-20,18,17,1.389151985
14.162052,-40,-17,1,-37,7,-10,17,39,1.389151985
14.162076,61,-21,-3,6,21,36,-7,16,1.389151985
14.170096,-48,5,0,6,26,-93,8,4,1.389151985
14.170113,-10,-34,-1,-29,-57,13,22,27,1.389151985
14.185159,-6,22,5,9,41,17,-11,-11,1.389151985
14.185179,-14,2,-2,-8,54,-55,1,-5,1.389151985
14.186049,27,-17,-3,4,53,54,10,-48,1.389151985
14.186054,-118,28,13,21,29,39,-5,-11,1.389151985
14.209746,122,-14,-23,-30,-35,-32,-11,-29,1.389151985
14.209763,-64,-32,-2,-16,-50,7,-7,6,1.389151985
14.209769,-6,38,2,0,-22,46,-30,-67,1.389151985
14.209774,11,-24,2,32,21,-64,19,27,1.389151985
14.222349,-11,21,7,-5,-21,14,4,25,1.389151985
14.222380,28,29,3,10,-21,-4,-3,-33,1.389151985
14.230258,-9,-26,-6,0,-3,22,-17,-9,1.389151985
14.232079,16,-43,-3,8,44,-6,-9,-37,1.389151985
14.253419,21,-7,-5,15,-47,12,-1,-7,1.389151985
14.253445,38,0,-4,-45,-30,16,12,4,1.389151985
14.254775,-38,41,10,32,91,-38,-5,20,1.389151985
14.254793,32,-18,-8,-15,-7,-29,-16,-23,1.389151985
14.267753,-10,-15,-2,5,-45,11,26,-8,1.389151985
14.267774,-10,6,-2,-2,54,45,-45,8,1.389151985
14.268861,-7,-9,-7,-4,-65,-10,2,-8,1.389151985
14.268872,-26,-26,-5,-8,5,28,25,59,1.389151985
14.281933,-62,8,9,-2,-71,-27,11,20,1.389151985
14.281953,0,7,-1,2,-20,10,8,-16,1.389151985
14.290658,2,-6,1,10,-6,16,-7,3,1.389151985
14.290689,9,7,3,6,-11,-17,-3,20,1.389151985
14.305804,43,-1,-13,-24,-32,-3,-6,-74,1.389151985
14.305822,-44,-6,-3,9,-107,-20,15,23,1.389151985
14.305824,60,-48,-5,14,127,21,17,84,1.389151985
14.305827,-40,-12,0,-34,-69,-22,-11,-91,1.389151985
14.327785,-19,15,2,18,-22,50,-4,10,1.389151985
14.327810,-15,-2,-3,1,9,26,4,-16,1.389151985
14.329209,25,3,0,-10,-71,-14,10,12,1.399476816
14.329232,-24,-3,-9,-15,-6,44,-19,-16,1.399476816
14.341972,-21,-24,-1,21,63,-40,-2,-1,1.399476816
14.341989,-17,-3,1,6,19,-18,-9,2,1.399476816
14.350309,-33,-16,-4,-8,-71,-4,1,-25,1.399476816
14.350327,18,-1,0,-11,47,-11,-6,-1,1.399476816
14.365941,-2,33,0,8,38,9,8,-10,1.399476816
14.365952,17,14,6,-2,-39,-6,-5,23,1.399476816
14.365955,-33,-25,-13,-60,12,10,-6,56,1.399476816
14.365958,47,-10,-3,48,59,4,25,2,1.399476816
14.387721,-14,-5,-15,-11,6,-19,-35,26,1.399476816
14.387745,-8,0,-1,-18,-9,-26,10,12,1.399476816
14.388937,0,13,9,24,49,42,15,-46,1.399476816
14.388946,7,50,1,-24,-63,-41,-27,-11,1.399476816
14.402277,-14,-9,0,-42,-2,-29,12,4,1.399476816
14.402302,39,12,1,40,15,2,-12,-30,1.399476816
14.410525,-27,-15,2,33,23,-10,7,-12,1.399476816
14.410550,-27,25,-4,-24,18,19,0,4,1.399476816
14.425512,70,2,1,0,-18,-14,-18,13,1.399476816
14.425535,-43,27,3,-15,-11,-3,4,-11,1.399476816
14.427321,-19,-7,-2,2,9,-2,-9,-4,1.399476816
14.427328,17,-5,4,-6,-51,-28,1,-1,1.399476816
14.447732,-14,34,7,14,-2,44,6,6,1.399476816
14.447749,-39,-58,-9,-5,43,-6,17,-7,1.399476816
14.448492,16,0,-1,11,121,-29,8,-4,1.399476816
14.448505,13,5,7,-12,-25,62,-4,-7,1.399476816
14.462115,-18,-7,-3,33,24,-18,32,61,1.399476816
14.462207,43,-5,0,0,48,-10,-25,-9,1.399476816
14.470100,-31,29,-13,-8,-45,-23,-5,-21,1.399476816
14.470121,-3,-30,1,6,19,9,15,-4,1.399476816
14.485319,19,-17,11,21,13,1,-19,3,1.399476816
14.485344,13,30,-2,-14,-67,36,10,-9,1.399476816
14.487567,2,-38,-6,-17,-26,-16,-11,-54,1.399476816
14.487574,32,20,-5,-7,-6,8,-13,10,1.399476816
14.507512,-40,14,1,3,44,5,24,-38,1.399476816
14.507521,-20,-20,0,6,69,-5,-12,-4,1.399476816
14.508332,21,5,3,-3,-90,1,7,17,1.399476816
14.508367,-22,-9,-3,-4,33,-26,11,-47,1.399476816
14.522837,19,3,-1,-3,7,2,-4,38,1.399476816
14.522874,19,-4,3,12,69,1,8,17,1.399476816
14.530575,7,2,-8,-19,43,-19,-4,2,1.399476816
14.530599,-4,-41,2,26,-46,-26,18,26,1.399476816
14.545293,-36,-4,-3,-12,81,21,-52,-34,1.399476816
14.545385,86,11,2,19,-63,30,45,1,1.399476816
14.548066,33,-27,-10,-42,-56,27,-9,47,1.399476816
14.548078,-112,35,-5,11,92,19,-13,-22,1.399476816
14.568537,81,-46,-12,-19,-26,-58,-10,-29,1.399476816
14.568549,-37,-1,2,-14,-59,-10,-9,-21,1.399476816
14.568552,-13,28,9,21,-5,4,-3,-16,1.399476816
14.568554,-5,5,-3,-10,-14,13,-2,35,1.399476816
14.581971,-54,57,7,12,-29,23,4,-57,1.399476816
14.581988,26,-30,-5,-3,4,-20,7,32,1.399476816
14.590416,10,4,1,16,16,9,-7,-21,1.403253422
14.590445,14,-11,-3,-34,9,-12,-3,2,1.403253422
14.605254,-7,36,4,4,-24,-18,-4,0,1.403253422
14.605272,73,7,-12,30,-23,60,11,-4,1.403253422
14.606910,-77,26,2,-37,89,-28,-26,6,1.403253422
14.606921,101,-12,-10,-21,-98,-21,-4,18,1.403253422
14.627733,61,-52,-4,-3,27,18,1,20,1.403253422
14.627758,-17,-4,3,2,-18,-38,-23,-18,1.403253422
14.630397,10,22,4,13,37,17,25,63,1.403253422
14.630411,-39,25,1,14,-16,15,-7,-27,1.403253422
14.642265,-19,-26,1,-10,-32,-30,1,-12,1.403253422
14.642300,-19,20,0,-23,-13,4,3,26,1.403253422
14.650233,-1,4,3,29,36,17,2,-34,1.403253422
14.650255,-4,-6,2,13,4,-17,0,-8,1.403253422
14.665188,-11,-31,-2,6,-6,-16,5,23,1.403253422
14.665202,-58,-9,-3,-50,0,74,-10,-44,1.403253422
14.665975,103,28,2,8,-7,-3,-14,-67,1.403253422
14.665992,-88,-30,-3,12,14,-31,9,-46,1.403253422
14.688133,40,8,2,-11,-31,0,-13,26,1.403253422
14.688157,-59,3,-3,-7,5,-49,-23,-46,1.403253422
14.689924,79,-33,-7,-11,-55,10,1,-7,1.403253422
14.689932,-16,27,-4,-6,-64,16,-16,12,1.403253422
14.710233,-8,-18,-9,-5,18,40,9,34,1.403253422
14.710242,-58,-25,2,45,80,-112,-10,-2,1.403253422
14.710842,-23,11,4,1,-35,17,9,7,1.403253422
14.710926,39,-13,0,-17,-3,-10,-10,8,1.403253422
14.725076,-41,5,2,17,9,14,10,-24,1.403253422
14.725093,35,15,2,0,-35,-16,0,84,1.403253422
14.726692,11,-19,-11,-37,-69,-32,5,-10,1.403253422
14.726698,2,10,6,77,76,93,12,16,1.403253422
14.747572,-2,-7,1,-8,1,-32,-12,3,1.403253422
14.748956,26,-11,-2,-33,61,100,7,8,1.403253422
14.748965,-78,11,7,35,-60,-55,20,38,1.403253422
14.748967,-53,-25,-9,-22,104,15,4,-13,1.403253422
14.771953,34,9,-4,-12,-8,41,25,-47,1.403253422
14.771963,2,10,-2,5,-32,-77,-15,32,1.403253422
14.771965,-62,0,2,-7,-8,71,3,38,1.403253422
14.771968,33,7,10,-5,-29,-29,5,4,1.403253422
14.787214,34,-13,-7,1,29,-7,1,21,1.403253422
14.787223,-17,4,-2,6,-29,3,15,-66,1.403253422
14.787226,-34,-20,4,-3,6,-10,-7,11,1.403253422
14.787228,49,25,4,-3,-16,-16,-2,29,1.403253422
14.807683,-35,-39,-3,5,8,3,-10,5,1.403253422
14.807713,-34,-38,-7,16,-22,-7,-9,-30,1.403253422
14.808945,14,15,1,-2,-36,-14,-9,-22,1.403253422
14.808950,23,-6,-7,28,26,7,-14,-29,1.403253422
14.832244,-53,36,11,-3,98,9,12,-6,1.403253422
14.832256,9,-3,2,-15,-77,-50,-7,0,1.403253422
14.832260,57,-24,-1,41,72,-52,9,-15,1.403253422
14.832264,-13,15,-2,-40,-53,14,9,22,1.403253422
14.844988,-11,22,8,-3,-26,-11,9,-25,1.379192196
14.845013,-9,47,5,-2,27,46,7,32,1.379192196
14.847769,-12,-39,-7,4,-8,-8,-9,-4,1.379192196
14.847787,-40,0,1,-15,-23,-2,11,-37,1.379192196
14.867610,25,0,-1,3,-31,-21,-5,0,1.379192196
14.867630,46,20,2,-2,-7,24,-5,-15,1.379192196
14.868365,-54,75,2,-8,-13,27,14,99,1.379192196
14.868384,-75,-105,-10,-6,13,7,-3,-28,1.379192196
14.891092,-20,23,4,25,-4,-59,-11,-26,1.379192196
14.891108,67,-67,-24,-20,12,-10,-3,13,1.379192196
14.892951,-16,12,-3,9,61,-10,-16,-19,1.379192196
14.892964,1,17,8,5,29,44,2,-10,1.379192196
14.905452,12,10,1,-4,-11,62,9,14,1.379192196
14.905477,-8,18,5,13,35,-35,-6,13,1.379192196
14.907398,18,3,3,-2,-87,23,11,-21,1.379192196
14.907404,49,9,1,-31,37,-61,-12,3,1.379192196
14.928337,-56,-13,-9,-13,-19,52,5,-5,1.379192196
14.928351,7,-5,2,28,65,10,1,4,1.379192196
14.928354,7,-15,-3,5,-21,-8,-9,-54,1.379192196
14.928356,-7,-58,-2,-4,-32,4,-4,6,1.379192196
14.950216,-6,3,-1,6,-11,-4,-5,-12,1.379192196
14.950238,6,17,2,-7,-48,12,16,24,1.379192196
14.951349,10,-40,-9,-22,40,-30,-34,-50,1.379192196
14.951359,-30,31,-1,12,-43,-35,-4,-34,1.379192196
14.965232,76,-6,-13,-11,64,7,-5,7,1.379192196
14.966620,-59,-40,-2,-31,-67,23,-20,-29,1.379192196
14.966627,31,20,14,19,46,-65,12,42,1.379192196
14.966630,39,32,0,9,-50,-2,-15,8,1.379192196
14.987791,-33,7,4,0,-1,2,-3,11,1.379192196
14.989436,-77,47,11,-19,-50,9,19,9,1.379192196
14.989454,103,-64,-16,4,73,16,-24,-28,1.379192196
14.989459,10,-9,1,15,31,-5,3,-2,1.379192196
15.010407,9,12,0,18,-5,-41,-10,15,1.379192196
15.010426,-29,-19,-1,-6,-20,-17,5,-10,1.379192196
15.010949,-40,0,-4,-18,-47,62,5,0,1.379192196
15.010964,25,5,-2,-5,17,-33,-10,7,1.379192196
15.025200,-14,0,1,10,-7,13,13,12,1.379192196
15.025254,20,9,-4,13,95,-30,0,-3,1.379192196
15.025828,-27,5,6,-9,-36,84,12,2,1.379192196
15.025844,12,27,-8,-2,97,-77,-17,88,1.379192196
15.047932,-13,5,-1,-40,-34,1,13,-4,1.379192196
15.047951,-9,-2,-1,-4,47,-8,-1,18,1.379192196
15.049623,52,-29,-8,7,-36,-33,-4,-54,1.379192196
15.049645,-8,15,-1,-6,5,37,13,-7,1.379192196
15.069979,38,-6,5,26,11,-25,-11,19,1.379192196
15.069990,12,-47,-8,-13,-36,-19,5,-82,1.379192196
15.070670,-35,6,-3,20,105,58,-18,54,1.379192196
15.070760,4,-21,1,-8,-52,24,1,-1,1.379192196
15.085098,-32,-26,-2,-13,41,-18,8,-44,1.379192196
15.085121,10,39,7,3,-33,-19,-1,-1,1.379192196
15.086294,6,26,4,-1,-28,-24,10,14,1.379192196
15.086305,-40,-9,-3,-9,-95,-13,2,-30,1.379192196
15.108149,57,13,3,8,-24,-10,0,-2,1.382995843
15.108173,-3,-31,-13,38,96,98,-3,30,1.382995843
15.115151,-40,14,-2,-42,-125,-73,-3,-25,1.382995843
15.115168,62,36,-6,-24,-2,2,-4,-19,1.382995843
15.130801,0,9,-5,34,-50,-19,8,16,1.382995843
15.130820,-4,-15,-1,2,-26,6,-20,-20,1.382995843
15.131067,-49,16,6,-16,4,-9,10,-13,1.382995843
15.131082,55,-18,-5,-23,-5,44,12,27,1.382995843
15.145380,-5,-9,-5,32,24,-23,-19,-75,1.382995843
15.145412,36,10,7,0,-19,2,-7,49,1.382995843
15.147788,-25,28,0,-2,29,32,6,18,1.382995843
15.147801,-28,3,5,-4,-43,-69,-21,-17,1.382995843
15.167987,0,-28,-3,-14,-94,45,-3,-11,1.382995843
15.168019,19,20,0,13,-28,-57,7,8,1.382995843
15.169552,3,-11,1,-3,104,75,6,-12,1.382995843
15.169557,-2,23,8,37,-20,18,28,25,1.382995843
15.191778,-43,-11,0,-22,-16,23,-13,15,1.382995843
15.191791,-32,-13,-1,20,-42,-4,0,4,1.382995843
15.191797,12,6,-1,-10,-45,-39,-2,-8,1.382995843
15.191802,4,-16,-6,5,7,0,-26,-18,1.382995843
15.206924,31,1,-1,-15,45,-2,-9,20,1.382995843
15.206933,-6,9,-1,-40,-41,23,7,28,1.382995843
15.206935,31,-4,1,37,25,-8,4,38,1.382995843
15.206937,-53,-37,-5,1,51,6,-7,-24,1.382995843
15.227666,55,30,1,-10,-83,-21,2,10,1.382995843
15.227690,-84,20,7,-12,19,-17,-12,-32,1.382995843
15.228753,-2,1,-15,7,-2,23,3,-11,1.382995843
15.228772,41,-17,-5,-19,40,12,11,4,1.382995843
15.250307,-8,-17,2,-9,53,28,-2,29,1.382995843
15.250331,21,22,2,12,67,16,12,11,1.382995843
15.252622,-14,-7,2,-22,-110,-96,-3,-17,1.382995843
15.252634,-47,17,1,38,74,50,11,3,1.382995843
15.265144,-17,-14,2,0,-8,70,0,14,1.382995843
15.265162,38,19,-8,-12,-6,-35,-7,-14,1.382995843
15.265998,-12,-28,-4,-8,-5,-7,-8,-3,1.382995843
15.266024,29,24,3,-4,-11,-10,-1,0,1.382995843
15.287587,-52,16,-1,-2,22,-31,-1,-42,1.382995843
15.287630,-7,-5,-5,17,-22,24,-22,21,1.382995843
15.288327,14,9,-1,-23,40,-43,24,58,1.382995843
15.288409,5,-15,-1,-14,49,45,-19,-9,1.382995843
15.310454,-55,53,5,16,54,-15,10,25,1.382995843
15.310486,50,-49,-5,-14,-34,-7,1,-14,1.382995843
15.313162,-14,7,-1,19,37,45,-7,-17,1.382995843
15.313175,29,5,7,34,-38,-82,-2,98,1.382995843
15.324567,-43,26,0,-20,-53,-2,9,-35,1.382995843
15.324590,58,-31,-16,-7,2,15,25,-15,1.382995843
15.332645,-59,-29,2,0,5,30,-20,16,1.382995843
15.332667,-11,31,3,-5,-62,-23,10,-35,1.382995843
15.348468,8,-26,-9,-13,38,66,-5,19,1.382995843
15.348483,9,36,3,21,15,-50,15,-5,1.382995843
15.348486,16,-15,-6,4,0,38,6,40,1.382995843
15.348488,-18,-13,-1,-64,-67,-18,-17,-12,1.382995843
15.370431,-14,-31,2,50,29,-2,12,28,1.375550788
15.370465,65,60,3,-14,4,12,-14,-6,1.375550788
15.372619,-36,-25,-11,-2,49,-19,6,-70,1.375550788
15.372625,-5,28,-2,-11,28,-11,-17,-14,1.375550788
15.394881,17,-25,-10,-37,39,17,0,-12,1.375550788
15.394894,-16,19,13,39,-36,-72,-41,20,1.375550788
15.394897,14,16,4,5,8,-37,9,-33,1.375550788
15.394899,0,-86,-13,19,-34,65,34,-25,1.375550788
15.409466,21,3,-1,3,-7,-53,-42,-6,1.375550788
15.409473,-53,10,-7,8,74,70,8,-4,1.375550788
15.409475,19,49,12,21,-20,22,14,12,1.375550788
15.409478,-5,-34,-7,-9,63,-63,-21,-43,1.375550788
15.430413,19,2,0,3,-58,8,9,33,1.375550788
15.430430,-39,-3,1,-42,-30,0,20,-39,1.375550788
15.432161,52,-6,-4,-19,-40,8,-5,-21,1.375550788
15.432173,-7,27,0,45,-15,32,-2,33,1.375550788
15.444661,-17,-9,1,-3,-44,-64,-10,-9,1.375550788
15.444681,21,-13,-2,1,-21,21,-1,-1,1.375550788
15.453050,-79,-23,0,-25,4,0,-9,27,1.375550788
15.453082,22,16,10,15,-1,17,2,-23,1.375550788
15.467826,26,9,-7,-39,16,-13,16,-7,1.375550788
15.470719,-20,-85,-1,23,-67,-19,-34,9,1.375550788
15.470733,1,-8,-3,-45,-33,-20,-9,-12,1.375550788
15.470736,-14,39,11,13,60,34,16,48,1.375550788
15.490231,16,17,-3,11,-41,-34,-10,-57,1.375550788
15.490266,72,-19,-5,-6,-31,24,19,56,1.375550788
15.491045,-54,33,-7,-23,-55,33,-5,-30,1.375550788
15.491116,-15,-46,-5,6,-33,-63,2,42,1.375550788
15.504530,38,-4,4,17,73,23,-1,53,1.375550788
15.506004,-17,22,6,-15,-55,-3,21,23,1.375550788
15.512978,25,-8,-2,31,82,-17,-18,14,1.375550788
15.513019,-16,55,6,-7,-4,43,3,27,1.375550788
15.527567,-18,-42,-5,-15,-5,-26,-1,-49,1.375550788
15.527614,-11,-24,-1,2,36,13,-11,9,1.375550788
15.530418,0,-36,4,7,5,4,15,18,1.375550788
15.530430,11,14,0,8,-80,-37,-37,-49,1.375550788
15.551676,1,-9,-13,-18,91,71,10,38,1.375550788
15.551687,-1,8,-3,-21,-26,-102,-52,3,1.375550788
15.551690,21,13,6,-2,-38,37,7,-30,1.375550788
15.551692,-6,-15,-6,3,103,34,40,13,1.375550788
15.565741,-36,-10,2,-8,-56,-22,-8,1,1.375550788
15.565755,-51,9,-6,10,61,34,5,-39,1.375550788
15.572900,51,7,-6,10,4,-20,-6,25,1.375550788
15.572934,-6,6,2,-17,-51,-23,-13,-27,1.375550788
15.587934,8,22,1,11,-67,-1,3,-14,1.375550788
15.589807,-59,-16,0,-20,76,21,8,-8,1.375550788
15.589820,56,7,-2,8,-19,-45,-14,-36,1.375550788
15.589826,6,-11,-4,-2,-51,26,-24,20,1.375550788
15.610339,9,12,2,-2,36,-15,-15,38,1.400540395
15.610369,-2,23,1,-10,-70,-6,7,-40,1.400540395
15.612251,-28,-40,1,41,89,-3,1,-1,1.400540395
15.612264,16,18,-1,-36,3,6,0,-43,1.400540395
15.633001,-1,-33,3,37,21,10,18,-14,1.400540395
15.633020,46,11,-7,-27,-98,-26,-8,17,1.400540395
15.634139,-45,-7,3,26,1,13,27,24,1.400540395
15.634156,27,15,-1,-19,-58,-7,3,-1,1.400540395
15.647681,-1,-26,-1,-7,-8,-3,-8,-25,1.400540395
15.647700,7,-4,0,7,44,12,16,-3,1.400540395
15.648671,-13,-29,-2,-7,-48,39,-8,-6,1.400540395
15.648678,-28,-18,-5,-3,17,-12,-1,5,1.400540395
15.670322,69,15,1,-11,-51,-19,2,12,1.400540395
15.670346,-79,12,2,14,71,17,4,7,1.400540395
15.672683,100,33,0,-15,-82,-15,-10,38,1.400540395
15.672689,-19,-22,-4,0,-29,-39,0,-84,1.400540395
15.693406,-34,0,-4,-10,123,38,-1,7,1.400540395
15.693415,-19,-52,-2,-7,-47,28,-26,-3,1.400540395
15.694052,-24,54,0,19,49,-16,-19,-55,1.400540395
15.694093,43,-5,5,-4,75,-21,14,32,1.400540395
15.707728,-26,1,-6,-13,-75,49,10,10,1.400540395
15.707737,-37,-2,-6,14,13,36,-2,-14,1.400540395
15.708313,56,5,-5,-37,14,-24,-20,-20,1.400540395
15.708391,-48,-43,1,33,41,60,13,31,1.400540395
15.730324,-60,28,4,2,-57,-51,-15,-15,1.400540395
15.730351,43,2,-3,-9,50,13,-1,14,1.400540395
15.731988,-19,28,2,16,18,10,5,9,1.400540395
15.731996,5,-13,-3,-2,-12,-30,-11,19,1.400540395
15.754800,19,16,3,-2,-5,42,0,14,1.400540395
15.754808,-22,-12,-2,28,33,-77,-2,-36,1.400540395
15.754811,17,1,7,-34,-116,-9,2,13,1.400540395
15.754813,2,11,-4,1,15,16,30,22,1.400540395
15.769180,-4,-7,-1,-14,-64,-104,-11,-30,1.400540395
15.769191,4,55,8,-7,-65,1,-13,8,1.400540395
15.769194,32,-51,-6,-28,65,-45,-15,48,1.400540395
15.769196,-8,13,-1,29,36,49,16,-19,1.400540395
15.790585,32,-26,-3,-44,-93,-9,1,-21,1.400540395
15.790612,-5,15,0,34,98,38,21,25,1.400540395
15.792836,-48,-5,-2,-15,-64,-5,1,-7,1.400540395
15.792843,45,26,-5,-7,7,-6,-14,-19,1.400540395
15.813457,7,-7,-1,3,-4,9,6,106,1.400540395
15.813475,26,-17,-2,6,4,0,5,-42,1.400540395
15.815607,-24,-15,1,3,-24,13,-4,-8,1.400540395
15.815622,-79,-40,0,-27,7,-16,-4,1,1.400540395
15.827629,33,-2,-7,13,53,12,11,-20,1.400540395
15.827649,0,2,1,-12,-14,29,1,1,1.400540395
15.829469,-11,-10,0,1,44,26,10,26,1.400540395
15.829491,-2,16,-1,-9,24,-69,-27,-24,1.400540395
15.850070,-13,17,5,32,-10,-18,3,-21,1.400540395
15.850094,9,-27,5,-5,4,6,14,2,1.400540395
15.850784,-54,2,-5,28,91,9,1,4,1.400540395
15.850803,12,12,0,-4,-42,56,-2,33,1.400540395
15.873667,-10,-19,-7,-2,93,-40,-7,9,1.399355134
15.873699,7,-7,-8,-4,-58,-46,7,-63,1.399355134
15.874827,15,18,6,-11,19,63,1,-64,1.399355134
15.874832,-68,-50,0,-3,-56,-49,-14,21,1.399355134
15.887843,29,31,4,22,54,1,-7,-15,1.399355134
15.887867,33,8,1,-25,-56,17,16,39,1.399355134
15.890153,-14,-9,-4,27,-39,-39,-43,-36,1.399355134
15.890164,21,34,-6,9,66,17,0,-8,1.399355134
15.910190,-34,31,9,-3,-119,0,-15,-67,1.399355134
15.910230,-38,-5,-3,-7,96,45,2,-17,1.399355134
15.910876,70,15,-2,8,3,-79,10,-15,1.399355134
15.910917,-24,-37,-8,-9,95,50,-8,18,1.399355134
15.933322,5,-20,-6,-17,5,25,-26,-50,1.399355134
15.933340,43,0,1,-12,-20,0,10,16,1.399355134
15.934978,-23,13,1,24,-7,13,-1,11,1.399355134
15.934991,47,23,-4,16,-61,33,0,-16,1.399355134
15.948023,5,-8,1,-29,-1,-55,16,9,1.399355134
15.949577,-6,-20,-6,4,-35,-8,-20,16,1.399355134
15.949590,6,25,5,-2,9,10,20,34,1.399355134
15.949593,30,17,7,4,-57,-30,2,30,1.399355134
15.970402,-76,-28,-13,-38,-54,62,-44,-12,1.399355134
15.970456,21,35,2,18,8,-106,5,36,1.399355134
15.970637,-21,-35,-2,-13,11,25,-1,-1,1.399355134
15.970644,14,-1,2,4,20,9,4,-6,1.399355134
15.993496,-19,3,3,15,24,-7,7,-1,1.399355134
15.993509,-1,2,3,-13,-69,8,23,-11,1.399355134
15.994876,-22,2,-10,12,-34,17,2,27,1.399355134
15.994890,28,-17,-4,-4,-5,-25,1,-52,1.399355134
16.007632,62,23,-2,26,7,23,-7,33,1.399355134
16.007653,2,-24,1,2,31,-46,-4,-15,1.399355134
16.009029,-2,-10,0,-1,23,4,4,31,1.399355134
16.009034,4,63,1,-21,-47,26,6,13,1.399355134
16.030224,-13,-7,-2,13,-56,-20,10,-6,1.399355134
16.030287,1,11,12,31,112,7,-12,-4,1.399355134
16.031915,93,-8,-12,-38,-114,-25,0,66,1.399355134
16.031925,-55,-7,-4,-3,40,17,-17,-37,1.399355134
16.053580,9,-13,3,4,44,1,15,53,1.399355134
16.053609,-14,7,-3,-37,45,-3,-23,-12,1.399355134
16.054336,-24,-1,5,0,-104,-43,17,-8,1.399355134
16.054354,13,-18,1,9,18,26,13,-1,1.399355134
16.067744,-6,10,2,17,42,31,19,9,1.399355134
16.067759,48,-24,0,20,-5,-19,5,102,1.399355134
16.068488,-48,20,1,4,0,-11,1,-23,1.399355134
16.068548,25,-29,-8,-21,-46,-37,-4,-13,1.399355134
16.090436,-107,6,7,-8,32,-2,-3,-8,1.399355134
16.090460,50,12,-13,-12,-98,24,-5,-45,1.399355134
16.092653,-22,-8,-2,-5,22,-14,-26,-23,1.399355134
16.092659,-8,6,12,36,-6,-20,20,15,1.399355134
16.113409,-1,23,4,0,90,-32,-10,-3,1.399355134
16.113422,-53,-38,-13,-15,-30,23,-29,-17,1.399355134
16.114044,25,-35,-7,14,-12,-1,24,-8,1.399355134
16.114063,19,9,9,19,33,-10,3,-16,1.399355134
16.129366,13,19,-3,2,-30,-25,-29,-8,1.384284760
16.129385,-8,-4,-1,2,27,11,3,5,1.384284760
16.129388,3,11,5,8,-62,-12,-2,14,1.384284760
16.129390,29,-1,-1,-26,24,36,-2,20,1.384284760
16.150201,-62,17,-4,8,-26,7,11,10,1.384284760
16.150226,-4,-34,-2,-10,27,-41,12,-1,1.384284760
16.151400,-27,-7,3,-10,-21,16,1,2,1.384284760
16.151406,28,12,-2,2,24,-38,-6,17,1.384284760
16.175561,34,-4,-4,-15,-58,30,3,12,1.384284760
16.175570,-1,33,4,-12,-10,39,-1,14,1.384284760
16.175573,-29,-1,6,33,118,14,-4,-46,1.384284760
16.175575,34,-20,-9,-50,-100,-43,4,7,1.384284760
16.187798,15,-30,-15,-6,106,44,-3,15,1.384284760
16.187829,4,55,2,-9,22,-36,23,41,1.384284760
16.189985,-26,-36,5,12,29,0,7,-16,1.384284760
16.189995,-7,21,4,13,-26,9,-18,-6,1.384284760
16.210271,-1,-25,-2,-2,-36,-38,2,-14,1.384284760
16.210288,-2,4,-1,5,-41,56,5,-11,1.384284760
16.210970,-29,33,4,-20,0,17,-17,-31,1.384284760
16.210985,-14,-4,-12,-11,32,9,-2,-2,1.384284760
16.233388,-13,-25,2,-8,-32,-3,3,-13,1.384284760
16.233412,52,-7,-1,21,11,-16,-10,15,1.384284760
16.234853,23,22,-5,-42,-33,19,9,-2,1.384284760
16.234872,-52,-9,0,20,30,11,-4,-14,1.384284760
16.247028,32,5,6,32,70,2,19,25,1.384284760
16.247046,24,3,1,-6,-61,-66,-35,-67,1.384284760
16.255501,32,-18,-18,-29,58,87,-23,24,1.384284760
16.255533,-6,-40,-4,-20,55,-51,6,26,1.384284760
16.270201,6,16,6,9,-120,1,4,-38,1.384284760
16.270217,-78,5,7,11,77,-38,2,26,1.384284760
16.270911,63,-20,-1,7,-8,-27,3,-21,1.384284760
16.270926,-56,34,1,1,-27,-32,-11,7,1.384284760
16.293439,59,-14,-5,-9,-30,-2,9,23,1.384284760
16.293463,-75,-13,-3,0,22,47,-7,-13,1.384284760
16.296102,-35,13,5,0,-24,-37,0,12,1.384284760
16.296117,10,15,-2,8,17,26,-1,-71,1.384284760
16.307424,70,-3,0,20,-48,-32,-16,1,1.384284760
16.307455,-19,-41,-8,2,34,48,-1,1,1.384284760
16.315215,4,18,-2,-41,1,-55,11,-19,1.384284760
16.315235,-6,14,-1,-7,-41,52,13,7,1.384284760
16.331095,19,23,1,36,-19,38,-10,-11,1.384284760
16.331108,-7,-28,-3,0,-118,-35,-11,-7,1.384284760
16.331111,-21,-1,1,17,45,10,25,11,1.384284760
16.331113,21,-18,-2,-13,-24,6,-19,16,1.384284760
16.353866,-8,16,0,3,62,-8,28,-14,1.384284760
16.353909,10,4,2,2,-14,6,-17,10,1.384284760
16.355832,-17,12,-5,10,9,8,-13,10,1.384284760
16.355848,21,-12,3,0,-38,-12,33,29,1.384284760
16.367116,-13,-9,-5,-12,30,15,0,17,1.384284760
16.367140,-28,2,2,-1,19,11,14,-30,1.384284760
16.377559,53,-7,-2,4,26,-10,-9,8,1.385835062
16.377567,-39,-1,7,18,76,-73,-27,11,1.385835062
16.390308,-17,-25,-13,-33,-72,48,0,-3,1.385835062
16.390327,-3,0,2,-27,52,-1,-6,5,1.385835062
16.392841,97,72,-5,15,-58,-8,3,25,1.385835062
16.392859,-94,-68,4,16,-19,-4,-23,-13,1.385835062
16.413433,12,38,0,-25,41,9,0,79,1.385835062
16.413455,-2,-8,-3,6,74,13,5,20,1.385835062
16.414226,-28,10,4,-17,-57,-1,-21,-9,1.385835062
16.414239,41,13,-7,14,4,22,12,-3,1.385835062
16.427052,-5,-19,1,-14,1,-34,-22,-29,1.385835062
16.427074,-29,27,-4,-21,-71,5,14,-32,1.385835062
16.435129,-14,-83,1,10,20,-2,-2,19,1.385835062
16.435149,67,18,-6,1,-1,25,10,-3,1.385835062
16.450175,-45,-40,0,-4,27,-7,-5,-44,1.385835062
16.452283,23,39,3,5,-29,-70,-9,6,1.385835062
16.452291,-8,-10,-1,7,20,55,-7,-39,1.385835062
16.452293,4,4,-5,-18,-34,-40,-8,2,1.385835062
16.473410,39,-10,-2,27,37,41,1,-21,1.385835062
16.473466,35,-4,1,5,-36,-46,6,0,1.385835062
16.474162,-36,13,0,3,-13,-9,2,-8,1.385835062
16.474231,-60,15,5,-14,30,48,12,39,1.385835062
16.486817,61,-5,-4,19,-35,-30,0,42,1.385835062
16.486828,-3,-45,-3,-1,67,51,-4,-22,1.385835062
16.495897,-14,17,-4,-1,15,0,11,47,1.385835062
16.495933,-3,2,-1,-23,-102,-9,-18,-34,1.385835062
16.510351,-71,5,4,-8,-6,-18,4,-33,1.385835062
16.510368,-4,6,1,17,-4,22,8,-19,1.385835062
16.512127,-31,40,4,-3,33,-32,-10,4,1.385835062
16.512142,62,-11,-9,14,97,83,3,-13,1.385835062
16.533450,5,-27,-2,-54,-43,8,-30,9,1.385835062
16.533490,30,17,1,28,-16,-3,14,55,1.385835062
16.533940,-47,7,6,23,10,48,3,-27,1.385835062
16.533950,14,-3,-5,-22,-36,-61,-13,-15,1.385835062
16.555908,-18,-6,-4,11,111,79,-2,25,1.385835062
16.555925,12,22,5,-16,-71,11,-1,15,1.385835062
16.558096,34,-14,-8,15,77,17,19,52,1.385835062
16.558109,2,-23,8,21,-50,-25,-25,-9,1.385835062
16.570281,-8,-29,-3,-13,11,-31,7,-14,1.385835062
16.570307,-49,-21,0,-2,12,-17,-6,9,1.385835062
16.572546,5,-1,2,-4,-13,-4,5,-5,1.385835062
16.572555,4,-1,-5,2,21,25,2,-68,1.385835062
16.595493,-27,23,0,-17,-35,-57,7,26,1.385835062
16.595515,-60,-5,-5,26,97,36,0,42,1.385835062
16.595520,38,-33,-5,-39,4,-32,6,-10,1.385835062
16.595526,10,-1,-9,30,21,45,-2,7,1.385835062
16.615888,-22,47,3,-18,-5,7,-36,-48,1.385835062
16.615908,17,-13,-4,-8,-80,46,9,-33,1.385835062
16.617792,-12,-12,1,5,11,-52,-18,-31,1.385835062
16.617804,-7,48,8,-2,-25,45,32,66,1.385835062
16.630485,26,-19,-1,8,-8,-9,18,19,1.385835062
16.630547,27,11,1,-6,20,-16,-22,-22,1.385835062
16.631061,-1,-28,-6,6,-57,8,-13,9,1.385835062
16.631119,3,28,3,-34,-108,-23,-2,-56,1.385835062
16.653692,9,2,-1,36,23,-4,10,-18,1.378439578
16.653725,23,-17,-2,-15,5,-25,16,-4,1.378439578
16.655634,-17,-30,-6,6,28,1,-8,-11,1.378439578
16.655640,-21,3,-3,11,68,6,-5,18,1.378439578
16.675918,-94,18,4,-25,38,-27,5,-9,1.378439578
16.675964,99,-17,-12,7,-109,-22,7,-22,1.378439578
16.676634,18,5,2,0,-92,-13,12,-9,1.378439578
16.676673,3,-8,-3,1,48,9,-16,20,1.378439578
16.690184,-37,-16,-2,7,-78,-41,-7,16,1.378439578
16.690226,-55,9,3,-19,40,55,-8,-41,1.378439578
16.690789,-6,3,9,6,-16,20,4,9,1.378439578
16.690832,40,-27,-4,20,37,-16,-1,6,1.378439578
16.713731,41,-18,-4,-23,-88,7,2,36,1.378439578
16.713748,12,57,0,29,116,-9,-3,3,1.378439578
16.715456,-82,-18,-4,-26,-108,-42,-19,-10,1.378439578
16.715468,4,4,-2,-10,32,-2,-2,15,1.378439578
16.735946,-10,36,2,5,19,-27,8,-49,1.378439578
16.735957,-25,-30,-3,-4,-51,24,4,-22,1.378439578
16.737471,7,9,-1,-10,17,-61,0,-2,1.378439578
16.737496,-17,19,7,18,31,-12,25,19,1.378439578
16.750115,-3,0,-3,-4,-21,2,-15,-69,1.378439578
16.750124,20,6,0,-2,34,28,-11,-3,1.378439578
16.750770,4,6,-3,-8,-4,-9,-8,16,1.378439578
16.750859,-11,-6,4,1,-87,3,11,8,1.378439578
16.781409,27,-18,-10,-19,21,34,14,10,1.378439578
16.781421,-78,16,8,46,54,-56,2,26,1.378439578
16.781712,-30,-17,-4,-6,117,62,1,6,1.378439578
16.781719,11,-23,-15,-31,-43,-44,-13,-45,1.378439578
16.797514,57,-5,1,13,4,-6,17,-18,1.378439578
16.797527,-24,-19,-5,-30,-48,-3,12,1,1.378439578
16.797530,-2,21,9,-9,-27,-13,-2,-21,1.378439578
16.797532,-28,17,7,19,10,33,-2,24,1.378439578
16.810690,-3,-3,3,18,12,9,7,1,1.378439578
16.810723,30,8,0,-25,-27,-20,-11,-11,1.378439578
16.813265,15,8,-1,7,-2,37,7,-47,1.378439578
16.813278,-4,1,0,-12,-62,-86,-41,-22,1.378439578
16.833550,-20,-3,11,-12,-69,1,8,-29,1.378439578
16.833572,51,-37,-13,-13,70,3,10,65,1.378439578
16.834915,67,-9,-17,8,106,-1,-34,-90,1.378439578
16.834930,-33,-20,-1,-2,-79,-11,-26,17,1.378439578
16.856167,49,-3,-1,10,127,22,7,29,1.378439578
16.856199,-27,25,5,-12,-8,-5,-4,13,1.378439578
16.859074,-10,11,6,10,-25,13,15,-12,1.378439578
16.859081,10,4,0,-7,16,-10,8,-9,1.378439578
16.870733,-25,0,-7,10,-3,-9,-9,19,1.378439578
16.870764,10,-3,4,9,-30,20,2,-15,1.378439578
16.873297,8,-5,-2,2,-7,-1,0,33,1.378439578
16.873308,-11,6,-4,-10,11,14,6,6,1.378439578
16.893616,-8,0,0,-9,-40,8,-8,10,1.390418368
16.893640,10,3,7,26,23,1,-6,-32,1.390418368
16.894118,-16,0,0,4,-115,-72,-15,16,1.390418368
16.894132,-94,12,6,-9,67,58,10,-31,1.390418368
16.915844,78,-13,-21,6,33,-37,15,17,1.390418368
16.915863,-26,-31,-11,-39,-35,-30,-31,-17,1.390418368
16.917645,-32,14,2,-8,15,27,17,5,1.390418368
16.917656,22,1,7,9,0,11,6,6,1.390418368
16.929505,-1,21,2,1,-25,-11,-6,-13,1.390418368
16.929523,-4,15,1,-24,-7,-13,-17,61,1.390418368
16.939425,4,5,6,26,102,50,18,-17,1.390418368
16.939433,-20,3,-4,-9,-57,-28,18,76,1.390418368
16.953391,4,-16,-3,9,9,7,-24,11,1.390418368
16.953446,-18,-32,-6,18,6,-1,7,-28,1.390418368
16.954786,5,12,-2,-30,-106,-8,-5,37,1.390418368
16.954801,4,27,2,13,93,-24,4,-69,1.390418368
16.976152,-19,-1,5,-5,12,12,10,25,1.390418368
16.976243,11,7,5,31,22,0,25,7,1.390418368
16.979152,5,14,4,-7,-29,2,-8,66,1.390418368
16.979173,7,-1,-5,-13,-14,-13,14,-3,1.390418368
16.989563,-21,-15,0,22,62,19,-28,19,1.390418368
16.989580,12,38,-1,-46,-4,12,7,-37,1.390418368
16.999402,-54,3,7,56,127,65,-1,2,1.390418368
16.999410,76,-17,-8,-5,30,-11,17,-16,1.390418368
17.014664,0,7,-5,-19,-4,27,-3,8,1.390418368
17.014684,23,3,-8,-1,-49,13,4,9,1.390418368
17.014933,-39,6,1,-26,-91,-69,-11,17,1.390418368
17.014946,39,-3,-3,13,45,17,-12,1,1.390418368
17.036141,13,35,7,-6,-29,-27,3,-3,1.390418368
17.036189,-56,-35,-2,16,30,7,1,-12,1.390418368
17.037256,46,-8,-9,-24,-21,12,4,6,1.390418368
17.037261,-42,-3,3,16,-5,6,-17,-10,1.390418368
17.058608,23,4,4,0,3,-3,18,25,1.390418368
17.060732,11,4,0,19,-49,-33,-28,12,1.390418368
17.060742,10,4,-1,-13,15,25,11,1,1.390418368
17.060744,-33,-22,0,2,38,-42,-27,5,1.390418368
17.073856,-77,-5,5,3,44,31,20,-8,1.390418368
17.073890,57,31,-5,-7,-18,21,-4,-7,1.390418368
17.076241,-81,-24,-2,-8,-29,13,-7,16,1.390418368
17.076259,79,-51,-12,-17,-78,16,-1,-21,1.390418368
17.096371,-44,-21,0,-3,30,-68,-25,-25,1.390418368
17.096412,-13,6,3,22,13,65,12,-11,1.390418368
17.097516,24,17,1,-8,95,-10,9,7,1.390418368
17.097542,-19,10,-5,-35,-105,9,-3,7,1.390418368
17.109577,3,-12,5,38,88,-19,-4,-24,1.390418368
17.109619,-46,-22,-5,-48,-36,66,7,-20,1.390418368
17.119672,55,27,-2,28,48,-72,25,30,1.390418368
17.119679,67,-3,-2,20,15,-34,-16,-18,1.390418368
17.133534,54,22,0,-10,-16,44,2,11,1.390418368
17.133558,-34,15,2,-1,-89,-49,2,0,1.390418368
17.135869,18,-2,2,12,106,56,14,30,1.390418368
17.135885,-14,-7,-9,-30,-5,-4,-26,-48,1.390418368
17.155662,12,9,-7,-31,-128,1,-6,-25,1.379931294
17.155676,13,22,2,11,116,-23,-8,31,1.379931294
17.157279,-12,-43,0,17,38,9,-11,-51,1.379931294
17.157319,-33,19,6,11,-25,7,20,17,1.379931294
17.169422,5,-6,-7,4,-4,20,-13,2,1.379931294
17.169435,29,-8,6,8,13,-14,-11,-2,1.379931294
17.180179,-2,-14,-12,-45,-96,-26,-14,0,1.379931294
17.180191,-2,22,7,50,62,-5,6,30,1.379931294
17.193663,-73,11,6,-11,-9,3,1,2,1.379931294
17.193687,-20,-14,-11,9,36,20,9,19,1.379931294
17.195948,68,-70,-12,-11,4,-38,-5,-10,1.379931294
17.195962,-59,-26,0,-15,65,32,20,18,1.379931294
17.215764,-4,10,-3,-19,-15,29,-28,-38,1.379931294
17.215804,-2,15,10,0,-54,-19,26,-3,1.379931294
17.217197,2,5,3,36,-2,33,9,40,1.379931294
17.217213,-49,6,-3,-4,-4,2,-24,28,1.379931294
17.231241,4,-31,-4,8,1,-17,3,-10,1.379931294
17.231257,9,-24,-7,-21,-51,-27,-15,-43,1.379931294
17.239536,-32,85,2,-17,-11,13,-20,-57,1.379931294
17.239542,45,-13,2,22,9,-7,4,-11,1.379931294
17.253310,-6,5,-4,1,-7,-30,2,1,1.379931294
17.253328,12,5,2,1,19,-8,-4,23,1.379931294
17.254714,-79,2,1,-9,-19,-13,-1,3,1.379931294
17.254728,40,3,-5,-17,-62,-10,2,1,1.379931294
17.276062,-10,-5,-7,-19,20,-65,-16,4,1.379931294
17.276092,11,0,1,26,80,-23,26,8,1.379931294
17.279095,-20,-20,-8,-13,-97,84,-25,-55,1.379931294
17.279110,-19,23,9,-11,-12,-65,38,45,1.379931294
17.289908,-19,-40,-13,-9,33,13,-51,-25,1.379931294
17.289940,75,-9,-9,-20,-35,-28,-12,-3,1.379931294
17.299291,55,1,5,35,-2,-24,4,-19,1.379931294
17.299309,-3,-18,0,10,27,16,1,8,1.379931294
17.313592,8,36,9,-3,-39,-3,8,-32,1.379931294
17.313613,-19,5,-2,8,32,14,11,51,1.379931294
17.314828,11,-22,-5,-2,18,12,0,18,1.379931294
17.314844,-43,19,0,6,16,23,-22,-69,1.379931294
17.336295,-82,-29,1,5,29,-30,17,-2,1.379931294
17.336326,29,-18,-5,-19,-98,56,-20,-3,1.379931294
17.338580,3,-19,-9,38,88,15,9,-14,1.379931294
17.338593,-14,19,-1,-32,12,25,5,18,1.379931294
17.349488,8,13,3,6,-86,37,30,34,1.379931294
17.349505,-28,-1,4,12,74,-2,-60,-35,1.379931294
17.359853,14,-4,-8,-29,-94,-38,9,30,1.379931294
17.359860,-8,-4,1,22,47,31,16,2,1.379931294
17.373384,27,-11,4,23,-73,16,6,-21,1.379931294
17.373424,30,18,-6,-47,-10,-1,9,-16,1.379931294
17.374773,-51,-42,4,9,-33,-22,-9,11,1.379931294
17.374826,58,-26,-8,-16,-31,-11,-10,-23,1.379931294
17.396185,-9,-27,-6,-6,-62,-4,16,-9,1.379931294
17.396214,-60,1,4,31,46,-6,17,56,1.379931294
17.398113,-3,29,5,-20,85,-16,-6,30,1.379931294
17.398126,10,-18,-3,-9,-11,1,2,2,1.379931294
17.409560,50,-23,3,7,23,10,4,35,1.380228734
17.409584,10,11,5,32,-1,-46,-14,46,1.380228734
17.418644,8,-8,-5,-20,37,38,28,-23,1.380228734
17.418659,-9,4,-3,-22,-45,43,-24,-17,1.380228734
17.434058,12,23,-2,-22,70,-22,-17,6,1.380228734
17.434068,-22,-9,2,32,2,-58,5,-18,1.380228734
17.434769,14,24,5,-11,57,47,5,-46,1.380228734
17.434802,-55,-25,-10,-24,44,-3,-2,-30,1.380228734
17.456015,-3,19,-9,42,5,7,-1,26,1.380228734
17.456032,39,-21,-5,-19,-10,1,-6,-60,1.380228734
17.458017,-21,21,-1,1,-36,-56,-4,5,1.380228734
17.458024,-18,23,5,4,4,40,-8,49,1.380228734
17.469936,-28,15,3,-12,23,36,5,10,1.380228734
17.470061,-23,4,-1,-14,-44,-13,19,-18,1.380228734
17.480582,7,0,-1,10,27,-23,0,4,1.380228734
17.480595,53,16,4,11,-59,5,-24,1,1.380228734
17.493997,-16,25,6,3,19,-3,23,26,1.380228734
17.494040,44,-40,-10,-14,-25,25,-6,-7,1.380228734
17.496743,1,-20,-7,-8,-61,-22,4,-28,1.380228734
17.496756,-7,-15,-2,-13,50,9,1,16,1.380228734
17.515816,-5,20,-3,-24,-101,-31,0,-6,1.380228734
17.515924,-37,26,10,69,127,-6,21,-2,1.380228734
17.517510,4,-1,1,-18,-30,18,-20,-2,1.380228734
17.517537,7,-28,1,13,2,-66,-1,-2,1.380228734
17.538922,28,36,2,-2,-11,-4,-13,18,1.380228734
17.539011,-26,-34,-4,-21,-21,-9,4,-23,1.380228734
17.540865,57,5,-2,2,-109,21,14,18,1.380228734
17.540871,-82,17,3,33,-65,-29,12,-22,1.380228734
17.553977,26,-10,-9,-18,67,0,-8,23,1.380228734
17.554012,-5,3,-6,-29,-19,-6,-14,23,1.380228734
17.556187,31,9,3,-31,-21,-9,-15,-44,1.380228734
17.556193,4,-7,-4,40,79,-1,5,-11,1.380228734
17.575096,2,0,6,9,-38,4,8,42,1.380228734
17.575105,-12,40,4,2,-49,41,-2,-3,1.380228734
17.584808,-9,-21,-11,-14,0,1,-23,29,1.380228734
17.584817,33,29,5,-10,-11,24,20,31,1.380228734
17.598516,-4,7,1,-6,80,20,17,-38,1.380228734
17.598533,-7,-15,-3,-6,-73,-22,-21,17,1.380228734
17.600213,-11,3,-4,34,82,50,-1,38,1.380228734
17.600227,32,-2,-3,-38,22,-1,2,-37,1.380228734
17.613455,0,-30,-3,-11,34,26,12,-18,1.380228734
17.613474,-23,-2,3,6,12,14,16,-21,1.380228734
17.615657,33,32,11,12,-17,19,7,73,1.380228734
17.615669,-63,8,6,6,17,-74,-20,11,1.380228734
17.637526,79,-36,-17,-3,-71,-17,7,17,1.380228734
17.637536,17,-18,-4,-7,11,-10,-7,2,1.380228734
17.637539,-42,-4,4,1,3,-16,11,-43,1.380228734
17.637542,62,23,3,-10,-91,6,5,36,1.380228734
17.658374,-48,8,3,6,79,12,-15,-12,1.388886091
17.658397,25,9,1,-12,-7,10,-54,-17,1.388886091
17.659848,2,-44,-1,18,18,-62,-9,-4,1.388886091
17.659854,24,0,-2,-4,-21,43,20,16,1.388886091
17.673927,-34,-22,2,18,-15,-7,9,9,1.388886091
17.675722,-4,12,0,-15,-2,29,18,-68,1.388886091
17.675737,-65,-31,-5,-47,-40,-62,-8,-26,1.388886091
17.675743,-7,0,2,30,1,12,-13,-32,1.388886091
17.695986,34,13,-1,-10,23,40,-1,-16,1.388886091
17.696009,-15,24,8,24,124,-44,5,46,1.388886091
17.697808,-50,-2,-5,-6,-24,-8,2,-34,1.388886091
17.697823,40,5,-9,-5,-23,22,-4,-22,1.388886091
17.718881,-94,-26,2,4,-9,-32,-10,-46,1.388886091
17.718911,100,4,-5,-23,-37,20,-20,98,1.388886091
17.719829,-49,8,1,20,-14,-2,12,-21,1.388886091
17.719844,-22,-39,-6,-14,10,-6,14,20,1.388886091
17.732635,-25,21,2,3,42,27,-23,-28,1.388886091
17.732715,7,-6,-7,-17,19,-27,-21,-62,1.388886091
17.739668,69,-19,2,9,39,-1,7,16,1.388886091
17.739699,3,16,-2,-2,-28,36,4,1,1.388886091
17.756153,24,37,2,-2,-5,-54,-16,10,1.388886091
17.756188,-24,-35,2,-9,-89,20,28,26,1.388886091
17.757824,3,21,1,41,116,35,-3,-26,1.388886091
17.757828,2,27,-3,-10,39,-46,4,1,1.388886091
17.779331,48,-22,2,6,-91,-10,5,-10,1.388886091
17.779347,-46,8,-2,1,27,-22,-13,7,1.388886091
17.779941,62,10,0,-25,-50,9,3,-8,1.388886091
17.779960,-78,22,0,4,44,-23,-25,30,1.388886091
17.794884,6,-22,2,32,-21,-5,5,13,1.388886091
17.794895,-47,4,-2,8,9,54,50,40,1.388886091
17.799435,35,-3,-3,-19,-61,3,-24,-5,1.388886091
17.799456,21,-18,-5,-16,-50,-50,0,-5,1.388886091
17.815763,-10,-32,-1,-15,16,-10,-3,-14,1.388886091
17.815781,-41,-25,-1,21,45,23,12,-8,1.388886091
17.817482,-32,46,2,-3,-19,-4,-10,-31,1.388886091
17.817498,7,-19,-1,-4,-8,16,14,14,1.388886091
17.838585,-16,14,3,31,42,19,6,16,1.388886091
17.840908,6,3,-3,2,80,25,4,-74,1.388886091
17.840917,14,-19,-4,-16,0,-13,-5,71,1.388886091
17.840919,-18,-1,-3,3,40,12,-10,-62,1.388886091
17.852610,-33,-31,-3,2,-85,50,-44,27,1.388886091
17.852636,62,0,-6,-35,-101,-63,12,0,1.388886091
17.859945,31,-2,-1,39,10,-3,-2,-16,1.388886091
17.859970,-11,15,2,8,40,-6,19,-3,1.388886091
17.876112,39,1,-7,-26,21,-16,4,-5,1.388886091
17.876136,-67,-37,2,9,-14,2,-11,26,1.388886091
17.877983,-13,12,5,-15,-39,4,7,81,1.388886091
17.877994,90,-5,3,-4,-32,-6,14,-2,1.388886091
17.898379,-26,35,-6,-2,19,-16,6,-5,1.388886091
17.898401,-14,3,-3,9,43,-10,-8,-17,1.388886091
17.900112,-33,-21,-2,-8,-53,34,6,-6,1.388886091
17.900122,27,-19,-4,12,4,-67,-9,-1,1.388886091
17.912792,40,24,4,-21,21,49,5,-7,1.394294120
17.912816,-31,-16,-1,26,11,19,13,-4,1.394294120
17.919336,13,-29,-8,-53,13,-7,-1,27,1.394294120
17.919353,-75,-4,3,39,13,22,-47,-13,1.394294120
17.935943,18,-18,-5,-17,-6,-27,9,0,1.394294120
17.935992,22,20,3,3,-64,-66,-8,20,1.394294120
17.937348,2,15,-2,20,-36,4,-6,-5,1.394294120
17.937370,-21,-25,-2,-26,-13,19,16,-12,1.394294120
17.959298,10,11,-2,9,5,-49,-3,5,1.394294120
17.959322,3,16,-1,2,64,81,-5,15,1.394294120
17.961354,-53,11,5,0,20,-55,-12,-40,1.394294120
17.961366,5,-24,-7,-21,-43,13,3,-10,1.394294120
17.972992,-11,-13,0,11,14,-25,-11,7,1.394294120
17.973082,4,26,6,-8,-10,-4,4,2,1.394294120
17.979552,10,10,-2,22,44,23,8,4,1.394294120
17.979581,-10,-2,0,-29,-62,-38,26,4,1.394294120
17.996396,-37,16,7,54,48,58,59,2,1.394294120
17.996414,82,-10,-3,-17,5,-24,-21,-6,1.394294120
17.997352,-32,-3,-2,-20,-81,-6,-3,-16,1.394294120
17.997371,29,26,4,8,41,33,7,-3,1.394294120
18.018345,10,-34,-9,12,92,-40,0,41,1.394294120
18.018366,-85,0,4,-25,-61,-7,3,32,1.394294120
18.020082,-34,-17,1,9,22,17,9,-47,1.394294120
18.020095,39,-10,-3,-5,-49,25,-15,3,1.394294120
18.032062,16,3,4,-13,24,-28,-19,37,1.394294120
18.032110,-7,15,-6,0,-20,17,-5,-47,1.394294120
18.043166,-18,-18,4,2,52,-12,-12,-23,1.394294120
18.043174,-42,-54,-7,-8,-6,38,13,6,1.394294120
18.056177,16,6,-1,8,12,-57,-14,-1,1.394294120
18.056201,-10,2,6,24,-36,-43,7,-25,1.394294120
18.058835,23,7,-1,-24,-68,8,-14,-9,1.394294120
18.058844,-18,17,-5,0,56,3,-25,3,1.394294120
18.078484,33,-8,-1,18,-62,-11,2,-14,1.394294120
18.078507,-24,30,0,-5,-1,-1,-3,-21,1.394294120
18.080078,46,-2,-4,10,54,-1,-5,56,1.394294120
18.080103,-2,10,4,1,17,-1,-6,3,1.394294120
18.091995,-37,-1,-1,-26,43,22,-5,-36,1.394294120
18.092006,17,6,-2,-9,-54,34,-7,32,1.394294120
18.101799,-4,17,2,3,11,-4,13,58,1.394294120
18.101813,23,-20,-3,-6,-29,-37,-15,-4,1.394294120
18.115846,-35,14,0,7,-3,40,5,0,1.394294120
18.115864,74,16,4,-20,52,-33,-7,10,1.394294120
18.118023,12,-9,-6,0,96,-36,-5,-14,1.394294120
18.118039,-26,10,6,38,23,10,18,23,1.394294120
18.138448,-50,18,-2,-32,-80,21,-6,-44,1.394294120
18.138493,63,-33,-8,12,-18,-2,3,-13,1.394294120
18.139729,23,18,4,-7,32,2,0,-2,1.394294120
18.139738,-69,-17,1,4,1,-41,-11,9,1.394294120
18.152053,49,-5,3,-5,13,13,-13,2,1.394294120
18.152072,-23,-13,-3,-13,-37,32,24,-33,1.394294120
18.164270,29,0,-5,-21,-45,2,7,9,1.394294120
18.164284,-9,7,-2,46,111,28,-5,-19,1.394294120
18.176057,-1,23,4,-5,-36,-2,9,-7,1.398390702
18.176090,-2,-14,-6,-10,-71,5,-8,-18,1.398390702
18.178385,-13,-6,9,6,8,-8,8,10,1.398390702
18.178406,29,-6,0,6,13,45,6,-4,1.398390702
18.198375,-41,-32,-12,-25,-65,-99,-25,-57,1.398390702
18.198428,27,19,0,-2,-7,67,16,28,1.398390702
18.199840,28,-22,-3,19,11,-19,-24,-60,1.398390702
18.199864,-2,51,10,-23,-55,-2,-9,54,1.398390702
18.212150,5,-13,-4,7,-77,30,-11,-48,1.398390702
18.212175,-5,-20,-6,-44,-51,41,10,7,1.398390702
18.221273,-1,24,1,55,77,27,8,-10,1.398390702
18.221289,21,-39,-10,-13,-4,-50,-25,-5,1.398390702
18.236073,-19,21,9,5,1,10,16,2,1.398390702
18.236106,-60,6,1,1,68,-50,-14,24,1.398390702
18.237413,58,-18,-3,15,-71,0,13,-7,1.398390702
18.237433,-6,18,1,-1,62,19,-5,-6,1.398390702
18.258560,24,1,-3,-7,-48,38,24,-9,1.398390702
18.258591,-8,-24,-5,-20,82,-47,-32,-8,1.398390702
18.260589,15,29,1,1,4,10,-4,-42,1.398390702
18.260599,-20,-5,-1,-4,-13,-42,11,20,1.398390702
18.272363,18,15,8,-3,36,18,-12,-5,1.398390702
18.272405,-27,15,-2,48,36,-7,-7,-15,1.398390702
18.281528,-45,8,-5,-64,-104,-3,28,62,1.398390702
18.281536,31,9,0,35,-5,-11,14,-7,1.398390702
18.295976,-18,-3,0,-37,-20,19,-24,-47,1.398390702
18.296000,50,-8,-1,8,-2,-8,-1,1,1.398390702
18.297506,-78,2,0,20,24,-37,-25,-40,1.398390702
18.297523,40,-12,-6,-3,-22,-5,7,-23,1.398390702
18.318449,27,-26,-1,-7,-36,2,-9,65,1.398390702
18.318474,-10,-5,3,16,-4,-15,12,-5,1.398390702
18.320616,0,-7,-6,-6,36,-6,-38,29,1.398390702
18.320626,-22,19,7,-24,-96,18,7,18,1.398390702
18.332036,34,0,-7,17,53,-57,-3,10,1.398390702
18.332054,-75,-3,-3,5,50,-24,-24,-11,1.398390702
18.341884,-6,-25,5,33,34,10,32,4,1.398390702
18.341891,3,-38,1,-31,-43,-6,-18,-2,1.398390702
18.355972,-17,3,-9,-5,-17,36,20,15,1.398390702
18.355980,55,-3,-7,-8,4,-27,-7,26,1.398390702
18.357190,-18,17,3,-23,-41,33,-24,-2,1.398390702
18.357198,10,2,-1,19,40,-34,22,7,1.398390702
18.378195,-18,-6,-4,-5,77,45,26,9,1.398390702
18.378215,19,6,3,-18,-25,-1,-3,21,1.398390702
18.380473,8,-2,-1,13,-51,-20,15,-14,1.398390702
18.380485,-4,7,-4,-6,64,50,-5,-14,1.398390702
18.392505,-64,-51,0,-10,-36,-51,-3,-6,1.398390702
18.392530,23,26,0,11,34,-4,13,-10,1.398390702
18.402208,-49,-54,-13,-15,-19,-41,2,-6,1.398390702
18.402217,21,12,-3,9,-17,32,10,-36,1.398390702
18.417718,-19,-3,-5,-15,7,-20,17,35,1.398390702
18.417737,-10,-2,3,-5,23,21,-8,-50,1.398390702
18.417741,29,-14,3,-7,-27,-24,19,22,1.398390702
18.417745,-23,-10,-7,-3,33,58,-5,-19,1.398390702
18.438321,79,-4,-2,-10,-70,-80,-20,-4,1.399544417
18.438416,-67,-24,-7,23,88,43,2,-26,1.399544417
18.444691,38,20,-9,-55,-113,20,-7,-13,1.399544417
18.444717,21,17,4,16,-12,-5,-4,35,1.399544417
18.451964,4,17,0,12,12,30,-3,-18,1.399544417
18.451994,5,-5,1,-8,-41,-9,-1,-2,1.399544417
18.463541,-44,18,4,19,63,7,-7,12,1.399544417
18.463561,46,-12,0,-24,-92,-14,-1,9,1.399544417
18.475897,1,12,4,-16,-20,-18,-14,-53,1.399544417
18.476023,3,-32,-7,33,-79,-22,-7,40,1.399544417
18.478479,-24,17,-8,0,90,51,25,17,1.399544417
18.478499,-17,-18,-7,-10,-42,-63,-41,-1,1.399544417
18.498412,12,26,3,-1,86,11,-23,11,1.399544417
18.498433,-12,1,2,-31,-83,-23,-10,-24,1.399544417
18.499835,23,11,1,11,43,31,5,-18,1.399544417
18.499853,-56,3,-4,-8,13,5,13,-44,1.399544417
18.520952,-3,11,2,1,-36,46,0,23,1.399544417
18.520971,26,26,-5,30,56,29,1,-20,1.399544417
18.522194,-14,-33,-4,7,45,9,-14,-13,1.399544417
18.522209,10,12,6,-3,-25,-16,1,7,1.399544417
18.535072,-24,-33,-7,7,62,38,-7,-21,1.399544417
18.535170,-20,30,3,-17,-92,-12,8,10,1.399544417
18.544177,-6,-32,8,14,-47,-34,-1,16,1.399544417
18.544183,18,-3,-7,-4,58,10,-2,20,1.399544417
18.559124,-18,14,4,5,-25,-17,25,-51,1.399544417
18.559131,8,4,11,6,-84,2,16,30,1.399544417
18.559668,32,20,-5,10,106,-17,6,13,1.399544417
18.559676,-15,1,-1,9,-36,1,-22,11,1.399544417
18.580802,-10,-54,-10,-38,26,18,20,25,1.399544417
18.580821,50,-32,-7,14,-49,-85,-21,-23,1.399544417
18.582609,6,8,3,-23,-5,46,5,-12,1.399544417
18.582839,-18,25,5,5,-15,-65,16,-17,1.399544417
18.595954,-11,9,-1,10,-65,3,7,-15,1.399544417
18.595980,13,2,1,-15,-16,-3,13,40,1.399544417
18.597341,2,2,-3,-6,-36,-19,-5,-30,1.399544417
18.597362,-26,-1,6,9,36,2,14,-30,1.399544417
18.618457,40,8,-2,15,59,3,-22,19,1.399544417
18.618487,-115,5,6,-5,101,26,6,-25,1.399544417
18.620686,79,-17,-10,-50,-128,-72,-14,-18,1.399544417
18.620696,-10,-26,-9,39,88,103,-9,14,1.399544417
18.641177,30,-13,-7,-5,16,-73,-22,-22,1.399544417
18.641204,-76,7,-4,11,42,34,1,0,1.399544417
18.643732,-9,20,6,15,57,3,17,-1,1.399544417
18.643739,-12,9,2,-22,-55,-28,-30,16,1.399544417
18.655255,-76,32,10,23,-22,30,23,41,1.399544417
18.655281,127,-56,-14,-21,-38,8,-17,1,1.399544417
18.662276,-62,-6,-5,8,-45,4,-17,11,1.399544417
18.662297,13,-55,-6,-2,12,-35,6,-3,1.399544417
18.678794,11,16,5,9,22,3,8,16,1.399544417
18.678825,-15,19,5,-10,-58,9,7,-21,1.399544417
18.681072,-5,11,-2,9,18,-2,-15,-9,1.400855865
18.681084,3,12,0,2,61,-20,12,5,1.400855865
18.701043,1,-10,-1,-18,-124,-1,9,-16,1.400855865
18.701102,22,25,4,18,127,65,-1,31,1.400855865
18.702344,15,-16,-7,6,55,-24,-5,47,1.400855865
18.702358,-57,13,-1,-11,42,-3,15,-2,1.400855865
18.715185,3,6,3,30,-9,-12,-8,3,1.400855865
18.715208,33,-9,-3,-13,40,-39,-8,-28,1.400855865
18.721860,-61,14,10,-13,0,55,-5,-23,1.400855865
18.721877,47,-18,-8,-1,-67,11,6,30,1.400855865
18.738535,61,-7,-14,-8,33,-29,-2,-41,1.400855865
18.739752,-43,-18,-1,-21,-61,6,8,-32,1.400855865
18.739763,-15,17,5,12,-7,11,-1,5,1.400855865
18.739769,3,22,5,-11,-21,-11,20,12,1.400855865
18.762074,-1,-7,2,26,25,10,-14,7,1.400855865
18.762089,-20,22,2,1,-36,-41,-4,3,1.400855865
18.762352,-2,-12,-2,-27,-49,15,13,-34,1.400855865
18.762382,-35,-3,-6,10,85,35,39,55,1.400855865
18.777729,8,-1,-6,1,-8,-68,-27,-61,1.400855865
18.777735,-3,7,-2,4,5,-9,-12,-1,1.400855865
18.781977,17,-3,6,24,-20,-5,-1,21,1.400855865
18.781996,-11,8,0,-26,33,35,-19,-33,1.400855865
18.798429,-48,30,0,-15,-20,-4,-1,41,1.400855865
18.798448,15,-17,-2,0,24,5,24,18,1.400855865
18.799965,77,-11,-10,5,-14,0,-1,20,1.400855865
18.799983,-14,-11,1,-8,-55,-57,-19,51,1.400855865
18.820935,-11,-3,0,-4,26,8,2,113,1.400855865
18.820960,-38,36,7,2,5,42,-7,-71,1.400855865
18.823337,57,-6,-3,8,37,5,13,13,1.400855865
18.823362,-21,-3,-4,2,-59,3,-6,-63,1.400855865
18.835491,-11,17,-2,-27,15,-46,-10,-7,1.400855865
18.835523,-14,-28,-5,-13,50,95,-10,2,1.400855865
18.842029,-13,9,1,14,-4,-98,-8,3,1.400855865
18.842044,33,5,-4,25,68,8,-5,-65,1.400855865
18.858151,4,-12,1,-14,59,-4,-3,5,1.400855865
18.858168,32,11,-7,-17,-48,-7,25,7,1.400855865
18.859892,-67,5,2,-5,-14,-5,-23,-16,1.400855865
18.859915,22,0,2,-8,-25,-2,-14,0,1.400855865
18.881014,-27,-65,-5,9,-34,7,5,-26,1.400855865
18.881031,18,17,1,2,-9,-14,-4,29,1.400855865
18.882782,8,-15,-4,-8,-2,12,1,-18,1.400855865
18.882795,15,23,3,16,-57,-8,24,-56,1.400855865
18.895396,-18,-21,-2,-18,23,8,-32,-70,1.400855865
18.895429,-9,-6,7,18,42,-14,19,26,1.400855865
18.901903,7,1,-4,11,17,-14,-1,13,1.400855865
18.901923,20,-38,-3,-23,-85,35,10,53,1.400855865
18.919620,-10,17,2,8,95,-14,-2,2,1.400855865
18.919637,2,-2,-5,-8,-95,57,3,5,1.400855865
18.919717,-27,4,2,8,-40,-17,-28,-21,1.400855865
18.919741,0,24,2,0,78,2,18,-4,1.400855865
18.940852,18,-25,3,2,-18,51,16,15,1.395821887
18.940869,-10,-13,1,16,-29,-43,-13,11,1.395821887
18.942476,2,36,-8,-31,31,31,0,5,1.395821887
18.942482,-30,10,-1,-12,3,0,-34,-11,1.395821887
18.955116,-10,4,-3,13,-2,-4,-7,13,1.395821887
18.955140,-14,-3,5,32,25,-11,21,4,1.395821887
18.962462,35,-13,0,-8,-27,-7,-5,4,1.395821887
18.962504,-28,-2,5,-15,-10,-24,-3,-7,1.395821887
18.978660,55,49,-4,0,-69,68,15,-6,1.395821887
18.978785,34,-59,-15,9,95,-107,-34,99,1.395821887
18.981408,-26,13,7,0,63,26,27,-18,1.395821887
18.981422,-6,-1,-4,-1,-53,-34,7,6,1.395821887
19.000981,-18,17,8,-16,14,-15,5,13,1.395821887
19.001038,-34,-16,2,-4,22,20,9,-45,1.395821887
19.002510,7,-44,-8,0,47,47,-2,12,1.395821887
19.002527,23,10,2,-10,-2,-24,-13,-21,1.395821887
19.014618,-19,-1,-3,6,-39,15,13,-4,1.395821887
19.014639,8,10,-5,-19,17,10,-3,-15,1.395821887
19.024279,-7,29,8,-14,-2,-25,-5,-19,1.395821887
19.024285,-58,-34,-3,40,9,49,0,-9,1.395821887
19.038447,55,6,0,-14,-32,-77,0,-7,1.395821887
19.038504,1,-52,-7,-21,-1,36,-5,2,1.395821887
19.040480,-61,19,9,18,-38,-88,21,16,1.395821887
19.040496,42,10,-8,-28,-53,13,-10,3,1.395821887
19.060880,75,18,6,26,-11,64,21,15,1.395821887
19.060890,-12,-4,-6,-12,-70,11,-12,-8,1.395821887
19.062363,11,27,1,-3,-33,23,6,-4,1.395821887
19.062387,-39,-17,0,13,35,-33,-3,22,1.395821887
19.074525,-8,-27,-6,14,21,-17,10,-7,1.395821887
19.074535,23,21,3,-10,-29,-43,-40,-91,1.395821887
19.084333,26,-21,-2,-24,-1,53,-8,52,1.395821887
19.084347,12,38,7,15,-45,-10,5,-5,1.395821887
19.098318,4,-12,-3,15,81,16,-38,-18,1.395821887
19.098334,-17,25,2,1,51,-4,12,39,1.395821887
19.100160,-12,-23,1,9,-2,12,-4,-84,1.395821887
19.100173,9,-36,-10,-20,-39,-46,-35,-20,1.395821887
19.122294,-56,-6,1,-11,-4,-63,-31,-20,1.395821887
19.122305,-35,26,2,-10,4,67,42,37,1.395821887
19.122308,10,2,4,31,-11,-37,0,-1,1.395821887
19.122311,93,-38,-13,-18,116,77,10,-2,1.395821887
19.135041,-15,62,-2,-6,-81,-8,-10,-9,1.395821887
19.135084,8,-33,1,14,-36,-57,4,-15,1.395821887
19.145281,-22,9,-4,-29,-59,30,-6,12,1.395821887
19.145312,-13,20,6,46,76,-7,-3,-2,1.395821887
19.158573,-2,-14,-11,-43,-24,16,4,12,1.395821887
19.158606,46,23,1,28,77,22,-2,-8,1.395821887
19.160312,-8,-7,2,0,-20,4,8,-14,1.395821887
19.160319,-37,-4,0,-15,-12,-19,-7,20,1.395821887
19.180888,-8,-8,2,16,1,-12,4,20,1.395821887
19.180905,-26,15,4,-1,7,11,37,-46,1.395821887
19.182820,21,-16,-10,-3,36,7,-50,-23,1.395821887
19.182832,-28,16,-2,-9,-19,-45,8,10,1.395821887
19.194782,28,-13,-1,4,-67,54,11,0,1.395691195
19.194817,18,-34,-2,-19,14,-22,0,78,1.395691195
19.204879,-23,-8,-1,7,9,-17,-1,33,1.395691195
19.204893,-14,20,5,7,30,19,4,-3,1.395691195
19.218374,-12,-8,-3,-7,17,13,-2,-6,1.395691195
19.218393,3,4,0,11,-58,-30,-13,-11,1.395691195
19.219817,8,9,-5,-17,58,5,-6,-28,1.395691195
19.220787,-19,-21,3,7,-16,9,0,40,1.395691195
19.240931,4,13,3,5,46,-21,1,-30,1.395691195
19.240948,-55,-65,-4,19,40,11,-14,-13,1.395691195
19.242779,14,11,-1,-1,-69,-19,7,21,1.395691195
19.242792,29,30,7,-5,-15,-18,16,-16,1.395691195
19.254783,-8,-34,-12,-25,17,37,-28,49,1.395691195
19.254828,45,19,-3,-5,-23,-37,-9,8,1.395691195
19.263992,-30,19,-5,-8,-60,43,18,39,1.395691195
19.263999,16,-8,1,-13,-23,-34,-44,70,1.395691195
19.278254,31,2,3,37,-8,-39,11,-59,1.395691195
19.278272,-18,21,0,5,44,23,0,-6,1.395691195
19.279900,-41,32,3,0,-53,-7,12,-1,1.395691195
19.279919,-27,-26,-2,6,63,22,3,-51,1.395691195
19.300883,13,-23,-9,-11,24,7,-4,-9,1.395691195
19.300900,-12,12,-3,-19,-72,13,-16,-21,1.395691195
19.302745,28,19,10,3,-90,-21,12,-10,1.395691195
19.302752,-50,28,-2,32,100,-12,8,8,1.395691195
19.314406,55,-12,-6,-15,10,65,18,-57,1.395691195
19.314425,-11,-1,0,12,-35,-55,7,-49,1.395691195
19.323942,46,19,-5,-21,60,11,-4,80,1.395691195
19.323957,-4,-16,-3,-18,-77,5,18,13,1.395691195
19.339762,-26,0,3,5,-7,-24,-5,16,1.395691195
19.339773,-30,22,2,-5,23,22,-3,-21,1.395691195
19.339776,36,-29,-9,22,-9,12,2,-16,1.395691195
19.339779,33,2,-1,-9,-26,21,-9,-1,1.395691195
19.360785,-38,23,4,19,25,-49,-5,25,1.395691195
19.360794,0,6,-3,-30,-70,-12,-8,13,1.395691195
19.363280,-27,-31,1,24,127,-10,-16,10,1.395691195
19.363297,9,-23,-1,5,-22,18,6,8,1.395691195
19.374800,-5,-44,0,-4,-8,-35,0,5,1.395691195
19.374819,0,6,-1,0,2,69,5,-7,1.395691195
19.385167,67,-42,-1,3,-5,-41,-11,-24,1.395691195
19.385179,11,15,-7,-10,-30,4,-28,-48,1.395691195
19.398508,-44,2,-1,-10,-20,-10,2,69,1.395691195
19.398526,20,-1,0,22,-22,-7,7,20,1.395691195
19.400418,-31,-7,2,-7,35,11,2,-21,1.395691195
19.400431,1,-1,-3,-14,-50,6,7,-17,1.395691195
19.421033,-31,54,5,14,102,-20,16,10,1.395691195
19.421056,0,-37,-4,-33,-78,26,-11,-68,1.395691195
19.423185,-10,7,0,5,69,-35,-8,13,1.395691195
19.423191,-28,20,8,-18,-12,-11,-12,10,1.395691195
19.443717,77,-10,-5,2,14,16,-3,-13,1.395691195
19.443752,-4,13,-4,21,51,-58,-13,-8,1.395691195
19.446181,-12,-34,-6,-11,12,97,12,2,1.395691195
19.446194,32,29,-3,-9,-2,16,4,-10,1.395691195
19.458362,-40,-58,-1,-15,-89,-2,18,7,1.396069756
19.458380,13,24,0,19,70,-35,-22,63,1.396069756
19.460202,-20,-18,-4,5,-42,41,20,-27,1.396069756
19.460216,-14,-24,-4,-4,6,4,-13,-45,1.396069756
19.481014,6,23,-5,-3,-20,30,10,-7,1.396069756
19.481032,13,4,1,-16,19,-1,4,-3,1.396069756
19.482335,3,-5,4,11,65,-30,-20,67,1.396069756
19.482349,12,14,-1,3,-3,0,9,-14,1.396069756
19.503517,-56,13,3,6,-26,2,-11,-13,1.396069756
19.505021,18,-15,4,-4,-89,13,20,3,1.396069756
19.505039,22,32,-10,4,99,-30,0,-46,1.396069756
19.505045,-6,-40,-5,0,74,86,-18,-15,1.396069756
19.518482,-44,17,5,-13,-99,-43,-11,3,1.396069756
19.518506,-4,14,0,23,119,4,-3,23,1.396069756
19.520757,-9,6,6,-19,-56,-9,30,13,1.396069756
19.520774,16,6,1,-14,0,-27,15,49,1.396069756
19.541621,5,-10,-5,24,19,19,-20,-9,1.396069756
19.541673,-15,0,2,-7,11,-13,19,8,1.396069756
19.542138,20,-16,-9,-10,-69,-13,-23,-39,1.396069756
19.542161,-58,-20,3,-2,-8,-29,10,-56,1.396069756
19.563300,7,-19,6,30,9,-30,-33,17,1.396069756
19.563326,24,-4,-4,-1,19,50,-1,-50,1.396069756
19.565040,19,-7,-2,-27,-27,-3,16,25,1.396069756
19.565051,-4,25,1,13,-114,6,8,15,1.396069756
19.578000,101,23,-5,-16,98,-24,-22,83,1.396069756
19.578034,-37,-14,6,-19,-88,-35,-15,56,1.396069756
19.584512,-25,4,4,35,52,9,-10,-28,1.396069756
19.584530,-23,-5,-4,3,-8,-7,6,12,1.396069756
19.603041,48,20,0,-10,-21,22,15,-49,1.396069756
19.603059,26,-21,-6,2,-36,-6,-7,-2,1.396069756
19.603067,-3,7,1,13,56,25,-8,12,1.396069756
19.603072,-10,3,3,-13,106,-47,4,4,1.396069756
19.623473,-9,15,-2,-6,-10,-14,-8,-12,1.396069756
19.623491,-9,14,-1,1,-28,29,-34,-3,1.396069756
19.625281,-26,-6,-6,-15,30,15,16,-4,1.396069756
19.625287,35,-7,-1,47,63,1,20,65,1.396069756
19.637197,-13,5,-2,-38,-55,29,11,-3,1.396069756
19.637221,-57,-30,1,20,47,-23,14,-18,1.396069756
19.647625,-44,-33,-2,-13,-67,-29,-10,0,1.396069756
19.647641,30,55,2,-16,-94,-1,-7,-23,1.396069756
19.661313,18,-10,-7,12,83,12,20,-19,1.396069756
19.661344,-11,7,0,-18,19,-37,3,37,1.396069756
19.663265,6,9,4,13,1,-1,-3,23,1.396069756
19.663279,37,-32,-9,-2,-110,-6,-1,-32,1.396069756
19.683183,-37,24,6,16,96,30,12,-16,1.396069756
19.683197,47,15,-7,-6,-12,-10,-16,27,1.396069756
19.684856,-2,-6,-4,-2,-88,61,3,14,1.396069756
19.684876,-11,28,-1,-30,30,15,-8,-22,1.396069756
19.697639,-30,-11,4,7,13,-22,8,-7,1.396069756
19.697657,9,0,-2,1,86,35,0,-14,1.396069756
19.704591,14,4,3,24,-46,-33,-10,-21,1.396069756
19.704610,-7,22,-1,2,-18,-13,-4,32,1.388935667
19.721087,-26,-29,-3,-8,-33,34,8,7,1.388935667
19.722601,-7,15,-1,0,10,6,8,-36,1.388935667
19.722615,-35,-36,-4,-41,-82,-34,0,-13,1.388935667
19.722620,45,-48,-7,28,85,-15,-30,-29,1.388935667
19.743377,6,25,-1,-15,-15,2,4,20,1.388935667
19.743392,-12,-21,-1,5,-30,-3,9,2,1.388935667
19.745055,-9,20,2,-7,36,4,6,-42,1.388935667
19.745078,10,4,1,24,36,-6,-10,56,1.388935667
19.757795,-4,-12,-1,-1,-45,-39,-20,-7,1.388935667
19.757802,46,-8,-6,-26,-70,25,-6,13,1.388935667
19.764536,-13,-4,0,29,16,-31,2,1,1.388935667
19.766939,-25,1,4,-46,-4,33,14,0,1.388935667
19.781099,61,-7,-7,7,-30,-4,-12,-11,1.388935667
19.781119,-67,36,9,21,32,-9,18,-19,1.388935667
19.783009,77,-23,1,-10,-53,3,-15,4,1.388935667
19.783023,-1,-14,-5,-10,15,-47,-44,-14,1.388935667
19.804854,-44,-6,4,-1,-13,11,11,-18,1.388935667
19.804863,-15,43,3,-12,-23,-7,-1,8,1.388935667
19.804866,-7,2,-4,22,48,1,5,4,1.388935667
19.804869,5,4,4,10,-17,10,27,-4,1.388935667
19.817134,-40,22,3,4,14,11,-3,4,1.388935667
19.817158,-27,-64,-11,-10,-2,-30,-39,-45,1.388935667
19.832020,-7,5,-1,-21,-44,35,-6,15,1.388935667
19.832042,-9,2,-1,53,94,-11,10,-11,1.388935667
19.841160,-16,-6,-3,-2,1,50,18,16,1.388935667
19.841185,17,-11,0,-18,-56,-3,23,24,1.388935667
19.843521,11,-5,5,-14,99,-31,-1,-24,1.388935667
19.843527,-24,55,-3,8,-73,-17,10,39,1.388935667
19.863418,21,-17,11,7,-70,-19,-23,-33,1.388935667
19.863442,9,4,-5,13,104,-6,-8,-12,1.388935667
19.864952,-7,-7,-14,-21,2,3,-4,3,1.388935667
19.864965,1,3,0,-12,-30,-6,-4,-30,1.388935667
19.877710,-11,3,0,-2,27,5,11,9,1.388935667
19.877745,9,17,1,-2,-15,-3,3,17,1.388935667
19.884676,-13,16,5,31,19,-13,12,1,1.388935667
19.884694,-19,1,-2,-19,1,-15,-2,24,1.388935667
19.901129,5,-29,-12,-33,1,51,-7,-81,1.388935667
19.901184,8,-2,-4,15,-5,-9,0,38,1.388935667
19.902423,-24,8,-1,1,93,33,0,4,1.388935667
19.902762,33,-57,-10,-39,-16,-16,21,7,1.388935667
19.923404,-5,-3,0,-3,33,17,35,9,1.388935667
19.923428,1,22,4,-10,61,-43,-56,1,1.388935667
19.925471,-48,-21,-2,-1,0,-32,-7,-29,1.388935667
19.925484,53,19,3,-5,-54,9,-9,-18,1.388935667
19.946897,-1,-21,-11,-11,36,-39,-6,43,1.388935667
19.946915,15,-19,0,16,3,38,19,-23,1.388935667
19.947471,-21,25,2,-1,-61,-17,-7,3,1.388935667
19.947488,-6,0,0,-8,3,13,-7,14,1.388935667
19.962115,-8,-6,4,18,-3,-13,-14,25,1.405601408
19.962132,-48,43,11,3,20,5,6,27,1.405601408
19.962415,8,-32,-10,34,-26,18,16,-44,1.405601408
19.962426,-18,-11,-2,-36,-35,-1,-31,0,1.405601408
19.983245,6,-4,-11,5,104,-1,8,-9,1.405601408
19.983317,29,13,7,20,-73,23,16,46,1.405601408
19.984715,9,14,0,-2,-24,-3,6,7,1.405601408
19.984730,-29,-27,-9,-7,66,31,6,-52,1.405601408
19.997112,-4,-1,-3,1,-45,-16,-44,-4,1.405601408
19.997136,-18,-9,5,-17,-44,-4,-19,3,1.405601408
20.008543,44,0,-7,-10,24,-9,-3,9,1.405601408
20.008552,-22,0,6,45,35,-10,11,-6,1.405601408
20.020992,36,-4,-2,-20,-65,9,11,-9,1.405601408
20.021017,17,2,-9,-1,11,3,14,-22,1.405601408
