Timestamp_ms,Channel_0,Channel_1,Channel_2,Channel_3,Channel_4,Channel_5,Channel_6,Channel_7
144,0,0,0,0,0,0,0,0
197,0,0,0,0,0,0,0,0
250,0,0,0,0,0,0,0,0
306,10,-41,-11,-11,-23,-12,-12,-12
361,-39,27,-12,3,14,4,15,5
417,-11,16,-17,-1,3,0,1,2
469,-14,10,3,1,-7,-4,4,7
528,-21,-15,-20,-1,-2,-2,9,3
579,-49,-52,7,3,-3,1,3,9
638,-22,-3,-5,3,8,6,2,1
693,-13,-31,-14,-10,-15,-11,-11,-8
748,39,41,-14,-9,7,3,-3,-5
811,21,-5,5,-3,1,3,-4,-8
877,-10,34,35,6,5,4,-29,3
936,9,-29,-11,-3,-3,-9,3,2
983,-14,2,-4,-14,-29,-23,-10,-16
1034,28,-40,-4,3,6,5,34,7
1090,20,-37,-3,0,6,4,-8,-12
1141,19,-76,-4,10,27,19,10,10
1195,-12,28,4,5,9,2,11,5
1248,-39,22,-3,-6,-11,-6,8,7
1300,74,-75,-31,-22,-36,-28,-26,-34
1352,13,-6,-12,-7,-10,-6,1,-7
1404,-19,10,-3,3,-2,-1,5,10
1457,27,6,12,2,3,4,5,4
1515,-8,-52,-14,-4,-3,-3,-8,-12
1577,-29,-3,-26,-8,-9,-5,-6,-8
1637,20,-1,-1,10,28,16,6,-7
1688,-17,20,-4,-1,2,2,-5,2
1741,-18,-38,-35,-15,-19,-16,-6,-25
1795,-8,-8,-23,-8,-7,-5,-4,-3
1845,-16,-29,-8,-5,-3,-4,-6,-24
1901,3,0,-1,3,12,9,4,8
1956,23,38,9,-1,3,4,3,9
2020,-21,0,5,1,5,4,0,4
2073,-1,8,-10,4,12,3,-1,2
2127,-92,49,21,7,-2,-1,-13,-5
2180,36,-7,6,4,4,5,-2,7
2237,-2,34,7,-2,-9,-4,-8,-1
2288,-18,13,0,9,12,10,14,8
2341,-15,-9,-1,-33,-66,-33,-19,-22
2395,-17,-11,8,8,10,0,12,4
2451,-20,-23,40,-2,-12,-2,12,-8
2500,-20,-3,-6,0,1,0,1,-1
2558,14,46,9,-3,-7,-8,-8,5
2621,-1,65,-3,1,3,0,-1,4
2686,10,41,-20,-10,-14,-8,-5,-14
2732,22,15,-2,0,-11,-4,7,2
2785,34,-57,-7,-5,-12,-8,-7,-10
2838,7,5,-11,-1,-7,-3,5,-1
2892,-12,43,25,1,-6,-1,3,0
2947,12,11,8,1,-1,2,0,6
2997,28,-1,-2,-5,-8,-5,-9,-6
3061,-2,-13,-6,2,0,2,-9,-3
3123,-19,35,-6,-2,-7,-3,14,9
3184,-8,22,-1,1,2,3,2,3
3235,-1,-20,-6,-6,-8,-8,8,-17
3298,-2,-4,-1,1,2,5,9,4
3364,-9,-64,3,-3,-6,-6,-2,-8
3424,-21,-2,8,4,11,6,-4,-1
3484,-28,-29,6,-3,-5,-4,-5,-6
3538,60,-9,17,-4,-8,-4,2,-2
3601,3,-12,-8,-9,-13,-9,-8,-10
3664,-24,2,6,5,8,7,14,3
3723,-31,-2,17,3,8,5,17,5
3775,19,-8,32,4,11,6,0,-2
3837,-28,2,-9,-3,-6,-3,-8,-17
3906,-57,6,-9,-2,-1,3,8,-1
3963,37,21,0,-3,-10,-9,3,3
4016,-39,-9,2,-2,0,-2,-7,-4
4067,21,16,-3,-2,-2,2,2,3
4119,-29,19,4,-7,-3,-5,3,-19
4184,25,6,-9,-3,0,1,6,-6
4240,-10,46,6,4,7,4,17,12
4294,52,-15,3,-6,-11,-13,-15,-5
4351,67,17,-6,-9,-3,-3,-17,-33
4412,26,-36,-17,-7,-3,-5,-20,-42
4471,26,-25,-4,-3,-3,-1,-9,-27
4515,-46,-13,2,5,5,0,-2,-14
4578,29,-10,-3,-3,2,-1,-8,-4
4650,19,-2,2,-6,-7,-9,-16,-32
4704,20,50,2,1,1,4,22,18
4767,-4,10,6,-2,-1,-1,-4,15
4827,-2,-17,-4,1,4,2,1,12
4883,9,-49,-12,-1,-2,2,-4,18
4929,-10,-21,0,16,14,4,-2,-30
4983,-15,-12,1,8,9,5,11,-3
5037,3,-13,9,-1,-13,-4,10,11
5089,-6,46,13,-2,0,1,-9,-8
5148,2,34,-5,5,8,8,19,24
5208,-4,14,-10,1,-1,0,7,13
5269,-9,9,0,5,1,4,14,18
5321,9,-9,-7,-13,-20,-16,-15,-8
5389,7,-11,17,3,4,2,5,6
5450,-15,-51,-14,-8,0,-2,-10,-23
5509,-23,10,4,0,1,1,-3,6
5564,-4,-1,-10,-2,2,1,3,1
5624,-14,25,8,-2,-3,-2,5,-36
5691,12,11,8,3,7,6,8,9
5752,-14,0,16,4,4,3,0,2
5813,-29,24,8,1,1,0,1,2
5862,10,-5,-10,-11,-12,-7,-3,-63
5928,-22,-115,-20,2,-2,-2,1,-14
5988,14,40,9,-7,-9,-4,1,4
6050,-5,12,8,3,1,2,-1,3
6102,-19,5,1,4,4,0,3,4
6153,32,45,13,-7,-3,-7,0,-2
6204,-12,-4,7,-3,-3,0,22,81
6261,20,-69,-29,0,-13,-10,-9,-26
6311,-49,-30,-8,4,-3,1,14,3
6372,1,32,8,-14,-8,-3,0,4
6431,-20,-20,18,-3,0,-2,-7,6
6493,5,-25,-9,-5,-3,-2,2,-4
6544,12,51,-1,-8,-3,-2,-2,1
6610,11,-9,-24,-7,-6,-2,8,-12
6671,28,-18,-8,-3,-4,-2,-4,-7
6732,7,12,32,-9,-4,-2,-3,-2
6795,-9,-28,-12,0,0,-1,-5,-1
6841,10,8,1,1,4,4,3,0
6899,19,1,-5,4,1,1,5,5
6947,-17,5,-23,2,5,1,1,-2
7007,-16,28,21,2,0,1,3,5
7062,-75,32,8,1,-1,1,8,0
7115,10,-19,4,-2,4,-1,-4,-9
7171,18,21,4,-4,-3,1,4,-3
7231,-15,-29,13,3,-2,-2,-3,-6
7294,69,-78,-13,-13,-11,-2,0,-8
7354,8,-46,3,4,1,3,-2,-4
7413,42,-26,-13,-2,2,-1,-3,-3
7469,-20,48,-13,-7,-4,-3,-3,-3
7532,-14,95,-21,-4,-3,-1,3,6
7597,15,-46,12,2,-3,7,5,-2
7655,-11,0,-26,-4,-2,-5,-9,-1
7707,11,-23,-17,-5,2,3,1,-2
7757,-19,-22,-12,-3,-7,-5,-2,-3
7812,24,17,-9,-9,-13,-12,-11,-11
7867,18,14,31,3,2,-2,-12,-3
7916,-24,23,-2,1,-1,-1,9,8
7977,6,22,10,-2,1,0,5,2
8037,47,-67,19,3,6,2,-2,-1
8101,-3,70,-30,-4,-3,-1,-2,5
8148,14,-18,9,4,4,5,1,2
8211,-26,-27,17,0,-7,-1,-18,3
8284,43,-40,-31,-4,-2,-2,6,-3
8340,-6,5,-3,-3,-5,-3,-13,-7
8386,-21,9,3,2,3,1,15,6
8450,17,9,-15,-6,-9,-7,-7,-3
8514,-15,13,5,3,2,3,12,0
8580,-40,-7,9,1,-1,1,2,1
8640,38,-79,-33,-11,-9,-7,-10,-28
8688,-45,-14,-1,-4,-19,-8,-2,3
8740,4,-68,28,6,-3,0,12,14
8793,-69,-1,-3,-8,-9,-10,-12,-14
8850,42,-4,38,3,4,1,4,-4
8910,16,-39,18,3,-5,1,8,3
8957,-40,-10,-13,-2,3,-1,-6,-10
9022,-21,15,1,5,1,-1,2,11
9078,-1,50,7,-1,2,0,-3,10
9131,10,-11,-25,-14,-18,-10,-11,-2
9190,25,-28,-13,-10,-18,-12,-20,-22
9236,-6,-33,3,-3,-3,-1,-7,5
9290,12,-23,5,2,5,2,-1,-3
9344,-11,22,8,6,7,5,-3,20
9398,-2,17,-6,-3,-3,0,5,-2
9461,-17,-17,-17,8,6,1,7,8
9521,-1,8,2,-3,-2,-1,-1,1
9581,10,18,-9,3,9,4,-1,-3
9633,12,29,3,-5,-8,-3,-8,-3
9690,6,83,13,-1,-2,-2,-3,5
9738,1,-8,-18,-8,-1,-8,-10,-14
9791,6,16,-11,0,0,-1,3,2
9843,-6,47,-15,-4,2,3,6,3
9896,13,-15,8,0,-1,-1,-5,-3
9948,58,-11,-11,-2,-2,0,2,-2
10001,1,-28,2,5,7,5,2,2
10062,32,47,7,-7,-4,-1,-1,-7
10125,-7,-76,13,10,10,2,-2,-1
10187,6,6,17,3,7,6,7,7
10233,29,-11,-2,-5,-8,-4,1,-1
10285,-8,27,-22,-4,-1,1,8,3
10338,6,-23,-6,2,-2,-1,0,-6
10391,47,6,-10,-1,2,5,13,5
10445,4,23,-13,-2,-12,-11,-31,-57
10505,14,49,21,8,2,2,-3,9
10568,36,20,2,-5,-4,-4,-3,1
10625,13,20,23,12,5,2,6,-3
10683,4,-26,-7,10,6,2,-1,38
10745,-14,-11,-10,-1,5,7,16,13
10806,11,8,6,-11,-12,-7,-12,-25
10869,-2,-86,-1,-7,-4,-3,-5,-3
10915,9,-17,15,4,-4,-1,0,-8
10967,23,7,-4,-22,-2,5,-2,-11
11021,-27,13,-3,-8,-9,-5,-5,9
11085,24,55,5,-5,2,2,5,16
11127,-41,-41,-10,-7,-1,2,1,8
11180,7,-28,-14,-15,-14,-10,3,0
11232,97,-46,-27,9,1,-2,1,19
11284,-14,-17,-53,-70,-36,0,8,7
11343,-17,10,-30,12,0,-6,-4,4
11404,7,-22,-1,-22,-20,5,9,8
11465,-18,71,69,-29,21,-5,4,0
11525,44,-46,7,108,-2,-7,-8,-19
11568,54,-92,-32,4,-12,-2,-15,-30
11631,-34,-13,-27,-12,-13,-4,5,0
11685,-14,30,-17,0,-13,-2,-5,-19
11739,-29,-18,-19,-3,-5,2,-1,7
11801,-4,-13,-11,-14,1,-3,7,10
11861,45,-8,2,12,-10,-11,-14,-22
11913,-8,-42,3,-45,-3,-5,-23,-46
11968,-13,49,33,-11,0,-12,-9,-3
12032,-28,12,-22,49,-1,-8,-11,-7
12093,20,1,34,20,12,8,9,5
12156,22,8,-19,-18,-7,-5,-6,-47
12198,37,-6,-34,7,-2,-2,-10,-37
12261,-66,14,-13,-2,2,0,-8,28
12326,-20,14,-5,4,6,4,-1,2
12388,1,-17,-9,-4,2,2,-27,-14
12446,20,-4,-20,-14,-12,-8,-6,-56
12504,-17,-66,-2,1,9,1,-5,-7
12550,-5,-4,5,-4,-3,-1,-1,-1
12603,-1,7,-1,4,7,5,10,-3
12657,-6,11,4,2,12,6,-2,-16
12719,-3,-24,-18,-5,-5,-2,3,-17
12771,2,25,3,5,7,3,-2,9
12830,-6,-34,2,5,2,0,5,-43
12882,-10,-19,-6,4,1,0,3,-14
12943,-6,13,2,-4,-6,-4,-10,-9
13006,6,66,13,0,6,0,-11,-29
13069,2,-5,8,5,10,6,13,21
13130,13,14,2,-7,-4,2,-1,23
13180,-4,-20,3,3,-1,-4,-6,-6
13243,4,1,-25,-5,-8,-5,-6,-6
13306,-5,79,7,1,3,0,2,-2
13370,7,-4,0,1,7,5,-10,-8
13430,-15,7,0,1,1,1,0,-5
13482,-1,-18,-3,-4,4,3,4,13
13542,-24,13,6,-1,-3,-1,9,7
13586,-5,-28,14,0,-1,-1,-5,13
13641,10,24,0,-5,-8,-5,-6,0
13692,4,15,15,-2,2,1,-3,-6
13752,6,-18,-9,-5,-7,-5,0,-7
13813,9,-20,-2,-1,5,3,6,13
13864,13,-39,-16,-1,2,-1,-1,2
13926,6,-58,17,8,11,6,12,2
13989,-13,-44,9,8,19,7,4,11
14052,-19,-16,3,7,0,0,-1,2
14112,8,7,0,-1,0,2,13,1
14164,-7,11,7,0,6,3,-16,1
14228,-9,44,-4,-10,-5,-1,-3,4
14288,-12,-13,-2,-3,2,0,-4,-13
14351,2,1,-2,-2,-4,-3,2,5
14413,15,-81,4,-3,-5,-3,-5,-4
14472,0,25,-2,-7,-4,-4,3,-1
14528,-22,-29,-17,4,10,8,7,2
14576,2,-19,-3,-6,-18,-9,-5,-9
14628,-8,-41,7,3,-3,-3,1,11
14685,-2,43,14,1,-4,-1,6,14
14734,-9,-1,0,-1,-1,-1,5,7
14794,29,-29,6,0,-2,1,4,-10
14855,-11,2,-6,-4,-3,-2,-4,14
14911,43,108,-27,-6,2,2,4,-10
14974,6,39,-7,0,6,6,3,7
15032,-24,2,35,5,-2,4,9,44
15095,-14,57,4,-4,-5,-4,-3,11
15155,-9,25,-1,-3,-6,-3,0,5
15207,12,-99,77,9,5,-1,-12,-6
15268,-23,-24,17,5,2,4,3,4
15332,-11,31,3,0,-7,-1,0,-37
15394,-11,25,5,2,3,0,6,20
15456,6,40,-5,1,3,4,10,2
15522,27,13,-10,-1,0,-2,-2,7
15568,-18,46,-18,-2,-18,-3,-5,-17
15620,-36,7,-22,-3,-1,1,0,0
15671,10,3,4,-2,-7,0,-5,-1
15726,35,-14,-18,-7,-5,-7,-11,14
15778,74,-17,-2,2,0,-3,-2,-17
15841,31,8,5,2,-11,-14,-17,-1
15899,3,71,-17,-14,-8,-5,-3,25
15947,4,-6,-27,-14,-2,-2,-4,-8
16012,-10,71,-13,-5,-21,-19,-26,-32
16076,11,-21,0,-3,-1,-1,2,-4
16139,-13,-8,-9,-7,-3,1,-3,3
16200,-8,30,-3,-2,-4,0,-8,-4
16250,-13,4,17,-1,-18,-3,1,0
16301,-16,8,-10,-3,4,6,-16,1
16356,8,0,-3,-6,4,3,-2,8
16417,-19,55,51,-8,-9,-4,-13,-16
16462,-24,9,9,-9,-4,-1,3,2
16520,50,-80,-9,-2,-13,-7,-32,8
16581,-51,78,35,6,9,3,-10,1
16631,-11,19,-3,1,0,-3,-9,-7
16695,-58,-21,-12,3,7,3,-1,-8
16759,5,22,-1,4,-1,1,3,0
16819,6,9,8,0,0,0,12,6
16871,-29,6,3,5,7,3,2,-1
16933,9,14,-32,-6,-3,-1,2,4
16997,-14,27,31,1,4,1,4,-1
17060,-7,19,8,1,-3,-4,-7,4
17120,-37,0,-1,2,4,4,6,11
17177,16,19,10,-3,-6,-5,-6,-24
17223,39,20,0,1,2,1,4,-6
17277,-44,0,-7,-1,1,2,-1,-1
17329,1,-6,11,-1,-2,-2,6,0
17382,-14,16,7,-3,-5,-4,-6,-6
17441,6,-30,-31,-7,-8,-7,-4,8
17502,-3,-11,-3,-4,-5,-6,1,-4
17562,-11,-18,0,-3,-4,-6,-14,-37
17616,-27,-4,-2,-2,-3,-2,1,0
17667,-9,16,-1,4,6,3,-3,-8
17720,13,3,-12,-9,-6,-4,-26,-5
17771,5,-24,-18,-7,-4,-5,-10,-19
17825,4,-9,14,1,1,0,11,10
17884,35,-9,-7,-5,-3,-2,3,13
17930,8,-5,-10,-2,0,-1,-3,-18
17982,-17,5,9,5,5,3,-1,-4
18045,25,-20,-3,2,3,1,0,-31
18102,-3,29,-13,-7,-8,-8,-21,-7
18162,-19,12,-4,-5,6,2,2,6
18213,39,-25,-27,-12,-23,-14,-14,-20
18265,24,-32,3,-2,-5,0,2,-4
18326,-10,-41,-9,-7,-12,-7,-14,-4
18370,-8,31,-19,-2,1,4,3,-11
18427,-2,4,-18,1,8,6,6,13
18479,-10,10,-14,1,1,3,1,14
18543,38,-8,3,-1,4,0,-8,-5
18605,-33,-22,-23,-12,-13,-9,2,1
18666,12,1,-17,1,2,1,5,-3
18724,12,28,8,-1,-8,-5,-9,-6
18779,14,-39,25,3,-1,1,3,-4
18842,28,60,-3,-8,-8,-4,1,-11
18904,26,-3,17,3,10,6,9,-2
18964,7,-35,5,-1,2,2,6,-44
19016,-18,-41,-41,-6,-8,-5,-3,-10
19080,-14,61,9,4,7,8,13,57
19129,-18,10,-8,-2,-4,-3,-3,-9
19182,4,-61,24,2,-3,-4,-3,-5
19236,12,33,8,5,6,2,3,-3
19288,4,53,-15,-2,-3,-1,-4,-9
19347,-8,-97,-4,3,-3,-2,-8,-2
19409,-26,18,-30,-3,2,1,-8,-6
19474,26,-36,28,-5,-11,-8,-12,-48
19536,-23,5,-9,4,7,7,7,-19
19584,13,-1,5,-1,7,2,-8,-1
19649,21,-6,-36,-9,-4,-8,-14,1
19710,-40,-15,1,3,-1,0,-6,-1
19769,116,-76,19,-5,-5,-2,-1,8
19820,-16,-13,34,4,-1,-2,-19,-1
19871,19,-2,11,-4,-1,-1,1,4
19926,-40,23,6,2,1,2,3,11
19989,-7,-11,0,1,7,6,8,-6
20032,35,-20,-3,1,0,-2,-8,0
20090,32,-12,48,5,6,2,19,-9
20150,-8,10,14,6,8,6,6,9
20212,-26,38,4,1,0,0,2,-11
20263,-26,58,16,5,7,4,-1,7
20324,2,-8,6,-6,-10,-7,10,-2
20386,112,-38,-17,-24,-46,-33,-29,-17
20449,53,-41,-14,-1,1,-1,-5,-3
20510,-20,42,-5,4,2,1,-2,-1
20570,-11,12,3,-1,-2,-4,4,-21
20623,65,-54,2,-2,-3,-5,-9,6
20686,-36,39,-2,2,4,4,1,-23
20749,31,-5,-7,-3,0,-2,-7,6
20812,19,15,-6,6,11,7,10,7
20871,-4,-3,-3,-6,-10,-5,4,12
20923,-18,-59,13,6,1,1,14,28
20975,11,-89,50,7,11,3,4,-35
21029,-4,-3,-7,-1,-4,-4,0,39
21080,18,7,29,2,4,1,8,-12
21133,7,2,-1,3,10,7,5,1
21191,-6,50,10,-2,-3,-2,-2,4
21254,1,7,1,2,5,1,0,5
21313,-11,11,2,5,11,7,-1,29
21364,8,28,-2,1,9,8,1,20
21429,-13,-17,-5,-8,-3,-2,1,8
21492,-26,-66,-11,12,15,9,2,-21
21553,9,-20,9,2,-1,-1,7,10
21614,-6,-23,16,4,-1,-3,-16,-8
21665,5,43,-9,-2,6,4,-1,-1
21727,-9,10,0,0,-1,-2,-2,-47
21777,-35,8,-11,-9,-13,-9,-13,7
21834,-11,40,29,-2,-2,-5,-10,14
21886,21,32,5,-9,-8,-10,-13,-4
21938,11,-73,1,-6,-21,-15,-6,-12
21999,-26,8,-20,0,0,0,1,7
22056,-18,-6,-8,-5,-8,-6,-9,-7
22110,-11,-38,17,4,5,2,5,-3
22171,-9,-25,-4,-1,-1,2,-3,5
22234,-6,-29,2,1,-2,-2,8,-16
22296,16,-61,-14,-1,-9,-5,-6,-3
22356,3,-71,-24,-3,-4,-5,-4,2
22410,-1,8,18,9,7,6,8,-5
22474,-19,-1,10,4,7,7,-2,94
22537,-25,13,-15,-4,-5,-4,-4,-13
22598,6,-27,8,1,5,6,12,-12
22648,31,29,-16,-5,-4,-5,5,-6
22709,28,86,27,3,-1,-2,0,-3
22772,-3,-96,12,-2,-9,-5,-7,-13
22835,-13,46,6,-6,-3,-3,-3,27
22894,6,39,2,-2,9,5,-5,-11
22945,-15,38,0,-6,-5,-6,-10,-26
22999,-4,-19,-21,1,-1,-1,1,-10
23053,-1,-9,7,0,-1,-3,2,0
23113,-15,-21,-12,-1,-3,0,-2,1
23171,-9,3,-1,-5,-4,-1,4,-1
23219,-11,20,12,1,-2,0,-4,-33
23277,7,-11,7,0,-2,-3,-1,-2
23338,-6,-11,6,0,-1,-1,-4,4
23388,5,-16,8,0,3,0,-2,-2
23451,30,-29,-14,-1,0,-2,-9,-2
23515,0,22,14,3,5,5,5,3
23578,27,19,-3,1,1,-1,-2,-1
23639,-17,15,0,0,4,3,9,9
23690,-27,12,-7,-9,-20,-14,-8,-9
23742,-30,-3,26,5,2,2,-2,-5
23796,-9,-29,-12,0,4,1,-24,-2
23851,-13,6,21,0,-7,-4,-5,-10
23901,-17,11,2,0,2,0,6,9
23959,8,24,4,0,6,3,8,24
24021,5,10,-3,1,0,2,2,11
24081,40,34,-1,2,5,1,-18,0
24135,-31,16,11,-3,-4,-2,-5,-2
24199,23,2,-10,-2,-6,-2,-1,4
24260,0,18,10,0,2,4,8,16
24327,11,-39,-20,1,3,1,2,0
24390,0,-20,-14,-5,-10,-3,3,6
24442,-9,-4,-15,-4,-3,-4,-4,-5
24495,-13,11,-15,-1,6,1,-5,-6
24559,21,-14,-6,1,5,5,0,10
24622,-4,-1,-10,1,-5,-4,4,-6
24681,-10,59,-6,1,3,3,-18,4
24732,5,-1,-4,-1,5,2,-10,0
24795,-36,19,-31,-2,6,8,15,7
24857,4,-17,-3,4,8,3,-3,-9
24920,27,70,23,3,3,1,-3,6
24981,-15,-26,-7,-1,-4,-2,-3,0
25031,-1,-5,-10,-4,-9,-8,-9,-5
25085,-12,-11,-2,-4,-3,-5,1,-6
25138,-18,-47,20,1,-5,-6,-6,-4
25192,20,28,-17,-8,-5,-5,-8,-8
25247,27,-6,-11,-2,1,-1,6,0
25302,-7,16,-10,-2,0,3,8,8
25362,-16,-7,21,-2,-3,-4,-6,-3
25413,3,28,-4,0,2,1,-4,0
25471,8,-85,10,2,4,2,1,-4
25521,21,15,-10,1,6,3,-2,-6
25573,23,-29,33,5,5,4,-23,-12
25625,32,55,-9,-2,1,0,-5,0
25681,-14,53,-10,-2,-5,-3,8,-1
25745,-20,72,16,2,-1,-1,-1,0
25806,12,8,-24,1,-1,-2,2,-3
25867,8,13,-9,0,1,1,-1,-14
25919,37,-64,87,9,0,-1,-1,-24
25971,19,-41,-41,13,-1,3,5,-6
26025,-83,-13,-50,-2,-3,3,0,10
26077,-34,64,2,3,4,4,-3,1
26134,15,-83,-24,-12,-4,0,-3,-11
26187,-11,19,11,0,-3,-2,-6,-8
26242,0,-9,-11,0,2,2,-9,2
26294,-14,6,-14,-4,-3,0,0,-25
26347,0,-51,25,9,10,5,0,-10
26406,-13,-30,5,-1,1,-2,-6,-12
26457,4,13,-14,-2,7,4,-7,-13
26510,38,74,-22,4,9,7,10,2
26563,-10,-25,6,-1,-4,-2,-4,42
26618,8,6,10,5,13,8,2,10
26669,-30,-8,1,4,-2,-3,4,23
26726,6,32,5,3,-1,-4,-3,-31
26789,-24,45,-7,-4,-4,-6,-1,-3
26849,-3,39,5,-3,-7,-7,-20,1
26899,-2,36,1,0,1,-1,1,-15
26953,-6,-29,8,2,2,2,-5,-9
27006,-9,-4,-6,-4,-10,-8,-7,7
27056,-1,50,-27,1,10,6,5,-1
27110,-3,31,-8,-1,1,1,2,8
27168,50,40,-34,-10,-6,-3,2,-9
27223,4,-27,-18,-1,-6,-7,1,-7
27277,0,47,-17,-5,-1,-1,0,2
27329,2,7,8,2,2,1,3,-12
27381,0,-17,3,1,4,5,-1,-2
27433,-9,14,-25,-5,-6,-2,10,-6
27490,23,5,-25,-10,-21,-21,-7,-22
27544,5,39,3,-2,-3,0,-2,-6
27606,0,-20,0,-4,-7,-7,-2,0
27666,11,-24,13,-4,-2,-5,-14,-12
27719,37,-87,26,8,3,-2,-12,-38
27779,6,47,11,1,-1,-3,-2,-2
27829,-11,3,6,-2,4,2,3,5
27891,-12,10,-6,2,2,3,2,4
27951,51,35,-5,-3,-4,-4,-5,-3
28005,4,-93,-8,-2,-4,-1,-5,-7
28055,6,-80,-15,-6,-3,1,2,2
28109,-4,36,-18,-3,-3,0,2,2
28163,19,-5,-1,1,0,-2,-3,-6
28215,33,7,-2,-3,-11,-6,1,0
28265,-5,-10,-20,-1,6,7,7,60
28323,5,7,-3,-3,2,3,-3,12
28371,-9,-45,-38,-5,3,0,-2,4
28432,-27,6,24,3,6,2,3,34
28492,-19,32,-6,0,0,2,3,-6
28551,-21,-1,8,4,3,-2,0,-3
28607,-30,-16,-12,-4,-2,-4,-2,1
28670,-34,-21,-7,-3,-3,-2,1,-3
28733,-25,40,23,13,-3,-4,-6,-8
28797,26,9,6,-3,-2,-3,-3,-5
28861,-10,-12,6,-4,-7,-5,-6,-10
28903,-16,-8,35,5,2,1,-6,8
28958,-24,-65,-3,-5,-14,-13,-14,-4
29007,-1,5,-21,-1,-2,-5,0,-14
29062,72,-28,-6,-1,-3,-8,-1,-10
29117,-9,-79,1,4,11,6,6,-4
29180,-28,43,-28,-4,0,0,-14,-3
29233,-13,-19,14,-2,-1,3,-1,-1
29285,-14,9,-7,2,-2,-2,8,2
29338,2,26,6,-8,-3,0,-4,5
29391,-8,-18,-20,3,5,2,-1,-3
29446,0,-6,-8,0,-8,-5,-2,-4
29505,-18,10,-18,-5,-6,-4,4,8
29554,-13,-15,-5,-9,-15,-10,-11,-9
29617,29,3,8,0,5,2,0,1
29678,-45,-16,-2,2,3,3,4,3
29737,23,15,-10,4,10,5,-3,-16
29794,-10,11,-9,-7,-10,-12,-1,-7
29851,-12,8,24,0,-3,-1,-5,-10
29915,55,-12,-3,0,-1,-2,-9,-5
29977,-30,16,1,-2,-2,-2,-3,-9
30036,23,-11,-19,-5,-2,-1,-3,3
30090,2,10,-13,0,-1,-2,-3,0
30155,29,24,2,2,1,1,0,-10
30217,-32,11,13,4,1,1,1,8
30277,-50,40,-7,-2,-3,-2,-1,-3
30333,-5,9,-22,-1,4,4,1,12
30392,-37,22,12,-5,-7,-7,-5,-4
30464,-5,-22,0,-4,-4,-2,10,-11
30516,-75,-16,24,3,5,1,-3,8
30579,-22,-66,-11,10,8,3,0,3
30630,6,-25,-10,-7,-6,-6,-10,-18
30680,74,2,-19,-11,-13,-10,-8,-33
30733,15,-3,1,0,-5,-2,-13,4
30787,16,-4,-11,-4,-2,0,-5,1
30843,-38,5,-3,0,0,-4,-12,-8
30906,0,-40,4,-1,0,-2,-3,1
30964,2,14,-2,-2,-3,1,5,-8
31022,21,-3,5,-4,-7,-4,-4,-4
31070,-1,-9,-10,-4,-1,0,3,3
31134,-6,25,19,-1,-2,-1,4,0
31199,-18,13,-9,4,1,3,3,6
31251,18,-7,-7,-7,-7,-3,-8,11
31302,9,79,-29,-5,-2,-2,4,-1
31357,-21,-64,20,0,2,4,1,-4
31417,-7,-16,-24,-3,-2,0,-4,0
31470,16,57,5,-5,-6,-7,-1,6
31524,7,41,-13,4,12,6,-9,14
31580,-8,-8,11,-4,-4,-4,-6,-8
31642,-29,-7,-17,2,5,3,4,4
31707,-9,29,-32,-3,-2,-3,2,-9
31754,-14,1,26,7,6,4,1,-3
31807,28,10,23,3,1,0,-3,-67
31866,19,-65,13,1,5,3,-22,5
31912,16,10,-21,-4,12,-5,-15,11
31966,-27,65,-49,-2,-4,-2,-2,7
32016,-24,22,-1,-4,-7,-3,3,-7
32071,14,46,39,1,-2,-2,-4,19
32122,55,31,14,-2,-7,-4,-11,5
32183,3,-67,-11,-3,-2,1,-1,-33
32247,-2,-22,-23,-4,-7,-2,-9,1
32293,-11,35,47,1,7,1,0,-8
32356,-15,11,25,4,1,3,4,14
32418,9,-12,0,4,6,3,17,0
32481,8,-44,-15,-4,-33,-1,-2,39
32542,-11,15,15,5,12,3,5,-8
32602,-5,-13,-33,-6,1,1,3,13
32659,-7,86,8,1,2,1,-3,-9
32706,53,53,-1,7,-2,-7,1,-7
32766,-24,-38,30,3,-3,-1,11,2
32818,15,4,-45,-10,-8,-3,-12,-4
32880,-37,71,29,6,8,3,9,18
32944,-13,9,3,1,0,-1,-1,3
33003,48,-59,-3,4,10,4,6,0
33051,17,29,-24,-14,-10,-8,0,3
33106,7,6,-27,-10,-9,-2,-4,7
33163,18,-119,38,4,5,2,7,-13
33225,28,-36,7,5,3,5,4,8
33284,11,-61,-2,0,2,0,-2,6
33336,-6,6,-14,-2,0,-2,-3,-21
33394,-15,-41,24,1,-3,-1,9,7
33441,11,-29,8,4,6,6,11,9
33493,-7,-19,23,3,-2,0,1,-2
33546,3,-21,7,-1,-4,0,6,-1
33606,3,0,-28,-5,-3,-2,0,-8
33667,8,47,-16,-3,1,2,-6,-12
33717,-19,17,-4,1,6,4,2,-1
33780,-10,-18,-15,-3,-3,1,4,-3
33826,20,62,-8,0,-4,-3,11,-2
33878,22,39,0,1,9,4,-5,2
33929,19,24,-16,-1,0,0,-5,-12
33984,-24,-10,-6,4,2,2,5,4
34040,-8,66,5,3,8,1,-4,4
34102,-20,33,22,1,0,2,2,1
34147,-23,-66,-7,-1,-3,-3,-12,-6
34205,4,-45,9,0,-1,-2,0,-6
34267,10,-9,1,-2,1,1,5,-1
34329,-43,17,21,4,4,3,0,5
34378,-5,-15,2,-1,-3,-5,5,-24
34431,-17,6,-11,0,-5,-3,2,-1
34483,18,-89,-23,-6,-2,-3,-7,0
34536,-3,-18,-3,0,3,2,4,-4
34591,-40,9,-9,-2,1,0,-2,-13
34647,-11,-50,7,-2,-7,-7,-4,7
34711,-20,-19,-19,-7,-8,-5,-2,8
34769,-13,32,4,1,0,-4,3,13
34822,19,46,-10,-2,0,-4,-2,0
34874,-2,-24,-13,-2,1,0,-8,-8
34927,28,62,-5,-3,8,5,-1,14
34979,-13,31,11,5,2,0,-1,-10
35033,-11,11,2,-4,-1,-5,-9,-6
35088,3,67,13,-7,-5,0,2,9
35139,-6,9,32,2,6,2,1,-1
35190,-17,-7,-3,-1,0,0,-5,-15
35250,-12,-7,-13,-5,-3,-3,0,-1
35311,-14,-12,13,6,4,1,2,8
35376,-3,-3,-6,3,4,2,-4,-1
35423,15,-82,-1,-5,-7,-3,3,-2
35474,9,-7,1,-6,-7,-5,4,-46
35538,-11,13,16,-1,-1,-1,0,1
35587,-3,-4,2,1,2,1,4,13
35645,3,-4,-6,0,-1,-3,-1,-4
35707,-10,-60,5,0,-1,-2,1,5
35767,-9,4,6,-2,0,0,-1,-4
35828,16,2,-7,-4,1,2,3,-6
35874,7,29,5,-1,-4,-3,-2,-4
35929,-17,3,-7,1,5,3,4,3
35994,-5,-1,-15,-2,-4,0,-1,1
36055,-39,7,-19,-13,-24,-15,-9,-19
36104,1,-12,10,-1,6,4,7,3
36156,18,-52,19,3,3,-1,1,-6
36209,32,-25,2,-1,3,3,3,-8
36263,-11,37,-25,-3,4,4,15,8
36316,-12,-19,-14,-2,5,2,-1,1
36374,8,19,-20,0,6,4,0,5
36438,-9,-37,2,0,2,1,-3,1
36495,-6,-41,-6,-1,-2,-2,-3,2
36555,-1,6,-3,-2,-2,-1,2,0
36609,-20,-12,-4,-3,-4,-4,0,-4
36671,8,6,-8,-2,1,0,-3,-3
36734,7,41,25,3,6,2,-22,-1
36798,-10,27,-18,5,9,7,18,9
36855,-14,-2,-13,-4,-3,-6,6,-1
36916,-19,-83,-21,-5,-4,-1,-15,5
36979,25,-13,4,-8,-27,-20,-18,-9
37041,-17,64,24,4,4,5,2,4
37107,-10,-26,-14,-1,4,4,4,2
37155,13,4,9,-3,-13,-6,-23,-2
37215,-20,-12,-20,3,7,5,3,3
37271,41,-10,-25,-2,-1,-1,4,5
37319,2,-16,-15,-5,-6,-7,-7,-5
37372,-1,6,-10,-2,-4,-2,-1,-3
37431,-10,45,-2,2,5,2,-2,1
37478,6,-2,4,3,1,1,-5,1
37538,-8,10,-4,-4,-7,-7,-9,-10
37598,7,2,10,1,0,-2,-5,-4
37660,22,-37,-4,-2,4,-1,-2,-2
37712,-11,-21,7,-9,-22,-13,-7,-11
37773,-5,-25,-16,-3,-3,-1,0,-1
37836,-2,8,-7,0,-1,-1,-1,-2
37898,-6,3,-6,-1,2,2,-6,-4
37949,0,5,19,4,3,3,-17,1
38013,-20,31,-3,0,3,2,0,1
38073,-9,22,-11,-1,1,1,5,2
38137,-11,0,-18,1,3,3,8,4
38198,37,20,-7,-6,-4,-2,-5,-5
38260,8,23,24,1,-1,0,5,-3
38312,-21,15,-3,0,0,2,-2,0
38361,7,-4,22,2,-1,1,0,2
38420,0,-5,-13,-1,3,0,-3,4
38470,-9,-64,-5,1,5,2,-3,-4
38521,24,-17,1,3,8,6,-17,-2
38579,-5,11,-9,-2,-2,-1,-4,4
38640,13,2,-7,-3,-2,1,4,3
38696,16,-16,-2,0,0,-4,1,-3
38757,-6,30,-9,1,6,2,-5,0
38821,25,-35,-8,-5,-5,-6,-23,-4
38888,12,-102,6,1,-2,2,1,-2
38941,-28,-20,4,6,11,7,3,3
39001,-35,94,46,6,4,3,1,-3
39053,-8,-10,-16,-1,1,1,-3,0
39112,-25,55,-21,-4,1,2,8,8
39164,-1,7,-3,-1,1,0,0,-2
39217,6,-7,-2,-1,-2,-1,2,-4
39273,-6,20,8,-1,-1,-2,2,0
39328,-2,-27,-20,-4,-1,-2,-5,-1
39385,-13,24,-5,-2,0,-1,-2,-1
39443,26,5,4,0,-3,-3,-2,5
39496,-12,14,1,2,4,1,-3,-2
39559,-24,-4,-17,0,3,3,0,3
39623,-15,-65,-16,-2,-3,-2,-6,-4
39683,-4,29,23,1,5,3,0,5
39746,-14,0,10,0,3,3,-14,-4
39796,-22,-13,17,0,0,-3,-1,-5
39858,-15,-1,-20,-4,-5,-4,-2,1
39921,19,-64,-7,-1,1,3,7,3
39983,0,-17,2,1,-1,-1,0,-4
40043,8,-22,-25,-4,-1,-2,-3,-4
40099,-23,3,11,1,1,-1,-18,-4
40148,19,-46,-2,-2,0,1,-5,-1
40201,-3,60,-3,0,-1,0,8,-1
40253,15,54,19,1,5,1,1,1
40306,-13,30,-4,-3,0,1,0,1
40363,-29,19,-2,1,2,1,5,6
40425,-3,-20,-20,-7,-6,-3,-2,-3
40485,7,-99,46,11,10,5,2,-10
40536,3,-12,-4,-2,-2,-3,1,-2
40602,-58,18,-22,1,1,-1,-18,1
40664,26,19,7,1,4,1,0,0
40726,38,-7,-11,-2,-2,-3,-9,-2
40785,-5,-2,-13,1,0,2,2,9
40841,10,-13,-9,2,5,3,15,-1
40901,21,20,-16,-3,0,2,7,5
40966,-4,-59,-14,-4,-9,-5,3,0
41028,-23,18,-16,0,-1,1,0,0
41085,-2,-8,-4,-4,-4,0,-26,-6
41139,-47,-36,-10,-3,-10,-7,-8,-2
41203,-16,17,-3,-1,-1,1,-4,0
41266,-3,-9,-2,2,2,-1,10,-6
41326,25,-5,3,-2,-3,-3,-8,-7
41377,6,-11,-3,-2,-6,-5,0,1
41430,-13,7,-6,-3,0,-1,1,-1
41487,-18,1,-1,1,1,0,9,-6
41551,-9,88,1,-2,0,0,3,8
41611,-9,8,-9,-1,-1,0,-9,0
41664,-25,-30,9,2,4,4,-6,-3
41715,7,6,-10,-4,-2,-1,6,-1
41771,9,6,-4,0,-9,-4,-4,3
41828,4,-32,8,0,4,1,7,6
41883,12,22,-16,-1,0,-1,3,0
41933,-2,-38,3,5,3,3,3,5
41986,-8,19,-2,-1,1,3,6,3
42036,4,-1,-5,-2,-7,-7,-28,-2
42089,-16,-32,-1,0,-6,-5,-9,-16
42150,-17,-9,0,-4,-5,-4,4,0
42210,-28,-47,-11,1,5,-1,-10,-48
42270,-10,15,11,-1,-9,-9,-3,-2
42326,4,-34,-13,-6,-3,-1,8,4
42375,-5,-28,2,1,-1,-1,-1,-6
42428,-2,-15,-20,-2,-3,-2,-3,2
42485,-22,5,-9,1,1,0,-4,-4
42532,-1,8,-2,1,1,0,-1,-6
42584,-8,1,-4,4,7,5,1,8
42638,-2,-4,1,-3,1,0,-12,13
42691,29,27,4,-2,-2,-2,-7,0
42752,40,-4,0,-2,0,2,-1,-4
42810,5,18,-6,-6,-6,-6,-4,-6
42863,-8,19,-9,-2,-1,-1,2,3
42914,-39,-10,-10,-3,-7,-4,13,1
42968,-2,3,4,0,2,0,1,1
43020,-14,-3,8,0,2,0,1,-5
43077,45,-12,-15,1,2,-1,0,0
43131,-2,-8,-8,-2,0,0,0,0
43192,17,-23,-10,-1,0,-1,-4,0
43253,-23,-42,-15,-3,-3,-2,-23,-1
43318,-3,10,6,-2,0,-3,1,-3
43374,-7,-12,-13,-2,-2,0,-1,-14
43431,8,13,-4,-3,-4,-1,-1,-5
43491,-1,-45,-18,0,0,2,-7,-5
43554,0,14,3,2,0,1,1,0
43603,7,20,-17,-4,0,-3,-1,1
43658,2,57,-8,-2,-5,-2,1,3
43710,11,-3,16,-3,-2,-2,-3,-2
43762,6,0,12,4,4,0,-1,-5
43816,3,-19,-9,-1,-3,-2,0,-1
43873,-29,61,2,1,8,7,3,3
43936,39,7,1,-3,-9,-10,-5,-4
43996,3,-4,4,-1,-3,-2,-2,0
44059,-7,31,-25,-8,-8,-7,-4,0
44107,39,0,9,-2,-4,-5,-11,-14
44170,-6,2,-7,1,5,4,-4,3
44233,29,8,-21,-4,-2,1,9,1
44295,-7,-6,15,0,-1,-2,-2,1
44356,14,62,0,-4,-1,-2,-5,-1
44409,19,-3,39,18,4,-3,-5,-5
44471,13,31,-7,-5,-11,-10,3,-6
44534,3,-18,3,1,0,0,-6,-3
44596,-7,43,51,10,7,4,0,1
44657,9,-21,-14,-1,-2,0,-3,3
44711,6,5,5,0,1,-1,0,-1
44761,-6,-6,-23,-4,-1,-1,-28,2
44814,-27,-14,-14,-4,-3,-1,-6,-14
44870,-26,-25,-27,-3,5,1,8,0
44918,2,-24,-9,0,1,-1,0,-7
44977,-50,-30,-14,-3,-2,-2,-3,0
45039,26,4,2,-3,-6,-3,-16,-3
45088,22,-21,11,3,-1,2,5,-1
45152,23,-3,2,-4,-4,-1,-7,0
45216,6,-22,-13,-4,-1,-2,-10,2
45280,-3,21,-9,-2,2,3,5,-2
45339,12,9,-14,1,-1,-4,-3,-11
45397,12,-9,-10,-3,-3,-1,-3,-1
45454,19,65,1,-2,-1,2,2,19
45516,5,22,2,-1,-3,-1,-5,-8
45581,17,17,14,1,1,0,-1,-1
45639,-51,68,-2,0,1,2,1,-1
45691,27,28,-12,-4,-3,0,4,0
45742,-18,-25,-18,-3,-1,-4,-3,1
45795,-28,-20,27,7,8,0,0,-15
45849,7,-12,4,-3,-2,-2,-2,-10
45906,17,53,12,-13,-7,0,5,35
45959,-13,55,25,4,5,3,10,11
46022,4,47,-26,0,1,-1,-8,-2
46084,-1,17,-21,-7,-2,0,-17,7
46136,-10,9,-3,0,-4,-2,1,-2
46197,-65,-3,-5,2,9,5,1,-10
46262,8,31,4,-2,-2,-3,8,6
46323,31,-22,7,-1,0,-1,-3,-1
46382,-13,-15,-1,0,-1,1,-2,-1
46435,22,7,3,-2,-11,-6,-1,4
46497,-1,14,-10,3,0,0,3,12
46560,1,22,-3,-3,-2,-1,-7,-2
46622,-9,-18,0,1,1,0,-6,-7
46682,6,2,16,0,3,1,-4,-6
46743,-22,28,26,2,6,2,-7,-2
46794,-7,20,-9,-1,-1,0,2,16
46844,-18,2,8,2,7,2,0,0
46898,-9,-10,0,-1,0,-2,0,0
46957,-7,2,14,4,5,2,-1,1
47004,-17,-27,-13,-6,-11,-4,-29,-5
47065,-15,-13,0,1,1,0,1,-7
47124,13,63,15,4,4,4,9,10
47184,-8,6,-1,0,-5,-4,7,0
47241,7,-30,-19,-2,4,4,3,13
47303,7,13,-9,4,3,2,8,6
47365,-16,5,0,-8,-8,-7,-7,-7
47428,39,-48,-11,-5,-4,-4,-6,-8
47490,0,-20,1,-3,-6,-3,-5,-9
47537,-5,-28,0,3,6,2,-3,3
47600,-26,1,-12,-4,0,-1,9,-1
47662,-3,-2,-4,-1,1,-1,0,4
47725,8,-1,-23,-4,0,0,-6,-1
47783,11,-3,-12,-8,-9,-7,-12,-5
47837,0,41,0,-3,-2,0,0,2
47901,-19,-20,6,2,1,0,0,2
47963,8,28,-12,-7,-10,-7,-8,-2
48024,6,-102,-5,1,0,2,-3,-6
48084,4,31,21,-1,-5,-4,-4,-4
48136,4,-6,-13,-3,1,1,0,0
48188,-19,10,-12,-2,2,2,4,-1
48242,25,-17,43,5,8,4,3,-1
48295,-9,-9,14,-3,-2,0,-2,1
48346,-7,-6,11,2,5,4,0,-1
48405,-14,3,-10,-1,0,0,3,-2
48467,-19,-1,5,-1,-7,-3,-2,0
48526,-4,8,-4,2,5,4,5,2
48579,-19,13,-17,-4,-7,-6,-2,0
48631,-9,10,7,1,1,-2,-26,-3
48683,-11,-11,-16,-2,0,0,-4,0
48740,-24,-22,-8,0,-5,-2,3,-1
48789,13,4,-2,-2,-1,0,13,-1
48846,0,37,-44,-10,-5,-2,2,1
48908,12,0,6,-1,0,-2,-2,-1
48969,0,-50,-14,0,0,-1,-3,-1
49022,5,7,-1,0,-1,-2,-1,-4
49085,-11,1,1,2,4,4,8,0
49137,-12,-33,23,-1,-3,0,-2,-2
49186,-3,26,-2,-2,-3,-5,-1,-2
49245,-6,-11,-1,0,0,1,-16,0
49307,-10,-2,4,-2,-2,-3,-2,-2
49368,-4,-2,-9,-2,0,-1,0,-2
49428,17,58,2,-3,-2,1,5,8
49480,8,-10,-23,-1,3,3,-1,4
49531,-39,-26,-27,-7,-6,-5,-5,-5
49591,-6,48,9,2,-1,-1,-6,3
49651,6,-111,-12,-1,-2,-1,2,2
49711,-5,4,26,4,5,3,-26,-2
49765,-21,-29,47,9,4,-2,-8,-3
49818,-13,32,78,8,7,4,-2,1
49870,1,62,-13,-5,-3,-3,-2,-4
49923,-3,31,-1,-2,-3,-2,5,2
49974,17,6,-4,1,0,2,1,-2
50025,6,8,-10,-4,-3,-2,-3,6
50079,11,39,12,-2,-6,-8,-22,-8
50139,18,-82,18,1,-1,0,2,-4
50191,-19,27,-15,0,1,-3,-2,1
50245,65,-84,-6,-3,-1,-4,-27,-8
50296,-21,13,1,-3,-8,-3,0,5
50347,-12,31,26,1,-1,-2,-6,-5
50409,7,32,-6,-4,-4,-4,1,-2
50469,-10,21,1,0,0,0,9,2
50522,0,8,8,-3,-1,-3,3,0
50576,-19,-4,-7,-3,-2,-3,-7,-6
50634,3,-64,2,-2,0,-2,-4,-4
50694,-19,-14,3,1,-2,-2,0,-1
50746,-1,13,9,2,2,0,-3,-3
50800,7,27,1,-2,-5,-5,-6,0
50851,0,9,14,0,3,1,6,2
50903,-17,-92,-8,-4,-4,-5,-4,-7
50957,-7,0,0,-2,-6,-2,-3,-4
51008,3,47,-16,-4,-5,-5,4,0
51065,-31,2,-16,0,0,1,0,-1
51115,-2,15,-1,-2,0,-1,1,-2
51174,-1,95,22,-2,-2,-1,6,10
51234,-3,-17,-1,-3,-6,-2,2,-5
51294,48,-1,4,-2,-7,-4,3,7
51345,3,10,-2,-3,2,1,-5,2
51398,-7,8,15,0,-1,-2,-1,-3
51452,-9,-28,-22,0,-1,-3,-4,0
51505,-14,41,4,0,1,2,-3,4
51559,14,-8,7,-2,1,-2,14,3
51614,39,-18,-11,-4,-1,-3,-4,-6
51677,-16,21,4,-2,0,-1,-4,-1
51736,33,-8,-8,-1,-2,-2,-7,-36
51797,7,7,2,-3,1,-1,1,-3
51853,-22,0,-29,-6,1,2,-1,17
51901,18,-2,-1,0,-2,0,-3,0
51954,-28,45,5,-2,2,1,5,0
52011,7,19,12,4,2,-1,-5,0
52074,35,24,13,-2,-3,-2,-6,-1
52134,-7,12,-5,0,1,0,-15,-4
52193,15,44,5,3,4,2,6,4
52241,3,7,7,-2,-3,-2,-5,-4
52300,-23,18,-3,0,3,2,0,2
52362,6,-12,-13,-2,0,1,-22,0
52421,-44,12,-33,-3,1,2,0,1
52474,-31,13,9,1,-5,-3,-5,0
52536,4,-23,-3,-5,-11,-6,0,-5
52597,-56,-31,-16,-8,-14,-12,-22,-9
52659,44,-22,-16,-10,-14,-9,-4,-6
52721,68,-37,20,-2,-4,-3,0,-11
52770,-23,17,18,1,-3,-3,-5,-6
52833,12,-10,-6,0,4,3,10,5
52897,-21,-12,-9,1,-1,1,-3,2
52959,8,73,-48,-6,-7,-3,-2,3
53019,2,-87,9,1,1,2,3,-2
53071,3,-19,-4,-3,-2,-2,0,-1
53134,4,-24,-20,-7,-2,-2,-4,-3
53198,-2,-66,-14,0,1,2,2,2
53260,-16,8,-1,-1,-1,0,4,0
53320,6,14,6,0,3,2,0,-3
53376,9,3,4,1,4,3,8,0
53423,-5,-46,0,-2,-8,-5,-10,-2
53477,-4,39,19,-2,-5,-4,-8,-7
53536,-15,8,5,-2,-2,0,-3,0
53583,5,9,21,-1,-7,-4,0,-4
53642,4,-33,-8,0,5,1,5,2
53703,-26,15,-33,-3,-5,-3,4,5
53763,-4,43,-26,-2,-5,-3,3,3
53817,-8,16,10,2,1,3,-2,3
53867,-46,-6,-30,-4,-7,-6,1,-2
53919,-7,15,3,1,3,2,1,5
53977,23,-7,-8,1,9,5,12,-1
54024,6,-2,-10,-1,1,0,3,0
54076,-48,23,-6,-2,-2,-3,-1,-3
54129,-8,-11,-1,1,2,1,3,2
54185,6,-21,-5,-2,-1,-3,6,-1
54240,-12,17,-34,-1,1,1,-5,4
54303,7,-10,-4,-1,-1,-1,-1,-1
54364,2,-22,-10,-2,-3,0,2,-1
54423,-2,-34,-13,-3,-5,-3,0,-2
54485,5,-6,-2,-1,-4,-2,-1,-4
54540,1,-4,-8,0,-1,-3,-2,-1
54601,-18,-15,4,4,10,5,3,4
54662,7,2,16,0,-2,-3,2,-1
54725,5,-2,21,2,5,5,4,0
54775,-19,-22,2,-1,-3,1,17,5
54827,-6,10,34,4,1,-1,-1,2
54879,-14,36,-11,-1,1,-2,-1,0
54940,11,-16,9,1,0,-3,-11,-7
54986,-2,22,17,0,0,0,-13,-2
55044,-25,-21,-9,-4,-2,-1,-4,0
55106,31,48,-7,-5,-5,-1,3,-4
55165,2,100,5,2,3,3,3,5
55223,-12,-34,-8,-2,-2,-1,7,3
55268,-37,14,6,-2,-11,-7,0,-3
55321,12,-18,-9,-4,-9,-3,-1,-2
55380,-22,-12,-20,-2,-3,-1,0,1
55427,-10,30,-1,-1,-2,1,-3,1
55482,-13,30,0,3,8,8,12,9
55545,3,-12,-25,-4,-4,-3,-8,-1
55608,-5,12,2,-4,-8,-7,-2,-3
55668,-2,23,10,4,7,4,3,-2
55718,11,29,-5,-2,1,-1,-3,2
55781,11,-58,6,4,11,6,7,2
55845,14,52,-10,-7,-18,-12,-33,1
55907,32,9,-19,-3,-4,-2,2,0
55968,4,-5,-16,-3,-2,0,4,-6
56018,-10,-29,-18,-3,-8,-4,-4,-3
56083,0,12,-6,-3,-5,-5,-9,-4
56146,10,-36,-22,-4,0,0,-1,4
56208,10,-46,5,2,1,0,2,-2
56268,-16,29,-25,-1,-1,0,-5,2
56320,1,-9,-3,-1,-3,-1,2,0
56371,9,-33,29,2,-1,0,-5,1
56425,-13,38,30,3,0,1,-4,0
56476,25,1,-14,-4,-2,-2,0,-1
56530,-7,-33,-1,-1,2,-1,-3,3
56586,14,6,10,0,4,5,10,-3
56649,-12,-7,-13,-4,-6,-2,-2,-1
56710,7,49,-13,-2,0,0,-1,-3
56770,-1,-4,14,2,3,3,8,1
56825,-3,12,-3,-4,-8,-4,2,-5
56885,-9,-1,-1,-1,-1,0,7,-1
56949,-53,-9,-6,-3,-4,-2,-1,-2
57012,-33,22,29,1,-3,-4,1,-3
57070,-42,32,2,0,2,1,-2,-3
57131,-43,-8,-1,0,-1,0,-18,4
57193,-13,-25,0,-1,2,2,2,0
57256,-14,-61,-2,1,-1,-1,8,0
57311,-2,59,-24,-5,-5,-2,10,4
57370,-20,20,-8,-2,-3,-2,-5,1
57423,14,28,2,-5,-4,-4,-5,-3
57475,24,-13,6,-2,-4,-2,11,0
57527,-26,1,-5,0,-2,-1,-5,-1
57582,-46,-84,13,2,-9,-7,-7,-7
57636,-24,11,-10,-4,-1,0,0,-2
57692,13,32,-3,-3,-1,0,0,0
57747,4,-29,13,-2,-12,-10,12,-4
57798,5,29,-15,-5,-6,-5,1,0
57849,7,-6,-28,-2,-2,2,3,4
57902,-27,-2,-4,-1,1,1,-1,1
57956,-28,16,2,3,11,5,4,1
58005,-19,-21,13,2,3,1,6,2
58059,2,-16,-12,2,4,3,-2,3
58117,-20,71,3,0,-2,-1,-16,6
58165,-21,14,-19,-5,-8,-2,0,2
58217,-1,-4,-28,-6,-6,-3,10,-2
58269,7,-1,9,-1,-5,-2,-3,0
58324,7,-57,-8,-5,-9,-7,-12,-4
58377,-5,-52,-1,-4,-2,-5,-8,-2
58433,35,-28,1,-3,-5,-3,-3,-2
58496,-30,2,14,5,8,4,-3,1
58554,19,-3,-23,-2,2,1,0,6
58607,1,-16,-11,0,-1,-1,11,-3
58660,-25,4,-14,-4,0,-3,-4,-4
58714,12,-52,-21,-3,-1,0,4,1
58771,-6,-2,-7,-1,-9,-9,-6,-3
58817,-5,34,-5,-2,-6,-3,-1,-2
58876,-27,-7,-21,-1,11,9,4,1
58940,26,-18,-37,-4,-3,0,-3,-2
58999,9,-12,2,1,-2,-1,-6,-1
59055,-9,3,3,-3,-1,-3,2,-2
59101,-3,11,-2,0,2,4,2,-1
59159,-8,-38,-4,0,3,0,7,-2
59216,-3,51,31,2,1,4,4,3
59276,-20,-33,-19,-3,-3,0,-7,-5
59320,-2,6,5,1,3,0,6,-2
59374,-6,-41,24,3,3,2,-12,0
59425,4,22,-17,-4,-4,-3,1,6
59478,-28,29,-9,3,1,1,7,3
59537,-13,-23,2,-5,-5,-5,-5,-5
59598,5,28,30,2,-2,-4,2,-2
59650,10,41,-12,-4,-5,-7,-10,-1
59702,-13,-25,-2,2,3,1,-11,-1
59755,-2,-15,-10,-2,-1,0,12,-2
59806,32,-42,19,2,1,-1,6,-1
59861,13,1,7,3,3,1,2,3
59917,-24,76,6,0,-3,1,4,2
59981,6,45,1,-3,0,-3,3,-1
60040,40,41,-4,1,2,0,1,0
60093,-3,-26,-6,-1,-2,-5,-6,-2
60155,8,-42,19,2,5,6,10,0
60227,15,-65,3,1,2,1,3,-2
60290,-2,-2,1,-4,-13,-9,-5,-5
60343,23,-92,-7,-2,-3,-1,-11,-5
60395,9,21,-11,-3,0,-2,-2,-6
60458,-13,46,-5,1,1,2,-3,-3
60522,3,-7,10,0,-2,-3,-8,-2
60581,-10,-29,24,4,1,-1,0,2
60643,-4,-30,14,1,-1,-1,1,4
60693,23,-16,2,-2,-3,-3,-2,4
60745,26,-1,-10,-4,-3,-5,-6,2
60798,-9,-37,1,1,4,2,-5,1
60851,-15,-13,-13,1,1,-1,3,2
60907,-29,15,-28,-2,4,1,-1,2
60964,-11,-2,-12,-3,-7,-3,-6,-6
61023,10,0,-8,-4,-9,-7,10,-6
61084,7,17,-2,-2,-2,0,-3,2
61138,60,-55,-11,-3,-4,-3,0,-1
61201,17,-11,-1,-1,-2,0,4,0
61263,-9,-12,16,4,7,6,12,-6
61326,10,-8,-1,-2,-4,-2,-3,-7
61373,-27,51,-14,-3,-1,-2,2,-10
61436,9,33,1,2,-5,0,1,11
61498,-6,-46,3,3,4,2,1,10
61561,33,-18,-6,8,6,4,-3,-13
61623,-35,-28,7,-5,-7,-3,-4,-2
61683,3,24,-11,-2,1,0,-5,-2
61736,21,-4,-19,-4,-9,-4,-3,3
61800,12,-30,12,2,8,5,3,-1
61861,-7,-40,-16,2,-2,-2,-6,-9
61923,-8,28,-11,0,0,0,-1,8
61969,6,47,32,3,2,3,1,-4
62020,-6,-23,-10,-3,-1,1,1,2
62084,27,15,-10,-5,-2,-1,-12,-14
62147,-32,22,-6,1,5,6,9,12
62193,-35,-22,2,0,-5,-6,11,-15
62245,-55,-43,-2,0,-4,-3,0,-8
62304,-7,25,-8,0,2,0,-4,4
62366,15,-8,1,-2,-2,-4,-5,-10
62425,24,22,16,-3,-2,-1,-1,-5
62478,0,3,-9,-4,-1,0,-4,4
62543,-21,17,2,-4,-9,-4,-4,1
62592,7,-13,-4,-1,0,-1,-8,1
62645,50,14,13,-4,-4,-4,5,-3
62700,10,10,-14,-2,-2,-2,0,3
62763,-14,9,10,1,0,0,3,0
62823,-27,-82,0,0,-6,-3,13,-2
62875,-7,-27,-3,-3,0,-2,-3,-8
62928,-18,-17,-17,1,4,1,7,0
62987,-1,1,0,1,1,0,3,-7
63049,8,9,4,-1,0,0,-1,-13
63109,-15,4,-4,-1,1,2,-3,2
63162,2,35,-12,0,0,-1,1,6
63225,-14,-91,-8,-3,-8,-6,1,-5
63289,-7,-38,26,4,3,2,-1,-17
63350,-34,-49,3,0,-3,-4,6,1
63401,-19,9,-5,0,2,1,7,-43
63466,30,45,5,2,-1,-2,-2,-5
63529,-9,7,-12,-2,3,-1,-5,-1
63593,-12,13,-4,-2,3,3,-5,-9
63648,-3,46,-36,-3,5,2,6,-26
63700,18,-5,-12,-3,-4,-1,-18,12
63760,3,0,-7,-2,2,2,-7,-18
63814,49,-15,-28,-4,-1,-3,-8,-4
63868,-20,44,26,8,4,0,-2,27
63920,-32,-28,-15,1,3,1,-5,-8
63975,-12,-47,-22,-1,4,0,0,16
64031,19,-11,-4,-1,-1,-1,-2,-2
64092,-16,-4,-12,-2,3,0,3,-3
64143,-10,-19,6,1,-7,-5,-6,-6
64204,-14,40,-13,-6,-1,-1,-1,10
64267,-8,-63,6,1,0,1,-4,-3
64330,0,15,-7,1,1,0,-15,-5
64391,19,3,-6,-3,0,1,3,-10
64452,-13,9,-23,-1,6,3,3,56
64507,-13,47,8,2,0,-1,-6,1
64571,33,23,-15,-2,-2,-1,6,2
64630,-7,-2,-26,-1,6,5,7,12
64692,-22,-11,11,-1,-1,2,3,4
64753,46,-26,0,-2,1,2,-1,-1
64803,55,51,-3,-2,1,1,4,2
64855,0,12,2,-1,-1,-1,-7,-5
64908,-6,-13,-4,2,7,3,17,7
64962,-9,-4,-3,-2,3,2,22,0
65014,-51,-27,-23,-7,-10,-3,1,0
65074,19,11,-5,-5,-8,-8,-12,-6
65134,-6,-17,8,-1,3,1,12,-4
65201,-25,7,4,-2,-1,-2,-27,-4
65248,-14,2,21,4,1,2,-17,-1
65310,-1,55,19,1,-4,0,-12,4
65374,4,29,-7,-1,0,0,-2,-3
65436,-6,11,-6,-4,-4,-2,0,-4
65494,-5,-42,-2,-2,-4,-3,-4,-9
65551,32,-69,18,1,-4,-2,-7,-2
65617,-15,19,-18,0,1,3,10,1
65680,15,9,-10,-6,-3,-2,-1,3
65734,0,-28,-38,-6,-6,-6,2,-2
65785,-30,-93,22,0,-3,-4,4,-9
65838,-9,43,-5,0,-4,1,18,3
65892,-16,56,-7,-3,-4,-1,-3,1
65945,-11,17,-1,-1,2,2,0,-2
65999,-32,52,6,0,0,1,-20,6
66054,13,-35,-7,-3,-2,-1,-2,-2
66116,20,-22,-3,-3,-1,-7,-1,-3
66166,-2,7,0,0,2,-1,-4,0
66221,-16,-1,-9,2,2,2,2,0
66282,-22,-17,-15,-3,0,-2,-3,-7
66324,20,3,7,2,4,1,7,13
66378,-21,-25,-12,-7,-4,-2,-25,-12
66434,-34,1,-19,1,-3,-1,-22,-4
66498,21,-8,-6,-1,4,1,2,3
66559,-8,36,-17,0,3,-1,2,-6
66618,-10,10,2,-4,-1,-2,-4,-6
66671,-28,32,-4,-5,-7,-7,-2,-3
66723,-1,-28,17,-4,-3,0,2,2
66779,-39,27,27,-3,-4,-1,1,7
66828,2,20,-18,2,2,1,5,0
66880,-32,-21,-16,0,2,-2,5,4
66934,-12,26,12,0,4,1,10,-3
66986,-22,5,12,4,7,2,-7,-11
67039,-24,23,-18,-2,-2,-2,2,-3
67100,26,-37,-11,-4,-3,-1,-1,-2
67164,16,-31,-15,-5,-10,-5,2,5
67210,18,-15,5,1,-1,2,4,-2
67265,-11,-9,-13,1,-1,0,5,1
67315,11,-2,-13,-3,1,-1,-4,-7
67367,11,-23,-9,-3,0,0,2,-3
67421,3,-8,5,5,9,4,6,4
67483,-11,-3,-5,-2,-2,-3,-4,0
67547,-35,27,-5,-2,-4,0,-20,0
67611,62,36,-11,-5,-3,-2,11,-1
67664,-5,-46,3,1,1,-1,0,0
67717,-11,48,-1,-1,0,0,-2,2
67765,-13,-84,12,-1,-1,-1,-2,0
67819,-19,84,0,4,1,-1,-3,6
67875,-5,5,-10,-4,0,0,-3,4
67938,-15,-16,11,3,0,1,-1,-6
68000,40,9,6,0,0,-2,2,1
68056,-24,-34,-8,-3,3,2,4,14
68105,-27,28,-9,-3,-3,-2,4,0
68161,42,-11,4,-6,-4,-2,1,-4
68218,-1,-20,-4,1,-1,-1,3,-1
68271,22,-27,-10,-2,-6,-4,3,-3
68322,-3,12,41,3,-5,-3,-1,0
68380,-19,5,8,2,2,3,4,2
68442,2,-1,-8,2,7,6,-1,1
68503,-24,-17,12,-3,-5,-5,-1,-7
68558,2,4,2,-4,-8,-3,-2,-7
68605,24,20,3,-3,-2,0,2,-8
68659,-4,23,1,-1,-3,-3,1,1
68718,-1,-7,-5,0,0,-1,2,-1
68764,-3,-11,-2,0,-1,-1,3,2
68824,-6,-18,1,3,5,5,10,6
68884,-8,-15,-14,-13,-20,-16,-1,-11
68944,0,-121,-14,-7,-10,-7,-35,-10
68998,10,-52,7,6,11,7,15,-1
69061,39,18,10,1,-3,-4,-1,-2
69125,6,23,11,0,-1,4,6,-5
69189,8,-2,8,0,-1,-1,-7,-4
69254,-24,-27,-9,-5,-5,-2,0,-3
69305,-11,28,-7,0,2,0,8,1
69357,-26,-7,-13,1,6,4,1,7
69408,-29,-9,-6,0,0,3,2,-1
69461,-11,-17,-10,1,3,2,0,1
69515,-30,27,0,2,4,2,2,4
69572,13,22,-2,-1,-2,-2,0,-4
69626,-16,-49,14,2,0,-3,1,-1
69688,7,23,15,-1,-3,-3,2,-4
69748,13,-7,-20,-6,-5,-5,-6,-7
69802,7,22,-19,-5,-7,-6,-1,-2
69865,-16,13,4,-12,-41,-22,-13,-4
69925,9,-8,-13,-2,2,1,1,1
69988,16,-1,2,2,5,1,-4,-1
70048,9,-3,-2,-3,-4,-2,0,-2
70098,9,23,-12,-1,0,-1,-2,0
70161,-11,21,-8,-3,1,1,0,0
70225,5,1,-1,0,0,2,-1,-4
70287,6,15,-21,0,1,2,1,4
70347,0,18,42,7,-2,0,-2,-7
70407,5,24,-2,-4,-8,-5,-14,0
70459,36,-6,7,-1,2,2,-4,-1
70513,-13,9,10,-3,-5,-4,-7,-7
70566,14,13,3,-6,-7,-7,9,-4
70618,-12,26,4,1,4,1,-3,1
70672,-15,8,0,-2,-1,0,6,2
70728,-23,-47,-2,-1,-1,-2,3,1
70793,-1,-3,5,0,1,-1,-2,-3
70850,-9,37,-8,1,-1,0,-1,4
70903,-7,6,8,-1,-2,-1,2,2
70967,18,-4,0,-2,1,-2,-2,1
71029,22,9,-1,0,-1,1,3,-1
71090,2,-12,-10,-1,-1,1,-1,0
71143,-13,-3,5,1,0,1,-4,-4
71202,-18,27,6,0,0,0,0,1
71248,-26,17,13,3,4,4,-4,2
71299,8,9,-20,1,7,5,12,10
71353,1,-9,-6,3,5,7,6,4
71406,10,77,22,1,5,1,2,0
71469,-6,27,21,4,6,2,-2,3
71533,-6,-23,-1,3,2,0,4,1
71592,9,-25,-6,-1,-2,-2,-2,-3
71645,34,-51,-5,-3,-3,-2,3,-3
71707,1,5,3,-1,-1,-1,-2,-5
71772,15,15,11,0,-1,0,-3,1
71835,-16,-52,-3,0,3,2,0,0
71897,6,45,-1,0,2,0,2,2
71943,-24,-21,3,2,2,2,6,-5
72006,-11,32,4,3,4,2,4,1
72070,-10,-5,5,-2,-4,0,1,1
72133,4,-12,-3,2,5,3,1,1
72192,3,-3,2,-1,-5,-3,2,4
72247,4,-23,9,1,-2,-2,-9,0
72295,-11,21,22,5,3,2,3,3
72349,-10,-32,-6,-4,-5,-3,-2,-6
72403,13,32,13,3,-1,-4,0,-2
72454,-2,11,4,2,-1,-1,3,-1
72515,-24,-1,12,1,0,-2,-3,-2
72577,-42,-40,-38,-9,-7,-6,-11,-6
72626,0,40,-6,-3,-12,-3,1,2
72679,4,3,26,3,3,1,-1,0
72733,-31,-70,-11,-2,-2,0,-1,-4
72784,-14,-91,-19,-3,-1,-1,7,-4
72837,28,-2,-9,-2,-5,-5,-3,-10
72888,-13,23,11,1,4,3,6,2
72943,1,-5,2,-2,-4,-2,-4,0
73006,-16,23,-4,-2,-1,-2,-2,4
73056,-20,4,-18,1,1,0,-1,-1
73123,-1,77,9,1,-3,-2,-6,-1
73177,8,23,-5,0,1,3,-1,1
73226,12,-24,-9,-3,-9,-10,-7,-8
73284,5,26,10,2,4,3,-4,1
73332,-5,8,-9,-1,0,-2,4,4
73384,-4,56,0,1,2,2,5,0
73439,1,20,-20,1,-1,-1,0,1
73502,-18,38,-4,2,5,2,15,2
73563,-5,27,33,6,7,5,3,3
73617,-21,1,-12,-3,-9,-7,-14,-4
73678,8,31,6,-1,-5,-2,2,-2
73731,0,-6,-11,-4,-4,-3,-5,0
73795,12,-1,-15,-2,-1,0,4,0
73858,-17,27,0,2,2,3,12,0
73917,10,-3,9,1,-4,-4,-1,1
73980,-14,10,-5,1,-1,-3,-8,-1
74028,15,21,3,-2,-7,-4,-8,-4
74082,11,-6,-30,-3,-1,1,9,7
74136,-2,-59,15,-1,-10,-6,-6,-2
74188,0,-5,-4,0,-6,-4,2,2
74239,-15,-12,-3,1,1,2,0,1
74295,-12,-26,5,2,1,0,-3,-2
74359,-19,3,1,0,0,-2,2,-4
74420,16,-33,-5,-1,-1,-4,-3,-7
74479,-32,-15,15,1,-1,-2,5,-1
74533,-4,-1,2,-1,1,1,0,1
74586,24,3,-7,-5,-8,-3,-7,0
74638,2,-43,4,-1,-2,-1,-28,2
74690,12,-1,-12,-2,-1,-1,-4,1
74748,-13,5,-24,-7,-1,-3,2,-5
74801,23,20,9,-3,1,0,-3,1
74854,-24,55,-6,-1,-1,-2,-7,-1
74907,-18,9,-25,-3,1,0,0,9
74963,24,-45,-7,1,-2,0,0,0
75024,-5,6,10,1,1,3,7,3
75087,-19,25,14,-1,-2,-1,-1,2
75135,10,29,-4,0,-1,-2,5,-5
75199,4,-25,7,1,-6,-3,0,2
75260,87,-78,-6,-4,-7,-8,-4,-1
75321,19,1,-6,-4,0,1,-2,0
75377,1,28,-5,-2,-4,-3,0,-4
75424,-18,58,10,1,1,1,-4,5
75478,5,-19,-4,-6,-3,-3,-5,-8
75537,4,21,17,2,-1,-1,-1,2
75597,15,-3,-4,0,1,0,-1,9
75644,7,26,-1,2,4,0,-3,-7
75702,-6,-7,2,-1,-3,0,0,-5
75762,15,-6,-4,-1,-1,-3,0,1
75820,-34,-8,1,1,4,1,-1,-2
75866,-10,24,6,1,0,0,-19,-7
75919,15,41,3,-1,-2,-1,4,-4
75980,-21,-15,-8,1,6,-1,1,0
76039,-12,-2,1,0,-2,-3,13,2
76087,-9,21,28,1,-4,-3,-3,-4
76144,-7,-2,5,1,2,3,4,-2
76205,7,-16,-10,-5,-4,-2,-7,-10
76265,40,6,-25,-4,-8,-7,-11,-5
76326,-31,-24,-6,-1,2,2,7,-1
76384,18,10,16,2,4,1,0,-8
76450,-14,-29,3,0,-1,-2,-1,4
76506,-35,-10,-3,-2,-5,-2,-4,-4
76567,2,21,-8,-1,0,1,4,5
76619,21,14,-2,1,2,1,0,1
76682,-23,1,3,0,7,4,5,-13
76745,-13,32,-2,-9,-29,-16,-1,-5
76805,-9,12,15,-1,-2,-3,-6,-10
76857,-16,8,2,-2,-3,-1,-7,-4
76913,3,3,-6,-3,0,-3,-3,-1
76975,-10,14,8,-2,-3,-2,-6,-3
77022,-9,36,-6,2,6,4,-6,6
77078,-50,-45,-3,-3,-3,-2,-6,-4
77129,30,3,1,-1,-3,-1,-1,7
77187,-14,10,-6,-3,-5,-4,-5,1
77247,8,-11,3,1,1,-2,-1,0
77303,-10,-6,7,-1,0,0,-3,0
77366,-16,21,-1,-1,1,-2,-8,-4
77425,-5,-32,5,1,2,1,-2,-2
77486,18,-25,0,-2,0,-2,3,2
77550,38,17,-6,-1,1,-1,-2,-2
77608,-9,21,2,-2,-8,-4,-2,-2
77658,-15,56,-8,-1,2,0,3,-1
77721,-15,-18,-26,-5,-2,-2,-4,-4
77785,-25,-24,11,3,2,0,0,-2
77848,-55,22,-28,-8,-7,-5,-8,-5
77907,-10,7,-10,-1,1,0,2,0
77957,17,-19,-3,-1,0,0,5,3
78016,-1,42,-8,-2,-2,1,3,3
78066,13,-11,-7,-3,-3,-1,-2,-2
78115,31,4,21,3,0,0,5,2
78172,12,11,-7,0,1,-1,-18,1
78225,12,-5,-13,1,2,-1,-1,2
78288,19,-15,35,3,-3,-4,-3,-4
78351,-5,-28,-10,-2,-5,-1,-3,1
78410,-5,7,4,3,4,3,1,2
78462,-4,3,19,2,1,-2,-3,-4
78516,-10,-2,-6,-1,-1,-1,-4,-3
78570,-7,-19,-11,-2,-1,0,-7,1
78629,-14,-9,10,1,2,-1,12,-3
78684,-26,31,11,1,1,0,0,2
78733,-1,-1,-1,-2,0,0,7,3
78793,5,-13,-16,2,-1,0,4,1
78853,15,2,-15,-1,6,4,8,2
78905,-20,25,0,0,2,1,1,0
78968,-9,7,0,-1,0,-1,2,0
79031,6,7,-26,-4,-2,-1,-2,-1
79093,-14,25,0,1,4,2,5,0
79158,-5,26,5,1,3,3,-12,-1
79214,7,-10,12,-2,-2,-3,1,-4
79268,31,-31,-5,-1,-1,-2,-2,-2
79330,-13,22,23,0,-2,-3,-1,-6
79396,-9,32,-6,-1,1,2,5,2
79454,3,-6,-2,-1,-3,-3,-1,-1
79516,5,-38,-7,-1,1,-1,-5,-4
79567,-39,-9,-12,-2,-4,-4,-5,-3
79630,16,8,-18,-3,0,0,-2,0
79678,-12,-55,7,-1,-3,-2,-5,-4
79730,0,2,-8,-3,-5,-6,-8,-1
79787,28,0,3,-2,-1,-2,-3,-3
79839,1,-1,-2,2,2,-1,-2,0
79896,-1,-39,-7,0,2,1,4,-1
79957,-2,1,-13,-2,-6,-4,1,2
80012,-18,11,-10,-1,-1,-2,-3,-2
80075,3,-10,9,-1,-5,5,-2,-2
80137,-23,-8,-6,1,-2,-2,-5,-3
80200,-23,-17,-9,-1,0,0,0,-1
80256,-14,63,-17,-2,2,-1,7,6
80316,-13,50,-18,-3,-7,-3,-3,2
80368,4,-12,-11,-1,4,3,2,0
80430,-1,20,25,1,-4,-3,13,-3
80494,-5,-17,-14,0,3,4,-3,0
80557,19,14,1,-3,-5,-5,-6,-1
80616,2,-11,17,2,0,0,-7,-2
80673,22,-20,46,5,2,0,1,-4
80733,12,-14,40,4,0,0,3,0
80796,23,-9,-13,1,-1,-1,2,-1
80856,0,-7,13,1,-7,-4,-7,-5
80917,0,17,24,-1,-4,-3,-3,-4
80971,56,-1,5,-3,-3,-4,12,-1
81019,15,22,-6,2,1,0,8,4
81072,-6,28,3,0,0,0,2,-1
81127,-4,-16,-5,-2,2,2,-1,1
81180,-4,-36,-9,-2,-5,-7,-5,0
81238,2,73,-2,-2,0,0,-5,0
81298,-12,-2,-4,-2,-1,-2,11,-1
81359,14,19,1,-3,-8,-6,1,-2
81418,1,-29,2,1,3,1,-4,0
81470,-5,-14,-2,-1,0,0,3,0
81532,47,30,-16,-2,0,-1,-3,-2
81583,-6,49,-26,-3,-1,1,1,-2
81635,-22,21,-2,-1,1,0,2,-1
81689,-2,-6,-18,-5,2,-2,-6,-3
81741,6,59,0,-1,0,1,-3,-2
81809,-13,-65,1,-3,-4,-6,-7,-5
81863,-6,8,-3,-1,1,2,5,-3
81921,-21,11,0,-3,-7,-2,2,-2
81974,9,-68,-3,0,2,4,10,3
82025,-5,17,-4,0,0,0,-2,-2
82078,22,-10,-8,-1,-2,1,-1,-1
82130,-14,20,-2,2,5,5,-4,6
82182,-31,-5,7,0,0,1,6,5
82238,-9,-15,0,0,0,2,1,0
82288,4,6,19,3,5,2,-1,3
82340,20,-16,41,1,-1,-2,-2,-6
82402,3,-52,-16,1,-1,0,6,-6
82452,-1,27,9,-1,-3,-3,-3,0
82505,7,-25,-6,1,3,3,-9,-6
82558,-19,18,-10,-7,-4,-2,0,1
82615,21,-26,0,0,2,0,-4,-2
82663,-7,4,3,-2,2,0,5,-1
82721,2,-52,34,5,2,0,5,3
82783,7,-23,-12,-4,-1,0,1,0
82843,2,-61,5,-1,1,0,4,-1
82894,-2,-64,-1,4,1,-2,-2,-3
82948,-11,-7,-1,2,-1,-4,1,0
83000,-14,-4,-1,1,2,1,-5,0
83053,-12,10,1,-2,0,-1,9,-2
83116,-6,6,-1,1,3,4,3,0
83171,-6,-28,7,2,3,1,-3,-1
83218,11,-15,22,4,2,-2,-3,-2
83271,34,-24,32,-1,-4,-6,-4,-7
83323,-16,104,-13,-3,-3,-3,-12,3
83384,7,22,-9,-2,-5,-3,0,4
83436,-9,8,2,-2,3,1,4,0
83487,5,-14,-23,-2,-3,-2,-1,3
83546,4,0,-8,-1,-7,-2,6,9
83596,17,16,-12,-6,-8,-5,3,-2
83646,1,-1,1,2,4,4,5,3
83709,13,-31,0,-2,-8,-5,-7,-3
83768,13,-13,7,-2,-1,-1,-5,-2
83817,32,37,6,2,6,4,1,0
83871,40,-54,-20,-1,0,-1,-1,-2
83924,0,45,25,2,-2,-3,1,-1
83984,-26,22,7,-1,-1,0,11,0
84029,29,-59,-23,-4,-5,-3,3,-2
84080,-32,20,-14,-4,-2,-3,-8,-6
84133,8,20,3,0,0,1,1,-1
84187,-17,-29,-1,-2,0,0,-4,-1
84243,13,3,9,5,5,4,-3,8
84306,-7,7,10,-2,-7,-6,-8,-3
84366,11,-4,4,2,-2,0,4,-1
84418,30,39,-1,0,-1,2,4,3
84471,27,13,1,-7,-9,-7,-5,-6
84524,-4,43,14,2,0,0,1,2
84578,6,17,-11,0,-2,0,-3,2
84629,-26,81,-8,-4,-1,1,-9,1
84687,-11,-11,-6,2,9,6,5,2
84749,16,-40,-2,0,-3,-3,-3,-1
84818,-22,-19,5,0,-3,-3,-9,-6
84869,-7,28,9,-2,1,-1,-5,-1
84923,5,24,-6,-2,1,1,4,-1
84974,-5,14,-27,-1,-1,-3,-2,0
85032,-22,16,-4,-2,0,1,6,-3
85092,44,-37,-11,-1,1,2,-2,0
85139,6,-61,4,0,1,1,-3,2
85191,16,13,-12,-3,-5,-4,0,-1
85242,-1,-16,-6,1,2,2,2,0
85302,9,-38,4,2,2,0,0,0
85367,10,48,15,2,0,0,-20,5
85430,-11,13,6,0,0,0,2,-2
85492,6,-34,19,2,-6,-3,-2,-3
85551,4,10,-9,-2,-2,-1,4,5
85605,-14,-35,-11,0,0,1,0,-4
85669,25,-13,-10,1,5,3,1,-1
85731,-23,6,3,3,6,4,8,1
85792,-13,-7,-8,1,3,1,0,5
85848,12,15,-4,-3,-2,-1,-2,-2
85910,3,-35,-13,0,2,0,1,-2
85973,21,25,-3,1,0,-4,-4,2
86038,44,31,-14,-7,-10,-6,6,2
86099,6,10,-4,1,2,1,14,2
86144,-3,-13,-2,-1,1,0,-4,0
86207,-20,-2,2,1,1,1,6,4
86273,-33,19,9,1,3,2,8,2
86332,25,-16,21,1,-3,-2,-27,-2
86383,-11,12,26,4,-4,-2,-2,-2
86445,-23,-11,-7,3,4,2,2,0
86501,15,-28,16,3,2,3,4,0
86548,-26,0,-2,0,-2,-3,-1,-4
86603,-9,13,-6,-1,-1,-3,-1,-1
86655,-11,18,5,-1,1,-2,-1,6
86713,38,14,-12,-5,-1,-2,-4,-1
86774,-8,-27,11,3,3,1,5,-1
86826,6,4,-7,-1,0,0,1,-1
86897,-32,15,-2,-1,1,0,-1,0
86959,-1,21,6,-1,-5,-6,-4,-3
87019,9,17,-1,2,3,2,2,2
87079,-37,2,12,3,6,3,2,-4
87127,-23,12,0,-2,-4,-3,-7,-2
87189,-15,15,-4,1,4,3,1,-2
87253,-10,29,0,1,-2,0,-1,2
87314,2,-34,-12,-3,-1,-1,-1,2
87374,30,27,-4,1,2,2,-3,2
87435,-53,-7,-13,-3,-1,-2,6,-3
87494,17,-14,6,2,1,0,0,-2
87538,-12,-3,-13,-2,1,0,-1,-3
87591,85,-43,-22,-7,-11,-8,-9,-4
87646,1,13,12,-2,-5,-6,-23,-2
87697,0,19,2,0,1,0,-6,-1
87757,-16,-8,-23,-3,-2,-2,9,0
87817,2,40,17,0,-3,-4,-1,-8
87870,4,6,10,0,-1,-2,-6,-11
87933,7,-9,9,0,-2,0,2,-6
87996,-6,-24,-4,-1,-1,-1,7,1
88059,-46,-2,-5,0,1,1,-1,1
88107,8,-74,2,4,-2,1,0,6
88171,34,1,-5,1,1,-1,-1,0
88235,28,-25,-14,-4,-6,-4,-16,-5
88297,-9,-14,-8,-2,-2,0,5,-1
88356,3,-16,-19,-7,-8,-4,-3,-1
88408,15,21,-12,-6,-2,-4,5,1
88461,-22,-57,-12,3,3,2,-1,2
88514,-7,-29,-13,-5,-3,-1,-2,-1
88568,29,27,-1,2,8,7,4,9
88622,26,13,1,1,-5,-1,3,10
88680,-49,22,2,2,2,1,-2,-16
88742,-54,12,4,3,2,2,1,-3
88800,-26,-46,-3,-1,1,2,4,2
88856,-8,-28,8,-1,1,-1,-3,-6
88918,6,15,-9,-4,-2,-1,-6,0
88979,-7,3,9,0,4,3,2,9
89041,5,-20,-1,-5,-2,-1,-22,-4
89090,25,-16,-13,-1,1,1,0,-5
89154,-2,5,-11,2,4,1,-2,5
89218,-50,14,5,2,2,4,15,7
89279,25,-42,11,2,1,-3,-11,-3
89340,4,15,-7,-1,-9,-3,1,-4
89392,-36,-30,-1,-4,-4,-4,-1,-3
89443,10,2,-5,-4,-2,-4,-2,2
89497,32,-13,-7,-14,-19,-14,-9,-7
89551,27,-16,6,-3,-3,0,1,-3
89601,-30,-22,-5,2,0,0,-1,1
89664,3,65,14,-5,-12,-7,-7,-3
89727,3,45,-10,-6,-2,-5,-8,0
89783,-7,-11,-17,-3,-1,-1,-3,-1
89832,-8,13,0,-2,-3,-1,-3,0
89896,-17,-17,-3,-1,1,0,-3,9
89948,11,8,-3,-5,-4,-2,-3,-1
90007,3,14,13,0,0,-2,-3,-7
90051,-1,-39,-9,-1,-2,-3,-6,-10
90102,-6,-3,-5,-1,4,2,-26,-6
90167,-16,34,-1,3,1,1,4,6
90224,-10,0,-5,-3,-5,-2,0,-5
90276,7,29,-13,-1,-1,-3,-1,0
90329,-2,7,1,2,0,1,3,-1
90382,7,12,-4,-2,0,-2,-2,0
90439,-9,39,-2,-2,-1,0,7,-1
90488,-13,27,14,1,1,-1,-1,0
90539,-6,-28,-8,-2,0,2,-2,-1
90595,-7,-13,-8,-1,-1,-1,5,-5
90644,5,17,1,5,5,4,5,5
90702,3,3,-1,2,2,2,10,-4
90764,-23,-45,6,1,-5,0,5,3
90824,32,1,14,0,-1,-1,-7,-3
90884,58,10,-6,-4,-5,-2,-3,2
90938,10,21,-2,-1,0,0,12,-4
90991,11,21,-6,-8,-15,-10,4,0
91043,-1,6,-9,1,1,0,2,10
91098,5,8,2,0,-7,-4,-4,-15
91148,-34,-21,-15,-4,2,0,2,-3
91210,39,-7,3,3,8,5,10,8
91273,-9,-7,-22,-3,-5,-9,-14,-46
91319,20,40,2,-2,0,-1,3,8
91371,-10,11,2,0,2,2,6,6
91427,-4,-15,-9,-2,-4,-2,-6,-13
91480,20,-17,-14,0,4,3,-5,5
91542,-3,3,10,0,4,2,1,16
91604,26,6,-6,-9,-15,-13,-13,-15
91667,-4,23,7,0,-1,1,2,3
91719,-44,30,-11,-3,-2,-1,1,-7
91773,-14,2,1,2,3,0,1,4
91821,-26,-11,-22,-8,-7,-9,-30,-20
91875,-39,-41,-6,0,-2,-3,-4,-13
91927,-13,-6,5,1,3,1,3,5
91987,23,-6,5,-1,-4,-1,0,7
92054,-2,35,9,3,9,5,12,3
92109,-7,11,-15,2,4,2,8,1
92160,-40,3,1,3,2,4,4,7
92213,14,-31,2,-1,-2,-1,2,0
92265,38,-19,-14,-5,-4,-1,-3,4
92317,11,-48,-16,-6,-6,-3,-4,-1
92371,9,22,0,2,5,5,7,1
92430,17,1,-1,1,6,1,-6,-2
92490,5,58,9,2,1,1,1,3
92551,11,13,-5,0,-2,-6,0,-8
92604,-9,13,2,-3,-6,-3,-8,0
92669,0,-7,-5,-5,-11,-5,-7,8
92731,-11,49,9,2,2,0,-7,-1
92792,5,-9,1,-1,0,0,0,-4
92850,-15,-19,-1,-4,-7,-5,1,1
92904,13,-3,10,2,4,2,18,3
92957,6,-10,-9,-4,-4,-5,-3,-4
93010,32,-18,-19,-9,-17,-9,-2,-10
93060,-17,-9,2,1,1,0,-30,-7
93112,12,2,20,2,0,0,-4,-8
93170,9,7,8,-5,-9,-6,-5,-6
93233,-6,-5,-1,-1,3,2,7,2
93293,-8,2,-7,-3,-1,-6,11,-4
93347,12,7,3,0,-1,0,-13,-4
93414,-2,19,-7,-5,-4,-5,-4,-6
93473,12,50,3,2,3,-2,3,2
93536,9,8,-7,-6,-17,-8,-19,-3
93593,-27,2,-3,4,4,5,0,4
93646,-23,42,4,-2,-4,-3,5,-1
93708,-7,-16,-7,0,3,0,-5,2
93771,-3,1,-5,-3,1,0,-3,-2
93834,1,-12,4,1,-1,-2,-5,-2
93893,2,6,0,1,2,0,1,3
93948,13,-2,-3,-4,-11,-8,-2,-4
94011,43,20,-1,1,0,-1,0,6
94057,-8,-31,16,4,5,-1,-5,-4
94111,29,-8,-7,-4,-2,-1,-1,-5
94165,-13,-14,-5,1,0,0,3,-1
94216,11,-2,-4,-2,-2,-1,6,-2
94277,0,-40,2,2,7,3,3,-5
94338,17,-19,15,1,2,2,1,-2
94389,8,-2,-1,-2,-2,-1,-25,-4
94450,4,-13,-6,1,1,2,-5,3
94514,6,-19,-8,-2,-4,-4,0,0
94575,5,5,5,1,-2,-2,-3,0
94637,1,-6,-6,-1,4,1,0,1
94689,6,32,10,-4,-12,-9,-9,-7
94740,-2,-1,-2,-1,-1,-1,-3,-3
94793,-31,-49,-4,-2,-1,-3,-6,-11
94847,7,-39,8,1,5,2,-1,-4
94903,-15,-10,-4,0,0,-1,-3,-2
94964,-9,-16,-7,-3,-2,-2,-2,0
95019,-26,8,-3,2,-2,1,5,-1
95080,12,7,15,3,5,4,2,2
95133,1,-26,-2,-2,0,0,10,1
95196,-8,24,-15,-1,3,1,4,4
95257,-17,-11,-15,-2,1,-2,-6,-2
95320,20,20,-23,-1,1,0,-2,1
95378,-22,7,-6,-1,-3,-1,7,1
95436,2,-25,0,0,0,-1,-3,-3
95495,49,-47,-13,-1,6,3,-4,-2
95560,-28,3,-20,-3,-3,-3,5,1
95622,20,30,13,0,-3,-1,-2,-7
95678,-6,-12,-3,1,4,4,6,3
95728,13,17,-36,-4,0,2,0,5
95782,3,30,-24,-5,-1,-3,-3,1
95841,9,57,-3,1,4,4,12,4
95903,0,40,11,-5,-13,-5,-1,0
95949,11,49,3,-6,-6,-4,5,-2
96003,-9,22,0,-1,-4,-2,-27,0
96062,-1,-91,27,3,1,1,-10,-6
96125,4,52,-36,-7,-4,-4,-1,-2
96180,-23,23,-8,-4,-10,-5,4,-1
96232,3,18,-11,1,1,-1,2,2
96294,-10,-3,-3,-4,-4,-4,5,-6
96357,-26,-11,-7,-3,3,2,2,-1
96421,-7,-87,19,-1,-2,-2,1,-15
96481,19,14,-19,-2,-5,-4,4,-1
96540,3,-20,12,-2,-1,-4,-4,-13
96595,13,10,-9,-1,0,-1,-1,-11
96660,-16,9,-4,-4,-2,-3,1,-20
96720,-21,-2,-1,0,3,2,13,-2
96775,-6,18,1,-2,8,4,24,10
96835,8,32,5,0,-1,0,9,25
96885,2,-48,-8,-4,-8,-6,-5,-1
96939,-8,3,1,2,4,3,2,-13
96996,-5,20,2,-2,4,2,8,-14
97043,-12,-16,-5,2,6,4,4,-1
97103,5,-16,10,2,-2,-2,-2,-55
97156,46,22,10,-3,-11,-7,-5,-6
97214,13,11,-7,-3,-1,0,-5,4
97276,-11,8,-1,-2,-4,-4,-4,-6
97340,-27,2,-5,-1,4,1,9,-21
97403,21,21,-12,-8,-13,-10,-4,-6
97466,6,6,-18,-4,-3,-5,-1,-8
97523,38,-9,5,5,7,5,3,-6
97585,4,2,5,0,4,1,-5,27
97647,4,16,-2,-1,-6,-4,-1,8
97707,4,-18,-17,-1,3,3,4,-4
97763,12,9,-6,-5,-6,-5,-5,-1
97826,-23,0,3,4,3,1,0,1
97876,16,25,3,2,7,0,2,0
97931,-13,-2,-8,1,-4,-4,5,0
97979,33,15,2,-2,-2,-3,0,-2
98034,-3,0,-15,-6,-8,-4,-1,-1
98086,-1,4,4,0,4,1,8,2
98147,2,44,3,-2,-5,-1,3,-3
98209,7,-29,3,-4,-8,-8,-3,-12
98256,-40,17,-1,4,5,3,10,4
98311,0,26,10,0,2,-1,-25,-3
98364,27,40,-33,-3,-3,-1,5,0
98414,27,7,-11,-2,-4,-2,-1,7
98467,39,-12,10,-2,-6,-4,-6,-1
98519,19,17,-11,-2,-2,-2,10,0
98578,-16,3,-14,-2,-1,-1,-3,0
98625,-11,-2,-4,-1,-7,-5,0,-2
98681,-18,-35,29,2,0,-1,-2,-1
98746,5,-10,4,-2,-2,0,-3,2
98808,-22,43,-7,-1,-2,1,-2,1
98865,34,1,4,-3,-6,-3,-9,-7
98924,-5,15,-5,-3,-2,-1,-1,3
98970,-43,18,-5,-1,3,1,-1,-5
99023,7,-42,-5,-2,-2,-3,-1,-9
99073,30,0,14,-3,-8,-7,-3,-3
99128,-15,60,14,-4,-6,-1,2,6
99184,-7,15,10,2,5,4,-5,5
99244,-11,-9,1,-3,-1,-1,9,3
99307,22,-18,-7,-3,-7,-3,-5,4
99369,-7,17,13,1,3,-1,-9,-2
99431,-3,3,1,1,4,3,6,6
99481,-4,64,9,2,4,3,1,1
99533,4,-8,2,-3,-21,-9,0,-1
99586,-31,10,8,5,6,4,20,0
99646,54,46,7,3,3,2,6,5
99692,7,4,-5,0,0,2,8,5
99752,-47,-25,2,2,1,1,12,4
99811,2,7,12,-2,-2,0,-1,-1
99873,1,6,-16,-5,-8,-3,2,1
99923,-13,26,-5,-1,-1,-1,4,4
99975,0,-6,-4,-3,-3,-1,-7,-7
100028,2,23,0,1,-1,-3,0,-3
100083,18,1,-22,-5,-6,-3,2,2
100133,20,-41,1,0,-1,-1,-6,2
100186,-13,2,-3,-3,-8,-4,-6,1
100239,-38,13,10,1,-5,-2,-5,0
100291,-1,-18,-3,0,-8,-4,4,2
100350,13,69,2,-1,-2,0,0,-3
100411,-46,8,2,-2,2,2,-12,-3
100472,27,-13,-9,-2,0,1,-21,-4
100524,-16,36,-7,1,1,2,6,3
100575,10,-3,0,-4,-6,-3,-11,0
100629,3,-24,-10,-1,-3,-4,-9,-2
100683,12,4,5,-3,-10,-3,0,-1
100734,-9,12,-2,2,5,4,-14,-4
100791,20,-11,-2,-3,-7,-7,0,-7
100854,-3,-1,-2,-1,-4,-1,6,-1
100914,-17,77,7,2,3,3,6,0
100965,-20,-29,-5,0,-1,2,4,0
101029,-33,-50,6,1,5,2,-21,-12
101092,18,14,7,0,-1,1,4,2
101154,28,-9,-6,-4,-5,-2,-1,11
101214,-1,42,-6,-5,-4,-4,0,-6
101267,29,-27,1,-2,0,0,0,-5
101327,0,-36,-6,-2,-1,-1,-4,-3
101394,32,-10,-7,-2,2,-2,3,-4
101454,4,9,-22,-1,3,1,2,1
101513,21,6,10,-2,1,-4,-12,-10
101565,-12,-1,-2,-2,-4,-4,-2,-1
101629,-3,-9,2,3,6,0,-3,-16
101693,20,19,0,1,-2,-2,-26,9
101756,53,-54,25,0,2,1,-21,-18
101816,-11,23,16,0,4,1,2,9
101865,19,1,-1,-2,-10,-6,-7,2
101918,-6,14,2,1,0,0,-7,-2
101973,-5,2,-11,0,4,1,-23,-2
102026,2,-7,-3,1,3,2,11,4
102077,2,6,-3,1,2,-3,5,0
102137,10,-5,-12,-2,-1,-1,-4,-2
102199,-20,-3,9,2,1,3,0,-6
102257,-17,3,-14,3,9,6,1,-9
102310,36,27,11,-6,-9,-6,-3,-13
102374,8,29,0,-4,0,-2,-2,12
102436,7,0,-1,5,3,3,15,1
102496,17,44,-21,-3,2,0,5,9
102548,19,-26,18,7,7,6,11,-3
102600,-30,26,-2,2,2,3,10,5
102654,-10,-7,-16,-3,-7,-8,-1,5
102707,-32,-38,-3,-4,-1,-5,-5,-5
102759,8,64,-16,-3,-2,-1,-7,2
102818,-23,24,-7,-1,-1,-1,-6,-7
102882,-12,-16,-10,1,-4,1,3,-3
102943,-21,3,-13,-8,-10,-9,-8,9
102999,32,50,6,-3,-5,-2,2,1
103052,33,-3,-13,0,1,2,-4,8
103116,-11,57,-3,2,5,3,-2,15
103179,-7,19,-16,-4,0,1,2,8
103239,-18,41,6,-1,1,4,4,2
103291,-20,12,-8,-1,1,1,12,7
103354,13,-7,-12,-9,-9,-6,-3,-11
103419,-18,-38,8,1,1,0,-2,0
103480,4,14,9,-3,-9,-5,-1,-1
103544,33,13,-12,-5,-3,-3,-21,4
103592,-21,-33,-10,2,-3,-2,6,-13
103644,4,-30,8,-3,-7,-10,-4,-12
103696,2,8,10,-1,-7,-4,5,-15
103750,11,-9,1,1,0,2,15,-3
103802,-7,18,6,1,-2,-1,-4,-7
103860,-46,5,13,6,6,-1,-4,-25
103924,-9,-80,-6,-7,-12,-7,6,-21
103988,1,16,-9,-5,-1,1,0,-3
104035,8,11,9,4,4,1,-2,2
104097,-45,-6,-1,0,-5,-1,-6,-1
104159,60,-25,3,-4,-11,-8,3,-4
104221,-6,17,16,0,-5,-2,-2,2
104282,-50,-15,14,0,-1,-1,-4,-1
104334,11,61,0,-3,-1,1,-4,6
104397,22,4,-7,-5,-9,-5,-6,-15
104461,9,-7,-8,-5,-8,-4,-3,-1
104524,29,8,-14,-4,-9,-4,-5,0
104586,1,1,14,-2,-5,-3,-6,-4
104633,-8,10,-10,-6,-7,-5,-5,-2
104686,-6,25,0,4,4,3,-8,-2
104741,-4,-17,-13,-3,-10,-6,-4,-3
104794,1,19,13,0,-8,-6,7,12
104845,14,-39,-16,-12,-19,-11,-7,10
104902,30,18,-11,-8,-11,-5,-3,-6
104965,-2,0,3,-1,2,0,-6,-3
105024,14,4,-6,-1,2,1,-7,14
105086,-30,21,5,-9,-9,-12,-35,-16
105136,-27,17,4,1,3,3,7,-1
105198,-16,27,-9,-3,0,0,-4,5
105262,-4,8,4,1,-3,-2,-5,-1
105324,-6,1,-10,1,7,3,7,-17
105385,9,1,3,-1,-1,-2,13,0
105436,2,-46,-13,-2,-5,-2,-2,3
105490,36,25,5,0,-2,-3,0,1
105542,-18,-17,-2,-2,0,0,-17,-2
105596,19,6,9,0,-1,-1,-7,-4
105647,-18,85,40,5,5,5,8,10
105705,-12,-3,-12,0,1,1,9,5
105768,-5,-29,-13,-3,2,2,5,1
105827,-12,-18,27,-5,-24,-12,-24,-6
105887,13,0,-4,-2,1,0,1,17
105944,35,-18,-4,-1,-3,-3,0,5
106008,-9,-8,4,-7,-14,-11,-1,10
106070,1,60,-4,3,5,2,6,1
106131,-11,34,-23,0,2,0,2,8
106181,-14,-29,-4,0,1,1,0,-2
106230,11,-78,6,0,5,4,-5,-33
106284,-26,-8,-11,-2,-4,-2,3,-4
106336,-9,5,-6,-2,5,0,-29,-4
106386,8,26,7,-1,0,0,-4,3
106449,5,15,8,0,1,1,-4,-5
106509,34,22,-7,-6,-10,-10,-14,-13
106562,17,-1,-3,1,1,-2,2,-2
106614,-5,0,-3,1,2,1,1,2
106668,-22,57,-28,0,19,10,3,4
106718,-25,-20,3,0,-1,-3,1,-1
106771,-26,10,2,-2,-5,-3,1,6
106823,-67,-24,-15,-5,1,2,-4,-17
106884,14,-18,-5,2,1,3,7,1
106929,18,-20,-15,-3,2,-1,-1,4
106981,40,-26,-7,3,5,3,19,4
107033,15,15,6,-2,-1,-1,4,-4
107086,4,-3,-14,-4,-10,-6,-3,-6
107146,0,40,15,2,0,-1,2,4
107206,-15,-82,8,3,2,1,-2,-6
107272,-22,-13,-2,-5,-13,-7,-6,-1
107329,14,10,-3,-1,0,1,9,2
107382,25,15,-7,0,3,1,-5,0
107435,2,13,-8,-1,-1,-1,-2,0
107493,-13,-7,6,3,12,5,-3,0
107552,-3,-13,-6,-2,-1,-1,-3,0
107604,2,-51,-7,-2,3,1,1,-7
107656,26,-15,-2,-5,-3,-2,11,0
107711,25,58,-6,-3,-1,0,-3,6
107766,3,14,-8,3,3,5,5,4
107815,-3,-16,4,-1,0,-3,-10,-6
107872,15,3,-1,1,4,2,-1,2
107922,-11,-93,-12,2,4,2,-2,3
107973,2,33,23,2,-2,-3,5,1
108033,-24,36,-4,0,1,-1,0,-3
108092,3,4,6,4,6,4,1,0
108145,-4,5,0,-1,0,1,-1,-1
108197,-12,5,-3,0,-2,-1,-6,1
108250,-14,5,-5,0,2,-1,-7,-3
108303,-22,37,-7,-4,-3,-1,14,-2
108355,-15,35,-2,2,1,0,3,2
108413,15,8,1,-9,-11,-8,2,-9
108475,-2,8,2,4,-4,-5,-2,0
108535,-20,-38,-4,3,14,0,-6,3
108595,4,7,-9,1,3,4,2,4
108649,-7,5,-5,-1,1,1,0,0
108712,-3,6,7,1,0,-3,-1,1
108774,11,7,-23,-4,0,-1,-4,0
108837,-9,6,-8,-6,-1,1,2,1
108890,-15,32,10,-3,-8,0,6,1
108954,-31,17,3,-1,-18,1,-4,1
109017,-21,9,-10,-3,1,2,3,3
109075,-20,38,-7,-3,-2,-1,-5,-1
109127,-3,16,-3,-2,0,-1,-5,-7
109180,-14,-3,-10,-1,-17,8,9,4
109238,-20,12,1,-1,-10,-5,14,-3
109292,-5,-3,13,-4,-1,-7,-24,-3
109347,-11,-45,-11,-2,1,0,1,-8
109397,7,8,-1,0,0,-4,2,1
109458,7,-23,-23,-6,-10,-4,-2,-5
109518,23,9,-13,-2,0,-3,5,1
109567,13,18,19,-7,-13,-4,-5,-3
109629,-5,42,18,1,3,3,1,6
109692,-1,-5,27,6,-6,5,-3,1
109755,2,-4,-7,0,13,3,1,-1
109817,-7,-20,-8,-2,-3,-2,0,1
109877,-15,-29,-7,3,5,4,6,2
109931,-4,-14,-3,0,3,4,6,4
109992,-23,38,-4,1,-1,5,6,-8
110057,-4,-3,-9,0,3,-3,10,6
110120,-13,-48,-6,-3,-4,3,-8,-5
110182,-1,-15,-11,-3,-30,-3,5,2
110230,10,10,-16,-1,4,2,-2,7
110281,-6,-16,2,-1,2,-2,-7,-5
110334,8,39,-2,0,-2,-4,-6,5
110388,-10,11,-5,-1,-2,0,-22,0
110440,3,-15,2,-1,-5,-2,-3,-4
110500,-7,-87,26,1,-5,2,9,4
110560,-4,3,3,1,3,4,4,6
110620,11,14,4,1,2,-2,-31,0
110674,1,-23,21,-1,-17,1,-1,-8
110746,-8,26,-10,-4,-6,-5,1,13
110800,2,-21,14,3,1,0,-1,1
110872,-17,-3,0,0,7,-4,8,0
110920,-25,-18,15,-1,-3,-2,-5,-5
110975,-15,-33,-4,1,5,0,-4,-1
111041,-9,60,-4,1,15,-3,2,-6
111099,-8,11,9,2,-4,-2,4,-20
111160,14,-49,-12,-8,-15,-6,-4,-1
111211,-16,-56,-10,-2,-15,0,0,-9
111265,-23,-7,17,-2,-8,-2,2,7
111318,2,8,-17,-3,-3,-1,9,2
111372,3,15,37,4,3,-4,-4,9
111423,-2,-42,5,4,21,-3,20,-4
111481,2,-24,-18,-1,5,3,10,6
111542,-12,23,-3,1,-6,0,-10,-4
111593,10,-85,5,0,-4,-3,-19,-9
111656,-5,-13,-7,-5,-14,1,-2,-6
111726,-10,2,4,5,-10,0,2,0
111783,2,20,-30,-3,2,2,7,13
111843,-7,-87,-1,-2,-6,-4,-8,2
111894,15,22,31,4,1,4,8,-2
111958,-5,-28,-26,-3,5,3,3,0
112021,-21,29,-3,3,13,0,-1,2
112084,-20,28,10,-4,-4,-2,-8,-4
112143,0,41,-9,1,2,-1,4,0
112194,-4,6,0,1,6,-2,1,0
112256,-1,11,12,-1,-1,-2,-1,-4
112302,4,16,-7,4,8,0,-2,-4
112352,9,-27,24,28,4,3,-20,1
112405,-8,26,-16,-2,6,-3,-8,0
112463,-16,4,-1,0,-1,-1,-2,0
112525,1,-25,3,4,3,0,2,2
112575,9,-29,10,-1,-19,1,13,-4
112640,2,-26,-6,-2,-6,-1,5,-1
112691,-18,7,14,-2,-4,-1,-2,-4
112742,4,7,2,3,0,1,-22,-3
112799,-7,23,-13,-4,-6,2,3,0
112857,-5,42,3,-2,-2,-1,-2,-3
112910,-6,-10,-3,-1,-7,-3,-6,2
112972,-15,7,5,0,6,-4,2,2
113021,-8,4,3,5,10,4,2,3
113083,14,16,-3,-3,-1,-1,-3,-2
113147,-25,37,12,5,5,3,12,3
113208,27,19,-19,-7,-6,-1,-22,-3
113258,14,36,-15,-4,-2,-3,7,-14
113323,-3,20,0,6,7,5,0,1
113386,6,2,-5,-5,-3,-5,-11,-9
113448,-8,5,10,1,6,4,-4,1
113508,-9,16,-9,-2,1,1,0,0
113566,36,18,5,-1,0,-1,-4,0
113629,3,-2,20,2,3,2,6,-11
113692,6,7,12,1,1,-1,19,1
113755,5,-24,8,-1,0,-1,-6,-6
113799,23,20,-13,-1,-2,1,17,1
113853,4,9,-7,-2,2,1,3,4
113905,-16,-7,-2,1,-4,-4,3,0
113957,-16,-5,-4,-1,-2,-1,1,-1
114010,-11,-19,5,1,2,0,7,-3
114065,15,-12,-5,-1,3,1,1,-3
114130,-6,-25,12,1,-1,-1,3,1
114199,-21,42,-4,-1,-3,-3,-24,-2
114250,-8,83,8,0,3,1,1,-1
114305,-4,22,-12,1,12,8,2,3
114357,15,-11,-8,-4,-8,-5,0,-4
114407,18,-94,1,2,3,0,11,-4
114459,-5,20,-3,0,0,-1,0,3
114510,11,-5,11,4,-1,-1,10,-1
114573,-24,-10,-1,1,0,1,8,0
114616,-3,-8,-9,-1,1,2,12,1
114670,4,53,18,6,4,2,-8,-4
114733,-26,3,-3,0,2,2,-1,-4
114795,-18,18,-6,1,2,1,4,2
114843,-17,-4,3,0,6,3,16,4
114895,21,-29,-4,1,0,0,-1,-3
114948,-17,-8,0,1,-1,-2,5,-4
115001,13,35,14,-1,-7,-4,-4,7
115050,11,-19,-11,1,-4,0,-1,4
115112,-11,10,-4,-2,-1,-4,-4,-1
115174,5,-41,-5,-6,-9,-5,-1,-8
115224,-31,12,-20,-4,1,1,0,-10
115277,-3,8,3,4,7,5,7,6
115331,-4,42,-1,-5,-7,-5,10,8
115390,-11,73,21,-2,-3,-3,8,-5
115436,-8,24,7,2,0,-1,2,14
115487,23,16,4,0,-2,-2,-3,8
115539,-8,-39,-10,-6,-7,-3,1,7
115592,14,-71,-2,-1,-3,-2,-2,-11
115651,-18,-38,-3,-2,0,1,-5,-1
115712,10,55,23,0,-7,-4,3,-1
115774,-9,-21,-28,-5,0,-1,6,2
115826,4,-59,-20,-2,-3,-3,-4,-3
115878,-19,7,5,-2,1,1,-2,-7
115931,-38,-6,1,1,2,2,3,-4
115981,-10,10,-8,3,6,3,13,4
116036,-2,23,-24,-3,0,2,5,-1
116091,-19,13,2,-1,-1,-1,-2,-1
116155,-12,12,-2,-2,-1,0,4,-5
116216,-16,22,2,0,-1,-1,-7,5
116276,1,-16,7,-1,-1,0,10,-3
116333,0,0,-2,0,-2,-1,-5,1
116399,-10,24,8,1,-1,0,-2,-4
116458,-1,17,1,-1,-2,1,-24,-1
116525,-3,0,14,1,0,-1,-1,0
116570,9,5,3,0,-4,-2,3,-7
116622,-12,26,16,0,-1,-1,-2,-2
116672,6,42,-11,-2,-1,0,2,-1
116726,-8,-69,-28,-5,-4,-5,-8,-4
116779,-2,-9,8,0,1,0,1,-1
116838,18,14,-25,-6,-5,-2,3,2
116899,-18,62,8,-1,-2,-2,-5,0
116960,5,-19,1,-2,-8,-6,-7,-4
117013,-8,44,1,1,0,0,-23,2
117076,19,6,-6,-8,-7,-6,-10,-5
117139,-45,39,0,-3,-1,1,8,5
117199,-5,12,-4,-1,-5,0,14,-1
117250,-7,86,-15,-8,-3,-1,-5,2
117312,-4,-3,16,-1,-4,-1,-5,-2
117376,10,-53,-9,-4,-4,-2,12,-1
117439,2,-21,0,-1,-2,-1,-6,-4
117498,-8,12,-10,-2,-2,0,1,1
117549,-17,5,1,1,-1,-1,1,2
117612,-9,2,-12,-1,-1,-1,2,0
117675,0,65,5,2,4,2,4,62
117738,4,-65,1,-1,-2,-2,-8,-11
117799,-13,21,-4,-2,-4,0,-1,-14
117850,19,-31,14,-1,-7,-6,1,-12
117908,9,-21,-1,-2,-6,-3,-1,-5
117956,2,9,-21,-5,1,-3,8,6
118008,0,52,6,-4,-1,3,-4,-13
118061,0,-1,-8,-2,2,-2,-6,2
118117,-5,-13,30,2,-1,0,1,1
118179,-2,14,-11,-4,1,-3,-3,5
118241,-5,-23,-9,-4,-3,-4,8,0
118301,-12,8,-8,-1,3,0,-2,2
118355,23,-1,-4,-1,-4,-2,3,-10
118417,21,-21,8,-1,3,0,0,1
118481,3,-1,3,1,5,1,2,-11
118541,9,-27,-15,-3,-2,-3,-3,-7
118594,-23,-45,-4,2,4,3,4,0
118656,-11,-10,3,2,2,1,3,4
118720,-17,32,0,0,-3,-2,3,3
118783,12,-48,-16,0,0,0,13,-2
118845,-17,-18,-5,-3,2,0,-3,-1
118894,-16,11,-21,-1,0,0,-19,2
118947,-17,-13,-2,1,0,1,-3,3
118998,7,4,-8,-2,-2,-1,-6,1
119052,-5,-5,2,1,3,1,-1,-1
119103,-23,25,9,1,6,1,0,-3
119163,-19,62,3,0,7,8,5,5
119227,5,55,30,4,0,-1,-6,-1
119288,6,-37,0,-1,-1,0,-6,-1
119337,29,-18,-6,-3,-12,-5,-2,-1
119400,-13,-17,17,-1,-3,-3,-4,-7
119464,29,-33,-10,3,10,7,-1,8
119525,2,-56,-12,-3,-1,-1,-7,-6
119575,4,26,-3,-1,5,0,-17,-5
119640,13,34,23,-1,-4,-2,-3,-4
119688,1,-3,-18,-1,0,-1,-4,0
119741,-10,-40,-3,-1,-2,0,-1,0
119797,-13,-81,12,2,1,1,-3,-1
119843,8,-12,4,-2,-9,-4,-27,-5
119907,-16,7,20,4,-1,-1,2,0
119966,27,24,-3,-3,-1,0,-2,-2
120028,0,-3,-15,-2,0,1,3,1
120080,-17,85,0,0,0,-2,4,2
120142,-21,-4,9,0,-2,-4,2,-1
120211,5,-17,-25,-4,-6,-3,-1,1
120266,4,26,-2,-5,-8,-5,1,-1
120326,9,14,-7,1,-2,0,-4,-2
120380,-7,-45,-2,-1,2,4,9,0
120444,7,-14,-24,-4,1,-2,0,-2
120505,-6,-35,-7,-2,-1,-3,-6,-1
120566,12,-17,1,-2,-2,-2,1,-6
120626,-13,-65,-8,0,4,0,-2,-1
120678,-7,-28,-12,-2,-2,-1,-4,-2
120734,20,-79,-4,3,2,2,5,-1
120784,21,31,16,2,0,-2,-1,-4
120837,-14,5,-8,-3,-4,-5,2,3
120893,-21,37,-2,-1,-3,0,-1,4
120946,-2,-58,3,-5,-8,-5,-2,-8
121009,11,-8,4,2,2,4,0,-3
121069,13,28,1,2,1,0,-1,4
121122,-26,50,-8,0,3,1,1,4
121183,7,19,4,-1,1,-2,-1,-3
121247,7,-3,7,1,4,-1,10,-1
121309,1,-15,-2,0,-2,-3,-6,-2
121369,6,44,11,-3,-9,-5,-9,-1
121420,4,4,-1,0,4,0,4,2
121484,-14,-50,0,0,2,0,-7,3
121548,3,-67,-14,-3,-3,-4,4,-5
121610,10,7,-11,-3,-2,-1,1,2
121674,-18,-5,-9,-1,-2,-2,2,-2
121721,-21,5,-12,-2,1,0,-3,2
121775,2,6,6,-1,-2,-3,5,3
121826,-24,24,3,0,1,1,6,5
121886,8,12,29,-1,-6,-5,8,-6
121932,32,-7,-20,-4,-2,-1,-1,1
121988,-5,-26,-22,-2,0,1,-15,6
122050,-7,29,12,-3,-4,-3,-1,5
122111,-38,6,5,3,1,-2,-3,-5
122173,-4,49,-5,-1,-5,-2,-1,4
122223,12,-38,-16,-1,4,2,9,7
122286,-14,-2,-3,-2,-6,-3,2,5
122348,3,27,7,-1,0,1,0,2
122410,-25,-16,3,-1,-3,0,3,-2
122473,15,22,-15,-4,2,2,-21,1
122537,-14,30,22,2,0,0,4,3
122583,-10,-83,-2,1,1,0,-3,-3
122635,11,15,-2,0,-5,-2,0,-5
122688,-8,25,-15,-2,2,3,12,0
122740,23,30,-9,0,0,1,-6,-1
122795,-14,13,2,0,0,-3,0,-3
122853,-9,-14,-1,0,1,0,11,2
122914,-12,11,14,2,5,0,4,-5
122974,18,-4,-7,-5,-7,-3,1,6
123034,-8,-15,-8,1,1,0,-1,1
123086,-5,-24,2,-4,-2,-2,2,-1
123137,-14,52,15,1,5,1,-16,2
123192,-4,-9,-23,-3,2,0,-1,-1
123245,3,-27,-13,-1,3,0,-4,-5
123298,3,-16,43,6,1,0,2,-2
123355,11,6,-11,-3,-7,-5,-7,-2
123417,1,-22,-9,-3,-5,-4,3,-32
123471,-4,-4,-4,0,4,1,0,0
123521,-33,30,2,-5,-11,-7,-6,-10
123573,-3,-40,-13,-4,0,0,2,-4
123627,15,11,-4,-2,-4,-4,2,-6
123679,-24,45,36,-1,6,-1,12,-3
123731,12,-65,-22,-3,5,0,-8,-4
123781,23,7,22,-3,-2,-3,-3,-4
123844,13,-25,-12,-1,3,1,2,-2
123897,-16,3,-18,0,-6,-3,1,8
123956,-3,20,-3,-6,-11,-7,-7,-5
124018,15,-26,-11,-3,-4,-2,4,0
124081,19,11,10,-2,1,-1,4,3
124127,23,6,-5,-6,-8,-7,-3,-3
124189,8,-2,1,-2,2,-2,-24,0
124240,25,9,-2,0,2,0,5,-3
124296,1,-42,7,3,5,0,1,11
124349,20,-120,4,-1,-8,-5,-5,-8
124401,73,-28,3,-2,-4,-3,-19,-10
124460,-14,5,-19,-7,-6,-5,-8,4
124520,-4,-46,12,4,6,2,3,6
124571,47,-14,-21,-3,2,0,-14,-5
124624,29,-1,-6,-1,2,1,-17,-4
124677,25,-35,10,0,4,0,-5,-2
124732,14,-20,-8,-1,-1,-1,-5,-2
124781,-9,-2,-11,-1,-1,-1,0,1
124834,15,9,9,1,3,1,4,1
124887,-6,-6,-2,-1,-1,-1,2,-2
124940,2,21,0,0,2,3,3,4
124997,-4,46,23,1,-1,2,6,0
125059,-15,-6,10,1,3,0,2,10
125120,-9,30,2,-2,-3,-4,-6,-2
125177,-10,-7,5,2,3,0,6,4
125224,-5,6,1,-2,-1,0,5,-1
125277,3,6,1,-3,-4,-3,-6,-7
125332,42,-27,-11,-2,0,-3,1,-2
125383,-5,16,13,-2,-1,-2,-2,0
125447,-32,9,-12,-2,3,1,7,-3
125510,33,12,-6,-1,0,2,-1,2
125555,-4,-9,-3,-1,0,-1,-2,-1
125617,-7,-21,-33,0,4,6,4,8
125680,8,-38,8,-3,-5,-4,0,0
125741,-23,-1,5,3,7,4,1,3
125808,8,-28,-21,-3,-5,-3,1,8
125855,-14,47,6,2,3,1,8,-2
125919,-10,25,-11,-7,-5,-1,2,0
125981,-12,-62,0,-2,-2,1,1,-6
126043,-8,-40,-28,-6,-5,-5,-8,-1
126103,3,12,-10,-3,-5,-5,9,-1
126157,15,2,15,-2,-1,-1,-5,-6
126219,4,10,-4,-3,-6,-2,0,-3
126282,-12,-23,-10,-3,1,2,-3,3
126345,-6,16,3,2,4,0,-11,2
126395,16,-21,-4,-3,-4,-1,1,-4
126445,9,-28,-9,-5,-10,-8,-8,-6
126499,-10,6,-3,-3,0,-3,4,-4
126551,-5,-55,19,2,-2,1,-3,-2
126613,-19,42,33,4,4,2,2,6
126664,11,0,-6,1,-1,1,-2,-3
126726,-8,-31,-11,2,2,2,-2,2
126785,-3,18,-9,-5,-7,-5,-3,0
126837,0,7,-8,1,2,2,1,4
126895,-31,31,-4,-1,0,0,0,0
126942,-5,3,-12,-1,2,-1,0,-2
126994,6,25,-17,-3,-7,-6,-2,0
127047,1,3,-1,-11,-4,4,5,1
127113,3,-15,11,1,-4,-4,2,0
127174,-2,-22,7,2,2,-3,-8,-2
127219,-7,12,15,2,1,2,1,1
127283,4,-25,-23,-3,-1,-3,1,1
127343,-18,6,-11,2,2,0,9,5
127405,5,46,-3,-2,-1,-4,-3,-1
127467,6,-24,13,3,2,2,2,0
127529,18,10,-3,-2,-7,-4,2,-1
127580,-3,52,8,2,2,1,-1,1
127644,-9,-4,11,-3,-3,-1,0,-1
127707,-27,23,2,0,-1,0,0,-3
127767,37,-8,-13,-6,-5,-6,-8,-11
127827,4,10,6,3,3,-1,-7,-1
127880,-5,13,-10,-1,-1,-1,-18,1
127942,-8,-21,-13,-1,-1,0,-6,1
127997,-12,13,-12,-2,-1,0,-7,-1
128045,-6,-8,2,3,1,1,6,3
128100,-4,4,-10,-2,-2,-3,-4,-1
128156,8,0,-17,-4,-4,-1,0,0
128210,12,-8,-3,0,4,6,2,3
128270,-16,17,0,3,4,2,6,2
128323,-5,7,-3,0,0,3,2,3
128387,27,13,4,0,-2,-2,2,-2
128450,-5,36,-19,-4,-2,-1,-3,5
128510,8,15,2,-1,-1,1,0,-2
128562,-11,2,-31,-2,9,4,20,11
128624,17,13,-29,-3,-2,-2,5,1
128688,-28,-8,1,-1,1,2,1,-1
128750,-22,18,6,-2,-9,-7,-2,-10
128810,2,12,-2,-1,-5,-3,5,1
128867,-5,-27,0,-2,1,-2,-2,-2
128929,0,27,2,-1,3,1,4,9
128991,-10,24,-3,-2,-5,-6,-10,0
129049,-12,-16,1,-2,-2,-2,4,0
129110,-15,28,-13,2,3,0,-4,8
129171,26,-13,-2,0,-2,-2,-2,5
129223,8,11,1,-2,-2,-3,-3,0
129277,40,39,-3,-1,3,3,-11,2
129327,10,36,-11,-4,-6,-4,-8,2
129381,-22,-61,-4,3,6,4,5,-1
129433,21,-9,2,-3,-5,-2,0,-7
129496,14,42,-2,-3,-2,-2,1,-2
129559,-5,-11,0,-2,-1,0,-3,4
129620,0,-9,-4,-3,-1,0,7,-1
129665,-1,-4,-3,-1,-4,-6,-2,1
129728,-21,20,12,4,4,1,-3,-9
129781,1,-9,5,1,-1,1,9,3
129830,15,-8,2,1,2,0,-4,3
129885,0,-14,1,-3,-3,-1,1,-3
129949,9,-1,-7,-1,-2,0,2,3
130010,9,-31,19,-2,-4,-2,3,3
130071,-5,40,-8,-2,-4,-3,-5,-5
130124,-13,-52,4,2,3,2,1,6
130176,-19,-48,-2,1,0,0,-1,2
130232,42,-6,0,-1,-1,-1,2,-1
130298,-7,-9,-10,-2,1,0,-2,1
130359,2,-12,12,-1,-2,-2,-6,-3
130415,12,49,-8,-4,-6,-4,8,-2
130471,-19,-44,7,0,-1,-4,-5,-11
130533,-9,-4,6,-3,0,-2,12,-1
130594,16,-12,7,2,2,2,1,6
130655,12,-20,2,-5,-6,-5,-4,4
130709,-11,12,1,2,5,1,0,-1
130759,12,-38,3,2,1,2,0,-3
130812,12,27,9,2,0,-2,-13,-3
130865,1,9,-15,-3,0,-1,-2,-2
130924,-12,-3,-2,-1,-8,-8,-2,7
130977,15,-18,-17,-4,-2,-1,-4,-3
131038,-11,2,3,-2,-8,-3,2,2
131090,17,-18,-6,-2,-4,-3,-1,-2
131143,10,1,-4,-6,-17,-8,-8,-8
131194,-14,7,-9,-1,0,0,0,-1
131246,10,4,-13,-5,-2,-2,-18,3
131300,12,-21,15,1,1,0,-3,5
131353,-2,15,-4,0,2,2,3,-3
131404,22,-6,0,1,0,1,-4,-2
131457,-17,-10,-4,-4,-18,-9,-5,3
131514,10,-3,-4,-3,-2,-1,3,5
131579,0,-5,-6,2,6,2,0,3
131637,-13,-11,22,3,1,-2,0,3
131688,3,-21,8,0,-2,-3,-3,-5
131742,-15,-5,1,-1,-5,-3,1,-1
131800,-1,-54,-7,-1,3,3,1,-1
131847,19,39,-1,-3,-5,-1,-3,1
131901,-3,20,6,-2,-6,-3,-7,-5
131958,-13,-10,-4,-1,2,0,-1,-2
132021,7,46,-3,-3,-1,-2,-3,1
132083,8,44,7,-2,-1,-1,-1,0
132132,-2,46,-15,-3,-3,-1,-1,-6
132185,-9,-23,13,-1,-1,-3,-3,-2
132240,-11,40,-9,-1,2,0,-3,-2
132294,-8,-39,-5,-1,-3,0,0,-2
132342,11,-23,4,-2,-5,-3,-1,-9
132395,-3,11,-10,-2,0,0,-1,1
132450,-12,-34,-7,-5,-2,-3,1,-2
132500,-13,67,13,2,4,1,8,1
132558,-8,7,-1,1,0,-1,6,0
132620,-1,-47,0,-2,-10,-3,7,-3
132681,16,26,3,-7,-11,-6,-3,-3
132733,4,-67,9,3,3,0,-2,-7
132787,-18,-14,-2,-2,-2,1,5,-1
132839,-22,15,-10,0,2,1,11,4
132893,-12,-16,2,0,-2,-2,3,-2
132943,-9,40,-14,-1,0,-1,-9,2
133000,3,-54,-3,-3,-3,-2,6,4
133063,1,-39,-19,-3,-1,1,-1,2
133123,3,-59,-21,-7,-9,-7,-3,0
133175,23,9,-23,-6,-7,-4,6,-3
133239,-22,-40,-16,-2,-9,-5,1,0
133301,-24,15,-6,0,-1,0,8,3
133363,12,8,0,-2,-1,0,-1,-2
133425,-20,-69,3,2,2,-1,-6,-3
133484,22,9,-3,-2,0,0,0,-2
133539,-13,19,4,-1,-4,-1,-3,0
133600,26,-8,-1,1,2,0,-8,4
133664,7,-103,-11,-2,2,2,-2,-3
133725,-16,16,-14,0,2,1,1,2
133775,3,6,-1,2,3,1,4,4
133837,21,-13,6,1,1,2,9,-2
133900,2,-7,10,1,1,0,-1,-2
133965,20,-39,6,-5,-8,-5,-4,-4
134026,12,-40,1,1,5,1,0,-1
134074,31,29,11,-2,-4,-4,-2,-3
134128,-16,13,-2,-3,-7,-2,-4,0
134180,32,-52,-6,-2,-8,-1,0,-3
134237,-2,-33,-8,-3,-4,-2,3,0
134287,-13,10,-28,-2,1,-1,4,0
134345,-24,-41,-24,-4,-1,0,1,0
134406,-3,45,-1,0,1,1,7,2
134456,-29,2,-14,1,0,-2,-3,-1
134521,-6,-108,3,1,0,-1,3,-3
134583,4,4,-8,-3,-5,-1,-3,3
134645,6,3,2,-2,-1,0,-4,-1
134707,-7,-12,-13,-1,3,1,0,0
134757,-5,-2,4,-1,-3,-1,-6,-2
134820,2,-47,-6,1,1,0,16,-2
134889,5,-36,2,1,-1,1,0,-3
134945,20,21,-7,0,0,2,1,2
135006,-1,2,-1,1,3,1,-16,3
135066,0,51,8,-3,-4,-2,2,0
135118,-1,-19,-2,0,3,1,-2,2
135170,-6,11,2,-1,-3,-1,-2,-1
135229,-20,4,-8,-5,-5,-2,-4,0
135278,-14,64,-7,-3,-3,-1,-4,1
135329,-8,33,-2,-1,3,1,1,0
135389,-19,40,6,1,3,4,1,3
135450,-4,6,-5,-2,-5,-2,3,3
135513,1,24,-2,-1,1,1,-3,-3
135562,11,-22,10,-1,4,1,1,-2
135625,0,-48,4,-2,-7,-1,-4,-3
135688,0,-26,-10,-1,-11,-6,6,2
135749,-19,14,-13,-1,-4,-2,6,2
135798,-7,41,4,1,1,2,0,4
135852,-15,30,4,-1,-2,1,-4,0
135906,6,24,-1,-1,-2,-1,-17,-5
135958,23,4,23,0,-4,-2,1,-5
136013,0,4,-2,0,-4,-3,-5,2
136066,1,6,2,-1,0,-1,1,1
136129,-15,3,16,5,6,3,-1,1
136197,1,-15,-4,0,1,-2,-2,2
136252,-3,-22,-13,-1,4,1,-4,-1
136303,-16,-13,-9,-2,-3,-2,2,-2
136365,-18,0,1,0,2,-1,-3,-1
136428,18,-78,-12,1,1,0,-2,-1
136492,-16,12,18,2,1,0,-5,1
136552,-16,-5,17,0,1,0,0,-1
136603,3,-26,-17,-4,0,0,5,1
136667,34,1,4,-2,1,-5,3,-5
136730,-7,16,-21,-5,1,-1,-1,-1
136791,-2,-5,17,3,1,0,-4,1
136851,-5,8,10,-1,-3,-4,-2,-3
136904,-1,-13,-12,0,2,0,2,0
136955,6,-13,-33,-1,-3,-1,-1,1
137009,-9,-21,-7,-1,6,3,7,-5
137063,14,18,-4,-3,-4,-3,-8,0
137116,2,18,0,-3,-1,-2,6,-1
137174,6,8,-7,0,1,0,2,2
137237,-7,-4,-12,-1,-1,-1,8,-2
137299,2,-2,-3,0,0,-2,0,-2
137345,-10,-14,-25,-1,-1,2,7,1
137408,-8,10,3,-1,1,-2,5,-1
137472,10,-9,0,-3,-7,-4,0,-2
137534,4,39,13,-1,2,3,-2,-1
137585,8,-62,4,-4,-5,-5,-11,-6
137648,-8,28,-6,-3,-4,-2,3,-1
137699,-7,28,0,-3,-4,-1,0,-3
137752,2,48,4,-1,-2,1,5,0
137807,4,3,10,-3,-4,-3,-6,-3
137870,-16,8,-22,0,2,0,-3,2
137931,-12,20,-5,1,7,3,-1,2
137984,-6,-13,6,-1,-1,-1,-3,-3
138047,51,25,44,-4,-12,-6,-19,-5
138096,2,-11,-3,-1,-3,-1,1,-4
138155,-5,-8,2,2,3,1,0,1
138219,-19,20,16,1,0,0,-1,1
138277,-2,-2,3,2,5,2,0,0
138330,9,-24,28,4,0,1,15,0
138380,-5,31,0,0,2,2,5,-1
138437,2,-7,-5,0,2,1,1,2
138488,-14,20,2,1,1,1,-1,1
138539,-11,8,-4,1,3,2,-1,2
138597,-8,23,10,1,2,4,4,0
138658,-8,-59,-3,0,0,0,-4,-2
138719,13,2,-9,0,0,-1,-5,0
138773,2,6,-13,-2,-2,-3,-6,-2
138823,-29,22,6,-3,-6,-4,-2,-2
138877,3,9,-20,-4,-1,-4,-5,-2
138929,15,-1,-7,-1,-1,0,-6,-1
138982,-13,-99,-10,1,3,2,-5,-2
139033,-5,22,4,-2,-6,-1,1,2
139086,-2,-3,-8,1,3,0,1,1
139139,-25,-89,18,2,-4,-2,-3,-4
139197,-17,32,-1,1,-1,0,-2,0
139258,-3,3,4,0,6,-3,-10,-6
139318,8,20,-6,-4,-4,-3,-1,-5
139372,16,-52,31,2,-1,-1,-1,-3
139436,-14,-23,-1,0,-2,-4,3,2
139498,-6,19,-4,0,1,3,8,0
139558,3,18,14,4,7,1,5,0
139611,-11,22,4,-1,1,-2,-1,0
139669,0,22,9,5,4,4,-25,-3
139718,6,-39,-14,-3,-6,-5,3,0
139778,19,5,5,-2,-6,-3,-4,-3
139830,8,8,-3,-1,-4,-2,8,1
139882,-4,-25,-7,0,-1,-1,-24,-1
139939,-5,-12,-4,1,3,2,-3,4
140002,-17,-2,24,5,3,0,2,-1
140062,-15,-36,11,3,-1,3,7,2
140113,-12,-28,-10,-1,0,0,1,1
140167,2,34,10,2,-2,-2,2,-4
140222,-9,-17,7,-1,1,-1,0,0
140271,40,-43,-13,-1,3,1,-2,-1
140323,-2,-10,-5,2,2,2,18,2
140384,-5,16,11,1,3,0,-1,-1
140447,7,6,-1,0,-1,-1,-5,-1
140508,-6,-46,20,3,-1,-2,-5,-4
140556,18,-12,10,-1,-5,-2,1,-2
140609,33,-24,9,1,-3,-1,0,-2
140662,-26,26,1,-3,0,-1,1,-3
140718,21,-13,12,-3,-12,-5,1,-2
140779,0,22,2,-4,-8,-4,-9,-8
140842,-15,19,10,1,0,-3,-6,-3
140904,8,-60,-15,-3,0,-1,-4,3
140952,1,41,3,-4,-7,-4,-4,-1
141008,5,-60,31,3,1,-1,0,-3
141058,-8,-21,6,-1,-2,-2,5,-4
141111,7,-10,11,0,0,-1,-7,-1
141164,-18,10,7,-1,3,0,-1,-3
141220,2,30,-7,-1,0,3,6,2
141284,3,-1,0,2,1,1,1,-1
141344,30,-31,-2,-3,-7,-5,-8,-3
141401,-8,23,-5,-1,1,-2,3,0
141448,-8,-53,-25,0,1,1,23,4
141501,-8,13,-4,-2,-2,-1,-6,0
141552,2,-26,6,-1,2,-1,3,-1
141607,-1,-41,-3,-3,-5,0,-4,-3
141663,11,33,11,-1,-1,0,8,0
141727,11,-9,-12,1,-1,0,-27,-1
141787,-5,18,-20,-5,-6,-4,12,3
141839,27,-51,-1,-1,-7,-3,-3,0
141903,-14,14,-12,-4,-6,-5,-3,1
141967,-7,8,8,2,2,4,3,1
142028,-14,-2,12,0,0,2,2,0
142088,-6,-16,-6,-2,-4,-3,0,-2
142140,-10,67,5,2,7,4,1,0
142208,-6,0,13,0,-1,0,0,0
142270,-12,-76,-18,-3,0,-1,5,-2
142332,-3,24,2,1,7,3,3,-1
142393,3,10,14,0,-2,-1,-2,2
142439,-2,-1,-1,-1,-7,-5,-2,0
142490,9,-42,-8,-1,-3,-1,-3,-3
142549,35,-4,6,-1,-3,-2,-3,-5
142598,-7,31,10,0,0,1,-6,-3
142650,-13,-47,-19,0,0,-1,-2,1
142708,3,-5,-21,-4,-3,1,-3,2
142769,18,-20,6,-1,0,-2,-5,-7
142830,-5,34,22,1,-1,-1,-4,-1
142885,9,61,-10,-3,0,1,-2,3
142946,-8,-61,-14,-3,0,0,0,0
143007,-21,-28,-20,-2,-7,-5,-3,-3
143070,7,-33,13,2,-1,0,14,-3
143132,-5,15,15,2,-3,-2,-5,2
143180,3,23,13,0,-2,0,1,-2
143244,3,5,4,0,-1,-1,-4,-2
143306,-3,-21,-10,-2,-1,-2,-4,-1
143369,-4,24,-14,1,-1,0,-4,4
143430,-12,-3,-20,-5,-7,-5,0,-4
143493,3,16,16,0,0,-2,2,1
143549,-22,-16,-13,1,6,2,2,0
143605,-4,-9,8,0,-1,0,3,1
143669,7,23,10,0,-1,0,12,1
143732,-1,-34,-1,0,3,1,-2,0
143779,2,7,7,3,6,4,5,-1
143835,19,-91,-12,-6,-4,-1,-5,-5
143890,-8,-19,-2,-3,-3,-3,3,-1
143951,3,-29,1,-2,0,-3,0,-2
144000,20,27,24,0,-1,0,4,-1
144052,3,77,11,-3,-7,-4,0,0
144110,-8,16,8,-1,0,-1,4,-1
144172,-19,-24,0,2,5,4,5,-1
144234,7,-43,-12,-1,-1,-2,3,-2
144297,-7,13,0,-2,1,0,1,2
144345,0,-46,11,0,2,-1,-19,-7
144396,-1,-10,-8,-3,-1,-3,-7,-4
144450,-7,50,-15,0,-3,-3,-1,0
144510,11,-15,-9,1,4,2,7,1
144555,-3,-15,15,0,-4,-1,0,-1
144617,13,27,-9,-2,-2,-2,0,-2
144675,3,20,-9,-5,-7,-6,-6,-3
144728,-3,-20,-6,1,2,-1,-2,-1
144790,15,49,13,0,1,0,0,-4
144856,-37,-6,-16,-2,-4,-2,5,-2
144915,16,-28,3,0,1,0,-1,0
144976,6,35,29,1,-4,-3,-6,-2
145029,-24,70,8,-4,-6,-1,4,-2
145086,15,34,12,-4,-4,-2,-4,-4
145139,5,-52,18,0,-3,-2,2,-1
145195,15,0,-16,-2,-2,-1,-4,-1
145257,13,-23,1,1,0,3,0,1
145312,-12,19,14,-3,-4,-3,7,-3
145374,7,1,28,1,0,0,1,-4
145425,8,21,-15,-4,-3,-2,-3,2
145480,12,-24,5,0,-2,1,-1,-2
145535,-27,-42,-21,1,6,4,3,2
145597,6,-56,4,-2,-7,0,2,-3
145658,3,1,-9,-3,-3,-5,4,-2
145708,3,40,-16,-4,-2,-2,-3,-2
145773,14,-42,-14,-2,-1,0,0,-3
145836,4,-1,-5,1,-1,-2,-4,-3
145897,0,0,1,1,3,3,18,-1
145958,6,-47,13,6,4,1,3,-1
146013,-7,-3,-19,-3,-11,-8,2,0
146075,7,-68,4,-1,0,-1,-3,-2
146137,7,19,3,1,0,0,-3,-1
146199,4,8,15,1,3,1,4,-1
146251,-5,-24,-16,-6,-8,-6,-9,-5
146302,5,-82,4,-2,-2,-3,0,-5
146355,-2,34,9,3,2,1,0,-1
146408,-9,-50,-5,-1,3,4,3,4
146461,26,26,-4,-1,-2,-2,2,-1
146517,1,21,-12,-1,-1,0,-1,1
146580,-5,-8,2,-1,-3,1,-6,-2
146640,-11,8,2,0,-4,-2,-23,-2
146695,-13,65,6,1,-3,1,-14,3
146744,-10,-34,24,1,-5,-3,3,-2
146796,5,-15,-16,-1,-3,-1,4,-2
146853,-7,27,-3,-3,-3,-4,-24,0
146902,-16,-40,-5,-3,-2,-1,-31,-3
146961,3,-23,-17,-2,0,-1,2,2
147022,8,-57,-16,1,9,5,-11,-1
147082,-13,67,2,0,2,0,2,4
147133,-15,25,32,0,-1,-1,-11,-5
147190,-5,11,-4,-2,-2,0,-3,-1
147241,10,-53,19,2,2,0,0,-5
147295,7,1,8,1,2,3,2,0
147344,-1,-49,-1,2,4,3,4,2
147397,-8,-51,-12,-2,-1,-1,-2,0
147449,1,-10,-6,-1,2,2,-16,0
147502,-11,13,-2,-1,-1,-1,-7,-1
147562,10,13,-6,-2,1,0,-4,0
147621,-5,5,4,-1,0,-2,1,-4
147675,-15,53,6,0,4,2,-2,0
147726,1,94,12,-4,-5,-3,-7,-1
147779,6,25,-2,-1,-3,-4,-1,-1
147833,-10,9,4,4,3,3,-2,1
147891,14,-49,0,2,1,3,1,0
147936,-16,-16,-26,-1,0,0,2,1
147991,-6,5,10,-1,-4,-5,-7,-6
148042,2,52,-6,-2,0,0,-4,-1
148100,-8,-4,-26,-2,2,2,6,2
148162,18,-19,26,4,3,-1,-30,-5
148225,2,53,-22,-7,-1,-1,-2,-2
148288,-31,-11,-11,-2,0,1,7,5
148342,-12,15,-6,-2,-2,-4,-5,0
148399,4,-36,4,-3,-5,-2,0,-4
148453,10,-18,-12,1,-4,0,12,1
148515,-2,40,8,1,3,1,-4,2
148559,-4,-77,-9,-1,-2,-3,-4,-2
148618,6,-45,12,-2,-3,-1,-1,-5
148681,16,44,-15,-3,-3,1,3,-1
148740,18,-10,5,0,-3,-3,-19,-4
148797,4,-35,0,-2,-1,-2,-2,-6
148845,-6,22,-5,-2,0,1,2,3
148901,-7,-83,23,0,-4,-4,-11,-6
148965,-19,65,1,5,9,5,4,4
149026,17,-13,-7,1,-1,0,13,0
149085,-8,18,-9,-2,3,-1,3,-1
149145,-18,20,3,0,-2,-2,1,2
149200,0,38,-1,-2,-3,-1,-30,-4
149268,1,5,0,-1,0,-3,-7,-1
149331,-5,28,10,1,-3,-1,-4,0
149394,0,44,-2,-1,5,0,-1,-2
149447,13,28,-12,-1,8,5,1,1
149507,15,-7,3,-1,-4,-2,-2,-1
149557,-6,-5,42,5,5,0,-1,-3
149609,-21,17,-8,2,2,0,-3,-1
149662,-15,1,19,2,1,-2,-1,-1
149716,1,-41,2,-2,0,-3,-24,-1
149776,13,-13,-6,-1,2,1,-3,-1
149825,-8,-25,4,1,4,1,14,-1
149888,-8,-1,-9,-3,-3,-3,-2,-2
149948,-4,0,-1,0,-3,-2,0,-3
149999,-1,-17,-18,-1,-2,2,0,-1
150052,27,13,3,-6,-12,-5,15,-2
150105,34,1,-1,0,-2,-1,3,-3
150156,-11,44,5,0,3,0,21,3
150214,-19,-8,-13,0,4,0,1,-1
150268,20,16,4,-3,-6,-4,-9,-4
150334,-6,28,19,3,-1,-1,1,-2
150391,3,-8,-4,-6,-9,-6,2,-3
150440,-10,44,-2,-1,0,-1,-5,1
150505,-16,4,-4,-2,-7,-3,13,1
150567,2,15,-5,1,1,2,2,6
150631,-17,31,-14,0,1,1,3,-1
150693,-3,36,1,1,4,3,3,2
150742,9,4,-16,-3,-2,-1,12,-1
150794,-14,-7,-17,-3,-1,1,6,0
150848,7,18,5,1,1,2,-3,-3
150899,-31,-49,-4,-1,-2,-2,-6,0
150957,-6,3,0,0,-2,-2,0,2
151009,10,4,3,-5,-12,-7,-2,1
151071,1,25,-10,-2,-1,-4,-19,-4
151134,11,28,-2,-1,2,1,3,0
151194,8,64,6,-2,-2,2,2,-2
151245,6,39,20,0,3,3,-3,-3
151308,-13,-5,8,4,2,0,-3,3
151371,-9,48,0,1,3,-2,-6,0
151433,2,17,21,2,-1,-2,3,-4
151493,21,-20,0,-2,5,2,2,-1
151546,18,35,-5,-3,-1,-2,-2,-2
151617,-7,14,2,-1,1,2,17,3
151673,-11,-11,-4,-1,-3,-2,-4,-3
151733,-21,14,-9,2,3,2,-1,-1
151793,-16,12,-6,0,2,1,-3,-8
151846,-3,7,5,3,3,2,1,-2
151897,22,44,1,1,0,1,2,-1
151950,-2,33,-3,-2,-2,-2,1,0
152004,-14,39,10,-1,-4,-5,-6,-5
152056,-12,-34,7,3,2,1,-1,2
152118,2,-20,-17,-2,-2,0,1,3
152176,3,14,-4,-5,-3,-1,-1,-1
152243,-9,-8,0,0,1,2,-3,0
152288,-10,2,-1,-3,-3,-2,-18,-2
152350,-14,-8,-14,-1,-1,-1,-1,-2
152414,-25,-15,2,1,2,0,-1,-2
152476,-19,-33,-27,-6,-11,-5,-32,-5
152535,2,-37,-1,1,5,1,8,6
152589,-3,36,9,-1,2,-2,-7,-3
152653,-22,4,-10,-3,-1,-2,-2,-3
152716,-25,-1,-4,-1,-1,-2,-21,-5
152776,0,-22,3,1,-3,-1,-1,-5
152828,9,-63,-5,0,-1,1,4,-6
152881,20,-12,5,-3,0,0,16,3
152933,13,11,-2,0,0,2,1,9
152986,-14,26,0,-1,1,2,9,11
153039,-7,-29,-19,-3,-5,-2,-5,3
153097,4,-69,-8,-2,-3,-2,-3,0
153158,-3,-2,-8,-5,-7,-6,5,-3
153218,-19,37,-2,1,-3,0,2,3
153272,-23,31,9,3,3,0,4,2
153332,-7,-21,-1,-2,-4,-3,-5,-8
153396,0,10,-2,2,5,1,16,7
153458,-6,-70,6,1,-3,-1,-21,3
153519,2,-1,-7,-2,4,2,1,0
153578,2,-57,1,1,2,3,3,7
153623,34,-17,-4,-3,-2,-2,-24,-14
153677,3,14,3,-4,-4,-3,-6,-6
153728,6,-6,-4,-3,-4,-3,-4,7
153781,13,6,5,0,-2,1,-3,9
153838,33,-15,18,-3,-14,-8,-6,6
153900,-8,61,6,-3,-3,-1,1,-5
153962,20,-37,1,1,0,0,-8,-6
154018,-10,6,18,-2,1,-4,3,4
154079,15,-86,29,1,-1,0,-4,-5
154126,-4,42,-13,2,1,2,8,7
154181,8,14,1,3,1,0,-1,0
154232,37,15,-5,0,1,0,1,0
154285,30,33,-11,-1,0,-1,-1,2
154335,-1,3,1,0,0,0,-7,-2
154388,0,-8,0,1,-1,-1,4,-3
154441,13,-26,25,4,1,1,1,5
154499,-36,8,-5,-1,1,1,1,12
154562,-3,-10,-9,-3,-6,-8,-27,-7
154621,-9,14,-1,1,2,1,-4,-3
154676,1,-1,-2,-1,0,-1,-2,-1
154726,-9,-40,4,-1,-2,1,4,8
154778,26,-27,-17,-3,-2,2,-3,-2
154835,2,12,0,-3,-8,-4,-3,-3
154882,7,-5,-7,-5,-7,-4,-7,-6
154943,-12,-1,-2,1,0,0,5,5
155003,15,-39,3,-1,3,1,7,10
155055,-13,18,-3,3,2,3,3,-4
155116,-2,43,-9,-1,-2,0,-3,9
155168,-17,13,4,-1,-5,-7,-5,-4
155220,8,-32,-7,0,0,1,2,9
155280,2,82,11,-2,-1,-3,0,3
155340,2,4,-7,-3,-2,-2,-1,-7
155403,2,-29,-21,-1,0,5,5,8
155451,-16,12,17,-2,-4,-2,-6,-12
155506,-2,1,32,4,1,0,1,4
155561,30,-21,8,-1,-8,-5,-2,-10
155623,-5,-48,-11,-3,-5,-2,-1,-3
155688,33,-46,-2,-5,-3,-3,-2,1
155752,-13,26,-1,-4,-1,-4,-3,-3
155810,5,-24,-8,-1,0,0,6,-1
155860,-19,-18,3,4,3,0,-3,-5
155912,3,-31,-2,-2,-3,-4,5,-6
155963,2,4,2,2,2,3,-1,-2
156019,9,11,0,-3,-2,-1,-6,-2
156083,-51,37,0,-6,-9,-5,-5,-5
156143,5,-16,-10,-2,-1,-3,-2,3
156195,-10,-11,0,-1,-3,-1,1,0
156255,-8,-29,-2,0,3,0,4,-2
156303,-7,62,38,4,2,2,3,4
156361,-9,25,1,0,-1,-1,-1,0
156414,8,-18,-1,0,3,-1,-1,1
156466,1,34,1,-2,-6,-6,-9,0
156523,-3,-102,-27,-3,-4,-1,-14,-6
156585,-8,-19,-4,-1,0,1,-2,0
156645,-1,20,33,1,2,0,3,-3
156696,-26,-4,-19,-3,-2,-2,0,2
156750,-43,15,9,-1,-4,-3,1,-4
156812,14,1,5,-2,-1,0,0,-2
156856,-14,-11,-10,-4,-1,-1,1,-2
156910,-4,41,29,0,1,-2,-1,-2
156972,2,8,-2,0,0,-2,9,1
157035,6,-18,9,0,-1,2,6,1
157080,2,-13,-1,1,2,1,-1,-2
157133,2,3,-13,-1,-2,1,0,3
157187,7,-35,-13,-1,0,0,1,-2
157240,-21,-12,-9,-3,-1,-2,-8,-5
157293,7,47,4,-2,0,0,8,-1
157345,-5,-6,-8,-1,-3,-1,1,0
157397,-8,-5,-10,-3,-2,0,5,1
157449,21,-1,-1,-3,-3,-4,-7,-3
157509,15,9,-10,-3,-1,0,-7,-4
157571,-27,11,-9,-4,0,-2,-3,0
157629,27,5,-5,-1,-1,1,1,2
157688,6,13,3,-1,-4,0,2,-3
157734,-12,49,22,2,1,1,-2,3
157788,2,-27,-8,-4,-2,-2,-3,-5
157839,-11,6,32,4,1,1,-2,-3
157891,11,-12,-4,-2,-3,-2,3,-2
157947,-18,45,35,3,3,1,5,-1
158011,-19,-27,2,1,-1,0,0,-3
158072,-5,-88,7,2,4,1,4,-2
158126,-16,-87,-4,0,3,3,-4,0
158187,6,5,14,1,-4,-1,-5,-4
158250,-4,-12,0,-1,0,-2,-6,-1
158312,-1,4,5,0,-1,1,0,3
158373,-3,-18,-6,-2,0,1,3,1
158422,-15,-13,3,1,0,0,8,0
158488,-20,4,-8,-1,-5,-1,1,3
158549,-6,5,-9,-4,-5,-4,-9,-9
158617,-10,-12,-5,1,4,2,10,0
158673,0,20,-2,1,-2,-1,6,2
158726,-4,-25,-12,-4,-4,-7,-9,-3
158780,22,-80,20,2,3,0,10,-4
158828,-8,-33,6,1,2,0,6,-1
158881,11,-19,-3,-3,-2,-3,10,-4
158935,-8,-8,-2,-1,3,0,0,1
158995,21,-4,-19,-2,-3,1,0,0
159056,-11,5,-1,1,1,1,-5,0
159119,-11,-87,-8,-1,-2,-3,2,-4
159167,5,-24,0,0,1,0,2,1
159228,-17,-34,-5,-1,-1,-1,-2,1
159292,-12,1,-10,0,3,2,-3,1
159355,-14,27,15,3,3,2,-2,0
159416,-1,-1,-3,-1,-6,-4,-5,-2
159470,-35,-1,-21,-4,-2,0,0,-6
159519,1,24,-3,1,2,2,5,5
159571,11,65,-23,-6,-1,-1,-3,-1
159624,20,-26,-7,-4,-3,-4,0,-3
159679,-4,21,0,0,-3,-2,4,2
159733,39,-53,50,8,2,0,6,-4
159797,6,6,4,1,-2,-2,-14,-1
159857,4,28,-6,-2,-2,-2,-1,0
159918,-20,-57,-11,-2,-3,-4,-7,-1
159970,-29,54,9,4,7,4,1,1
160028,-27,-52,21,4,3,2,-1,-3
160081,0,-26,-11,-3,-6,-4,2,-2
160135,-2,-6,-8,-1,-1,-1,2,2
160195,-14,2,0,-1,-1,-1,2,-3
160256,-2,29,-10,-2,-4,-1,1,-1
160318,-6,-15,-19,-1,1,-1,-1,1
160367,-11,-4,1,-1,0,0,-2,0
160419,-30,4,0,-3,-4,-3,-8,-6
160481,11,-28,34,1,-5,-4,-8,-7
160541,27,-5,-11,0,1,0,4,4
160601,4,5,8,0,-2,-2,7,-4
160651,0,-27,4,1,1,1,2,1
160714,-22,2,-4,0,2,2,3,2
160776,-2,35,-12,-3,-1,2,1,3
160840,1,11,-3,-1,0,2,3,3
160899,-12,25,3,-2,2,0,-3,-6
160951,-2,91,34,1,1,0,-2,2
161014,-6,29,7,2,1,1,1,0
161064,-1,-6,-9,-3,-4,-2,1,0
161124,-6,5,12,1,3,2,5,2
161172,8,-1,1,-1,0,-2,-5,-5
161225,5,-12,-10,-1,-1,-2,-1,-3
161284,-4,-6,-4,0,-1,-1,-3,1
161347,-10,-33,-7,-3,-1,-2,13,-1
161394,15,-3,-3,-1,-1,0,0,0
161457,-8,-48,-9,-2,-2,-1,0,-2
161519,-12,44,1,0,1,-2,-3,-1
161581,8,-40,1,-3,-3,-2,-2,-3
161642,-3,-8,-20,-1,1,3,12,3
161693,-10,-4,4,-5,-6,-5,0,-4
161757,8,-31,8,0,-8,-6,-5,-7
161820,4,17,2,1,4,3,15,1
161881,-17,-7,-1,1,1,0,-3,1
161934,-7,8,-9,0,-1,-2,-2,0
161997,18,4,-2,1,-2,-2,-12,0
162059,7,9,18,0,-1,1,2,0
162121,-6,-18,0,-1,0,-1,-4,-5
162183,10,13,3,-1,-6,-3,-25,0
162245,-1,-23,-13,0,1,-2,-2,-1
162293,0,-1,-3,-3,-1,-1,3,-1
162349,15,4,-4,-1,-2,0,-4,1
162398,-4,-42,0,1,2,0,1,-2
162450,-1,43,2,-3,-2,-3,-4,-3
162504,-4,-38,-7,1,0,2,1,-1
162563,22,6,0,1,-1,-2,-1,-1
162624,-1,-8,0,1,0,-1,-7,-3
162689,-14,-23,9,2,-2,-2,-14,1
162746,10,20,-1,-1,-6,-3,-3,-3
162798,3,-12,-4,-3,-5,-3,-4,-1
162849,-4,-25,-8,-1,-3,-2,-4,-1
162902,1,-27,9,3,1,-1,0,-3
162953,-5,16,1,-2,2,-1,-4,-2
163007,3,-22,-13,-4,-2,-2,5,-3
163068,2,19,32,3,1,1,-11,-3
163128,21,-58,3,0,0,-1,-1,-2
163186,0,-53,4,1,-3,-3,-1,-3
163250,-21,18,4,-1,-2,-2,3,-1
163293,6,-5,1,-2,0,0,3,-2
163345,-6,23,-5,-2,-3,0,2,2
163399,-19,-10,-8,-2,-3,0,-30,0
163463,-2,-68,1,-2,-1,-2,-8,-5
163524,-3,34,-6,-2,-3,-2,-1,-4
163584,46,-6,10,-2,-2,-3,-1,-4
163639,1,53,18,3,1,0,-2,-4
163689,3,-8,-6,-3,0,1,0,-2
163741,8,7,1,-2,-3,-1,0,-1
163794,16,-5,-5,-1,1,-2,-10,-2
163851,15,8,-6,-2,1,1,-1,-1
163901,-14,28,-9,-4,0,0,-1,1
163964,0,-12,8,-1,0,-1,10,0
164026,-1,17,18,0,0,-3,-6,-3
164087,3,19,32,1,-7,-7,-9,-4
164138,3,-15,-2,2,3,0,-2,0
164192,7,24,10,-1,-2,-1,-1,3
164245,-17,1,-7,-1,-1,1,6,0
164307,8,-49,-5,-2,1,-1,1,-2
164357,21,10,0,0,2,1,9,-2
164412,-1,-8,-12,-3,-4,-3,-2,-1
164465,-2,38,6,4,7,3,-2,-3
164529,-1,32,-11,-2,-6,-5,7,-1
164591,-12,-54,1,-1,1,0,0,-1
164650,-3,6,-5,-2,-6,-2,-4,0
164704,2,1,2,-2,-2,-3,-4,-2
164768,3,11,-1,0,6,3,5,0
164830,-11,8,1,-2,-1,-3,1,-3
164889,7,-7,-9,-1,-2,-2,-1,1
164943,9,-17,-19,-5,-4,-3,0,-1
164996,19,7,-5,-1,-1,-1,-26,1
165049,-3,-7,-2,-1,1,0,2,0
165102,8,-70,-2,-2,2,1,-7,-3
165154,24,-19,23,1,-1,-2,0,-3
165217,15,14,4,-2,-5,-1,3,4
165273,14,35,0,-3,-3,-1,2,3
165332,6,18,10,1,3,2,4,3
165385,-1,-13,1,1,1,0,10,-3
165447,-6,8,3,1,-2,0,0,3
165512,21,87,42,0,2,2,-2,-2
165573,-22,11,-8,-1,-2,-5,-12,-3
165633,1,32,4,-3,-2,-1,11,-3
165685,-1,20,-11,-1,-6,-7,-10,-7
165749,8,18,2,0,0,-2,-5,0
165812,-17,21,7,0,-2,-1,-2,0
165873,-2,-5,-10,-1,-1,-3,3,1
165923,31,32,10,0,-1,1,-4,2
165991,8,-22,-1,0,-2,-3,0,-3
166057,-6,4,1,-1,3,4,-1,6
166115,20,6,2,0,1,0,1,0
166172,8,9,4,1,3,2,5,-1
166224,-7,-53,-9,-1,0,1,-2,2
166277,-6,-33,-1,1,-1,-1,-2,-3
166334,22,-51,-9,-8,-8,-6,-7,-4
166384,-4,16,-8,-2,-1,-2,-10,-3
166436,-14,-37,0,1,1,-1,-1,-1
166495,-10,13,8,-1,-4,-2,-4,0
166556,-5,-5,1,1,7,2,-22,-1
166609,-19,6,16,2,1,-1,-1,-3
166670,-11,29,-1,-1,3,2,8,-1
166734,-16,-12,3,-1,0,-1,1,-2
166796,-12,2,-10,0,-3,0,-4,0
166856,-5,-17,9,1,3,1,-5,0
166915,9,7,7,1,3,1,2,0
166961,2,-8,-1,-2,-1,-3,-3,-1
167015,9,21,1,0,0,0,3,-1
167064,-3,12,2,2,5,-1,3,3
167118,17,-72,13,0,-2,0,17,-2
167175,-6,-45,-2,-3,-2,0,-8,-4
167238,-33,76,-3,0,6,5,-14,5
167298,-27,58,-9,-1,-6,-1,1,5
167352,17,16,1,-3,-6,-5,-2,-3
167403,1,5,6,0,-2,-1,-2,-1
167456,-10,-37,-4,0,2,1,0,0
167505,-25,19,5,1,3,2,0,-2
167560,9,29,0,-2,0,0,-5,1
167611,7,17,4,4,5,4,4,9
167671,-11,27,2,-1,-4,0,1,-2
167729,23,24,6,0,2,1,2,-2
167778,4,-18,-2,-2,-1,1,1,0
167837,14,-14,-10,0,2,1,-4,-2
167898,2,-6,3,2,-1,-1,-1,-4
167959,-4,16,-3,0,-2,-3,-2,-1
168009,-8,-47,-13,1,3,0,-3,-5
168061,-21,-17,-9,1,2,-1,-5,-6
168114,-9,-5,1,0,2,2,4,-3
168168,-24,-36,-14,0,2,2,3,0
168221,11,-1,-7,0,1,-1,-6,-1
168281,5,16,-12,0,2,2,-1,5
168343,-14,34,20,1,-1,-1,13,0
168401,9,2,11,2,-7,-2,-3,-6
168452,-1,-9,0,-2,0,-2,-4,-1
168518,-11,-31,-4,0,0,-1,-3,2
168580,-6,14,-11,0,-5,-2,3,3
168641,13,33,-4,-5,-5,-6,-7,-4
168702,-8,-11,-6,1,-1,-1,-3,-2
168757,2,13,-4,-2,-3,-2,-4,-1
168819,4,4,-13,2,1,-1,-7,1
168880,-17,34,-5,3,6,5,11,3
168943,11,26,7,-4,-4,-2,-6,-4
169003,-8,-23,-10,-2,1,-2,-4,0
169051,10,-3,-16,-5,-5,-5,-3,-5
169104,-13,27,4,2,3,1,-4,0
169158,0,-36,-9,-1,3,-2,15,0
169210,18,3,-2,1,1,-1,-5,-1
169265,22,-2,7,-1,-2,-1,3,-4
169320,16,-23,12,0,-3,-2,-7,-7
169383,-6,-15,-3,3,-1,-1,-1,0
169444,-8,14,-16,-3,-4,-2,2,2
169502,-6,-8,8,1,0,0,1,0
169565,-18,16,-17,2,4,3,-3,4
169628,-12,18,-2,-3,0,-5,-9,-4
169689,10,26,12,0,-2,-1,1,-1
169734,11,-19,2,1,0,1,3,-1
169787,17,-4,-4,0,-3,-2,-3,-2
169846,-9,-55,-14,0,-1,0,8,1
169906,-5,-26,-6,-5,-3,-2,-2,-2
169953,-9,19,-1,-3,-9,-6,-5,-2
170006,3,20,-2,0,-2,-1,-1,0
170064,1,-3,17,3,3,2,-21,1
170128,9,-10,-8,-3,-1,0,3,3
170186,-4,0,-6,0,-1,-2,-4,0
170238,-2,19,5,2,2,1,-1,-1
170306,0,19,5,-1,0,1,5,-1
170366,2,5,17,2,-1,-2,4,-1
170427,-43,-23,-6,-2,-3,-4,-1,-6
170476,6,48,-2,1,1,0,-4,0
170540,-18,21,-6,-4,-3,-5,-4,-4
170603,-3,5,5,-2,-4,-4,3,-6
170670,-2,-37,-10,1,3,3,1,3
170731,-3,-28,1,-1,-2,-3,-8,0
170777,-2,8,2,-2,0,-4,-2,-5
170839,1,-1,6,-1,-2,0,3,1
170903,-2,-36,-17,-4,-3,-4,-3,-4
170964,-1,-15,0,-1,-1,-2,-4,3
171025,-14,-50,8,-2,-3,-2,-2,-8
171077,-16,21,4,-1,-3,-2,6,-1
171130,21,16,0,-2,0,1,-3,1
171185,-39,-91,-3,-2,-5,-4,-4,-10
171235,-7,9,0,-5,-3,-1,-5,5
171288,12,-2,-12,0,-1,0,1,-3
171348,-7,3,1,-2,1,-2,-5,-1
171409,-2,-11,-2,-1,-2,-2,8,-3
171468,29,-9,-2,-1,-1,0,-17,1
171520,-18,-3,-9,-1,0,0,3,-3
171573,23,-10,4,-1,-2,0,-22,-4
171626,10,-10,-9,1,-1,0,4,2
171683,-5,-24,-1,1,1,1,-2,1
171730,7,-1,-1,0,-2,-1,2,-7
171788,8,69,5,-3,-6,-3,-3,-1
171853,-6,29,21,1,-6,1,8,1
171912,32,35,4,1,2,1,8,16
171964,-17,1,-9,-1,-2,1,1,-1
172015,29,-27,8,2,0,1,-3,11
172068,16,5,-4,-1,1,2,2,-1
172121,-19,14,6,1,-1,0,3,-2
172175,8,8,-8,-3,0,3,17,0
172225,-10,-29,-5,-2,-1,1,-2,-1
172278,8,9,13,1,-2,0,-14,2
172333,-18,-16,-4,1,3,-2,-6,1
172393,2,-32,-5,-1,-2,-2,-5,-2
172454,-2,21,19,4,5,1,3,1
172515,0,6,0,0,0,0,-2,-1
172562,16,10,-11,-3,-5,-6,-7,-6
172615,-1,67,1,0,1,-1,4,2
172668,0,-23,4,-2,-3,0,5,-4
172727,-5,-14,-9,0,1,0,3,-2
172773,1,-11,-7,-4,-1,-2,3,-2
172832,1,-8,-11,-3,0,0,-3,-2
172894,-7,-16,-2,1,-1,1,2,1
172947,-13,-21,1,0,-7,-4,5,1
172998,21,-20,1,-1,-4,-2,2,-4
173050,13,-2,-4,-2,-5,-3,-3,-3
173103,14,8,5,-5,-5,-3,2,22
173158,-6,-5,8,2,2,0,1,-15
173208,-35,14,-1,-6,-9,-3,-5,0
173263,-2,-72,5,-2,-2,0,-1,-5
173315,3,-51,4,1,-3,-2,-3,-7
173377,1,-5,18,2,3,3,2,-3
173433,8,57,-2,1,1,1,2,2
173494,-11,9,8,-2,-5,-4,0,0
173545,-7,-11,8,0,-1,2,-10,1
173598,-13,-11,5,0,4,3,-1,3
173656,-6,32,2,2,2,0,-7,3
173702,-15,18,15,1,0,2,0,1
173756,2,-87,-1,0,0,0,-5,-4
173814,2,-29,-7,-1,3,2,0,1
173877,-10,1,7,0,-3,-5,0,-1
173939,-4,38,5,0,0,-3,6,-2
174001,18,19,39,0,-2,-2,-6,-6
174047,-10,-4,13,-1,-4,-5,-1,0
174110,6,-35,3,0,0,1,-16,-1
174173,-9,10,-6,-1,-2,-2,2,0
174236,-1,25,-1,-1,-2,-4,-6,-3
174296,-8,-29,-5,0,-2,1,-1,2
174347,1,-17,-10,-7,-6,-4,-8,-4
174411,1,7,16,1,3,2,4,0
174472,-12,-57,3,2,0,0,7,-3
174535,3,5,-3,0,1,-1,3,1
174596,-16,-31,3,0,1,-1,0,-1
174657,-9,-50,45,4,3,-1,-2,-3
174709,4,26,9,-1,-1,-3,1,-3
174763,5,-6,11,0,-1,0,1,-2
174813,-10,5,-3,1,-2,-2,-3,0
174867,-7,24,10,-1,-3,-3,-7,-1
174923,34,-89,-4,-3,-3,-3,-5,-5
174977,25,-6,0,2,4,3,5,3
175038,5,-20,1,-2,-1,-1,-3,1
175099,-21,-3,1,1,1,1,11,-2
175152,-17,-8,-2,0,-1,-2,4,-2
175214,33,9,-1,-4,-10,-6,-5,-4
175277,5,-32,4,1,3,1,2,-2
175339,-6,0,-8,-2,-2,-1,-7,-3
175399,24,-46,13,-1,-3,0,1,-2
175453,-2,-14,5,0,0,0,1,0
175513,0,-20,1,-1,2,2,0,0
175576,1,12,2,1,1,2,-4,-1
175640,7,5,-18,-2,1,2,-1,1
175691,3,-28,18,4,4,3,3,2
175740,-6,6,-4,1,5,2,0,6
175797,-14,4,3,1,3,1,0,-5
175860,28,17,-13,-2,-1,0,3,0
175908,-16,-31,-5,-1,0,-1,-1,0
175961,9,-43,1,0,-4,-2,0,-1
176019,1,-14,-2,-3,-5,-4,1,-1
176082,-8,-6,-9,-1,-1,2,2,1
176142,2,16,1,-2,-4,-4,-7,-1
176198,-3,6,-8,-3,2,2,16,3
176260,5,16,2,-1,1,1,7,3
176322,8,40,-5,1,-2,-1,12,-1
176383,9,-15,0,-3,1,-1,-6,-3
176444,-5,-2,3,0,-5,-1,-1,0
176496,7,59,-11,-1,-1,0,-1,4
176558,-10,-29,0,-3,-3,-2,-5,-7
176619,-7,2,-1,2,3,1,11,0
176685,14,-33,1,-1,1,1,-2,-2
176742,-3,-6,2,-1,-1,1,-2,0
176794,-7,66,-6,3,7,3,-1,3
176847,21,23,-5,-4,-1,1,2,1
176898,-5,-19,2,1,4,2,1,2
176950,-4,-62,5,2,2,0,1,1
177004,-2,16,1,1,1,-1,-2,-1
177061,10,-6,0,-2,-1,-2,8,-5
177125,-4,65,17,-1,-3,1,-5,1
177184,-7,-23,3,-1,-3,-2,-3,-1
177238,3,36,38,1,1,-2,-5,-5
177299,5,-31,-6,1,0,0,-6,-2
177365,-2,10,-1,1,6,2,-2,0
177429,12,-13,-3,-2,0,-3,5,-1
177490,-4,8,5,-2,-5,-3,-9,-2
177547,36,-13,13,0,0,-1,-3,-4
177599,13,-5,-3,-6,-10,-6,-1,-2
177662,9,10,-26,-4,-3,-1,0,-2
177725,17,2,8,1,-1,-1,-2,0
177784,-9,13,-9,-1,1,0,3,-3
177839,1,-33,-3,1,-2,-1,-12,-4
177888,-7,-30,-13,-3,-1,-1,-2,0
177948,-8,-24,-13,-2,-1,-2,5,0
178001,17,-83,-3,-1,0,0,-3,-2
178058,-13,1,-6,-1,0,0,4,-1
178110,1,61,7,0,1,2,2,-3
178172,-5,17,-5,-2,1,-1,-6,-4
178229,7,-42,-6,0,0,1,5,2
178280,-16,-9,-9,-1,0,-2,0,-1
178343,20,-9,6,0,1,0,-1,-3
178406,-22,29,14,2,-3,-4,-3,-1
178468,-4,8,3,0,2,1,-1,0
178528,-2,9,-7,-1,0,-1,-1,-2
178580,-9,13,6,0,2,1,1,-2
178631,4,-7,0,1,-2,-1,-3,-1
178683,14,-25,10,0,-3,-2,-28,-2
178739,31,-44,-7,-2,-2,-2,-9,-2
178791,4,2,9,4,0,-1,1,-1
178849,-8,-9,-1,-2,0,-2,-12,-3
178914,-22,-12,-1,-1,2,0,5,1
178971,-10,22,2,-3,-3,-2,-23,-5
179022,-15,23,-3,0,1,0,4,-1
179073,6,-7,1,1,1,1,0,2
179132,-18,-12,-34,-5,-1,-1,12,2
179179,-16,-29,24,1,1,0,6,-3
179231,-4,2,3,-2,-2,-3,-9,-7
179291,12,-8,-6,1,0,-2,2,-1
179347,22,27,-3,1,1,1,5,1
179397,13,-59,4,2,0,0,-15,-2
179449,7,-52,4,1,1,0,2,-1
179509,11,-19,-8,-2,2,0,3,-5
179568,-6,-24,-6,1,0,-2,-4,0
179621,-21,-32,-20,-5,-11,-9,4,-6
179673,-15,5,29,1,-8,-4,-3,0
179726,-10,6,20,1,-3,1,1,0
179782,-8,53,0,-1,-4,-4,-18,0
179831,5,-3,19,4,2,1,3,2
179891,10,4,5,1,-6,-6,8,-3
179952,26,0,-12,-4,-4,-3,1,-1
180013,4,-18,-7,1,4,3,1,-2
180067,14,-12,-18,-4,-5,-2,-2,0
180117,3,-8,-5,1,-3,1,0,0
180170,-5,32,-11,-1,3,-2,12,3
180222,12,17,5,2,2,1,2,2
180275,2,-11,-2,-2,-1,0,-2,-1
180334,-7,25,4,4,2,2,-4,3
180396,2,19,4,0,2,-1,-4,-1
180457,3,-2,-11,-2,-4,-2,-2,1
180508,-2,-13,-5,-2,-2,-1,-1,-2
180559,-2,-21,1,2,1,0,2,-1
180611,0,-58,-1,0,1,-2,-5,-4
180663,-9,-8,-5,1,0,2,4,6
180715,-4,33,2,0,0,0,8,4
180769,-5,15,3,-1,0,-1,-5,-4
180822,-11,-38,7,-2,0,-4,-1,-3
180875,-18,17,-5,-2,-2,-1,-27,1
180932,2,-22,-6,0,-5,-3,-7,-4
180995,-35,0,16,-2,-5,-3,1,-4
181056,32,29,-26,-6,0,-3,-10,1
181106,-28,18,4,0,-3,-1,-2,0
181161,-12,-2,0,-2,-3,0,0,-1
181211,11,22,10,0,0,0,-1,-1
181263,-24,23,0,1,1,3,1,4
181317,-23,8,2,2,2,0,-2,0
181378,11,24,0,0,2,0,4,3
181439,-1,-88,10,2,0,-1,-3,-6
181500,-4,16,4,-1,0,-1,-6,0
181564,13,6,-10,-3,2,1,9,-2
181626,2,15,-6,-2,-2,-2,-1,-1
181671,11,26,-7,-4,-2,-5,-9,-5
181735,-10,71,9,-4,1,1,-5,0
181802,6,-21,-1,-1,-2,-2,4,-2
181859,10,-3,-7,-4,-5,-4,0,0
181908,-26,4,-6,-6,-8,-5,2,-7
181972,-17,-17,-3,-1,-1,-2,-10,-3
182035,8,-2,5,-1,-6,-6,4,-2
182097,-13,10,0,-4,-2,0,1,1
182157,-1,-7,0,1,-4,-2,0,2
182211,0,-10,-2,1,0,-1,-6,-1
182268,-1,17,1,-1,1,-2,-4,-1
182315,18,32,5,0,2,1,2,0
182366,2,10,8,0,-9,-5,-1,-1
182423,-9,6,5,2,2,0,-12,1
182484,-2,17,0,-2,-1,0,-3,1
182545,8,16,-2,-1,1,2,14,5
182600,9,-38,-13,-2,2,0,4,1
182653,-6,15,-6,-1,-4,-2,-3,0
182715,-13,0,9,-1,-2,0,-4,1
182779,-12,14,1,-4,-5,-6,-2,-4
182840,9,13,11,3,0,-1,3,0
182899,-13,11,14,3,4,2,0,-1
182951,0,-30,1,-5,-14,-7,-20,-2
183013,-8,7,4,-2,1,1,-5,-2
183078,-20,-23,16,-2,2,1,1,0
183140,27,0,-5,-1,-5,-1,14,-2
183200,-7,-17,2,5,2,1,5,0
183254,0,20,9,3,5,0,0,-4
183304,-15,40,-13,-2,-2,0,0,1
183358,-7,-1,-6,1,-2,-1,-2,-2
183412,19,6,3,1,1,-2,-7,-1
183463,-12,2,-4,-2,-4,-1,3,-3
183521,-4,18,-5,2,2,1,-1,3
183583,26,35,1,-3,-5,-5,-3,-3
183643,4,54,-3,-1,-4,-1,1,0
183694,3,-39,-6,3,6,4,3,5
183757,26,-11,-3,-2,0,-1,2,-1
183821,1,-25,5,-1,2,-1,0,-4
183882,5,-18,9,-3,-9,-6,-6,-8
183943,-8,-10,-3,5,7,2,-1,3
184000,2,12,-10,-3,-5,-3,0,1
184060,-8,-62,-9,-1,-1,-1,0,1
184122,-14,3,-1,-2,-3,-1,-2,-4
184174,5,-23,-5,-2,-2,-2,-5,-4
184228,1,-20,4,-1,-4,-2,-2,-2
184281,18,-10,5,-1,-3,-2,-3,-1
184331,-21,2,2,1,4,2,-3,2
184385,-16,-12,11,1,2,3,5,2
184440,15,-4,-4,0,-2,0,-5,-2
184504,27,4,-8,-3,-3,-1,9,-3
184565,-8,25,1,-1,1,-2,0,1
184616,-2,15,3,0,2,3,-1,3
184679,-15,22,18,3,-2,0,2,2
184744,6,9,-7,-4,-4,-7,-6,-5
184805,6,6,0,0,2,2,5,3
184856,16,-13,-9,-1,-3,-3,0,-3
184917,-1,-1,14,1,3,0,-5,0
184981,14,0,-10,-1,2,-1,-1,-1
185045,-4,17,-2,-3,-7,-5,0,-4
185105,9,-48,5,0,5,2,1,-4
185166,6,-6,-4,0,0,0,-25,2
185225,3,48,13,-3,-11,-8,5,-5
185285,-8,45,8,0,-1,-3,-3,-2
185344,12,-13,-7,-1,0,0,-5,-1
185407,9,20,-7,-5,-5,-5,-10,-4
185469,0,5,-6,-1,1,-1,-1,-2
185516,-23,19,-3,3,3,1,1,3
185571,11,-30,11,-1,0,1,3,-1
185624,-16,26,5,1,-1,-1,1,0
185676,-9,1,-9,-2,-3,-2,-3,-1
185728,9,19,19,1,-2,-4,0,0
185787,9,25,-10,-3,-3,-1,3,-3
185849,-5,-13,-5,-2,3,2,7,4
185909,-8,3,-10,-1,-11,-6,0,-1
185966,5,5,12,-3,-4,0,-1,0
186026,50,6,18,1,0,-2,-2,-1
186088,-3,9,5,-2,-2,-4,-7,-5
186150,16,-49,-5,0,2,2,-1,-2
186199,4,20,0,-2,-1,-2,4,1
186251,21,-8,-21,-3,-1,-3,-3,-3
186306,-3,5,-4,-3,-1,-1,-7,-3
186358,-11,-21,-9,-3,-4,-4,-4,1
186410,-4,41,16,1,0,0,-3,1
186468,-14,18,5,-2,-7,-5,2,-6
186530,-17,4,-7,-2,-4,-3,-1,2
186591,-11,1,1,1,2,3,-2,-1
186644,9,-19,-7,-4,-6,-4,5,-5
186705,-10,-4,7,2,4,2,5,0
186761,30,10,1,0,-1,0,1,-2
186809,11,23,-17,-1,2,0,4,0
186864,-11,20,13,2,3,0,2,1
186913,-14,38,5,1,2,2,3,3
186973,-5,-42,-19,3,1,2,0,1
187033,-13,-14,-3,0,3,2,-2,1
187093,12,-21,2,1,1,0,-3,-1
187146,-12,-23,-5,0,-1,-2,-25,-8
187198,0,-1,1,4,4,3,-2,0
187250,11,18,5,-2,-2,-2,3,-3
187302,7,-6,2,-1,4,1,6,2
187355,-14,8,-5,-2,-4,-3,0,2
187413,-6,3,-5,-1,-1,0,5,2
187460,-5,43,-1,-2,-3,0,7,1
187512,-6,46,3,-6,-8,-5,-4,-2
187572,2,-1,-5,-3,1,1,0,1
187636,12,7,0,-2,0,-3,13,-3
187693,-9,2,1,-1,-3,-3,-4,0
187749,-16,16,1,3,2,2,0,3
187811,14,-46,-11,0,-1,1,-2,-1
187872,-40,28,-8,1,3,-4,-15,-21
187935,4,38,11,3,0,-2,-6,0
187984,-9,3,1,1,0,-1,-4,1
188039,19,-8,-4,2,-2,-1,-7,1
188090,-12,38,-3,0,4,2,-6,3
188142,-14,-19,-14,0,1,-1,-5,-4
188195,-2,-19,16,3,2,3,-1,-3
188254,-10,2,-16,-3,-3,-4,-1,-6
188315,-23,-4,0,-1,-1,-4,-2,-1
188366,-9,-6,0,-1,0,0,3,-1
188421,4,-69,-4,-3,-3,-2,-1,-4
188473,2,-16,7,-3,-4,-5,-12,-8
188523,-3,-19,-8,-1,-4,-4,8,-6
188579,0,8,4,0,-1,-1,-6,3
188630,-11,-3,-9,0,-1,0,0,-1
188681,-14,14,-2,0,2,2,0,-3
188734,-1,6,8,-1,-4,-3,-3,-2
188791,-11,8,2,-1,-2,-1,-4,1
188855,-6,9,-4,-2,3,3,5,0
188916,-4,4,2,-2,2,0,-2,0
188976,-11,3,-8,-2,-1,0,4,1
189027,17,10,4,-4,-9,-8,-20,0
189079,-1,-4,2,-2,-2,-1,-3,-2
189133,-15,-11,2,2,0,-1,2,-1
189187,-9,0,1,2,-1,-1,2,1
189238,-8,-1,-8,-2,-3,0,2,1
189296,-3,-3,-8,-1,2,5,5,5
189358,-10,-33,-12,-1,0,1,8,2
189418,4,-9,5,0,0,0,1,2
189471,-2,-68,2,-1,-4,-2,-1,-4
189522,2,-8,4,-1,-1,-1,-8,-3
189581,1,-6,-3,2,5,1,-4,2
189642,4,-15,9,4,4,1,-2,-1
189691,19,13,-2,-2,1,-2,-4,-3
189742,6,18,-17,-3,2,1,5,0
189802,-6,-25,-2,3,1,0,5,0
189861,6,-8,-1,0,-1,-1,-2,-1
189913,7,-88,9,0,0,0,1,-3
189977,-1,-2,2,2,0,2,1,1
190038,7,11,1,1,-1,0,0,2
190107,4,-1,0,0,2,1,4,1
190167,5,2,8,0,0,-2,0,-2
190213,-2,1,-9,-1,-2,-3,-3,-4
190277,0,19,-4,1,3,2,4,6
190340,-14,-76,3,1,1,0,-13,-2
190401,11,-13,-5,-3,-6,-4,0,0
190452,-3,-37,1,-1,-2,-1,-1,-2
190515,-9,17,-11,1,5,4,-26,2
190579,23,-15,-5,-6,-3,-3,-1,-3
190642,-12,-55,-11,-4,-1,-3,-5,-3
190701,-16,4,-9,-1,-2,0,11,2
190753,2,-12,-11,-1,0,-1,6,1
190812,13,-38,-5,-5,-5,-2,-5,-6
190865,-14,-1,0,0,-2,-1,3,1
190917,-11,3,-12,-3,-4,-3,1,-1
190978,-8,10,-10,-1,6,3,2,1
191040,22,-19,-4,-2,-6,-5,-4,-1
191100,-24,-8,-15,2,3,4,1,3
191157,4,-6,-13,-2,-2,-2,4,4
191211,-12,3,-8,0,2,-1,-1,1
191271,-4,-6,11,-1,-4,-2,1,3
191322,9,1,3,2,2,-1,-1,-1
191384,30,-5,0,-2,-2,-1,-4,-3
191449,11,31,-9,-3,-4,1,-1,0
191495,-2,14,7,4,0,2,1,0
191557,6,-18,-13,-1,0,1,6,0
191607,-13,-9,-4,-2,-1,0,3,0
191666,3,20,4,-1,-2,-1,-6,-1
191714,-10,-31,-4,-4,-9,-7,-2,-6
191770,10,36,-8,-1,0,0,1,-1
191823,-8,6,-8,-3,-2,-2,0,1
191885,1,-15,-15,-2,0,0,-5,-4
191947,-12,4,0,0,1,-1,-1,-2
191998,-5,-5,7,0,1,0,-4,2
192060,-9,-7,-8,3,4,2,3,0
192124,3,-51,9,3,3,1,4,4
192186,-8,3,-10,-2,-1,-1,0,2
192246,12,-15,-6,-2,-3,-1,-3,-4
192302,7,6,18,3,3,0,-3,-2
192365,6,-3,-9,-6,-7,-6,-2,-3
192425,-8,17,-3,1,1,1,-1,0
192486,-7,-1,-1,1,1,2,16,1
192547,-1,15,13,-1,1,1,4,3
192601,38,-9,-6,-2,-7,-4,-3,-1
192669,1,12,-6,-2,0,-2,-2,1
192727,-9,-19,0,-1,-1,0,-15,-1
192790,-2,-32,11,0,-6,-1,0,-3
192848,37,-2,0,-3,-3,-2,-4,-3
192911,-27,6,5,1,1,-1,0,-1
192960,-16,-17,-7,0,0,-1,-1,0
193024,13,-2,-3,-4,-8,-7,-2,-5
193086,-7,-58,-12,-3,-1,0,-9,-2
193149,17,-4,-6,-1,2,-1,-2,0
193199,-5,8,6,-5,-5,-4,-4,-4
193252,8,-7,1,-3,-3,0,-7,-3
193302,-20,-7,-4,1,2,3,5,1
193355,3,-24,-3,-4,-6,-6,0,-2
193417,3,-28,-14,-2,-3,-3,-2,-1
193469,-19,27,-26,-2,0,-2,-1,1
193529,2,10,8,2,3,0,-1,1
193590,-4,-3,-1,-2,-1,-1,-7,0
193651,4,19,-6,-1,-1,1,3,-1
193701,0,-8,-17,-4,-1,0,3,0
193752,-18,16,5,-1,-1,0,-1,-4
193807,-5,14,-1,0,0,1,14,2
193860,-7,15,-2,-1,0,-2,-4,0
193912,25,7,-4,-6,-11,-11,-3,-6
193972,0,14,10,0,-2,-1,0,2
194031,-19,-23,5,0,1,1,5,-1
194083,-4,-1,9,-4,-10,-5,3,1
194146,4,-2,1,1,-2,-2,1,0
194208,-7,-3,-3,-1,1,-1,-6,-1
194272,-4,-11,-4,1,-1,-1,11,1
194332,-11,25,-8,-3,0,0,-1,-2
194385,3,-67,-8,-3,-3,-2,-3,0
194436,0,41,4,-2,-1,-2,-2,3
194490,11,-19,12,-1,-3,-5,2,-3
194541,1,1,-3,1,3,1,0,2
194598,-9,52,5,-1,0,-1,-6,0
194652,30,12,8,-2,-1,-1,1,0
194705,-10,5,14,1,1,-1,-6,-1
194763,-7,16,21,1,0,0,0,-2
194826,-13,-13,-4,-3,-3,0,7,1
194889,-1,3,10,1,-6,-4,-7,-3
194952,-17,-9,-7,-1,0,0,0,-1
195014,23,10,-1,-1,-3,-3,0,-1
195074,15,32,0,1,1,1,-4,2
195129,-12,3,15,2,3,1,-3,-5
195191,-26,-2,9,-1,-1,-1,-1,0
195253,11,-45,6,1,1,1,0,0
195313,6,-7,-13,-1,-3,-1,3,-2
195366,5,3,3,-1,-3,-4,16,-4
195418,-9,31,1,-1,-4,-3,-9,-2
195472,-7,-10,-8,1,3,4,2,4
195523,8,31,-6,-4,0,0,6,-2
195578,2,26,10,-1,-2,-2,0,-3
195636,-1,3,0,0,1,0,0,0
195697,13,7,-5,-1,-1,-1,-19,1
195759,7,8,-3,-3,-3,-2,3,-2
195810,2,6,14,-3,-1,-2,-4,-2
195872,-2,41,9,-1,-2,-2,-2,-4
195935,-24,-5,2,-1,-3,-6,-25,0
195996,-1,-57,6,2,0,1,-1,5
196048,6,17,-15,-2,-8,-5,0,-2
196101,9,-51,5,5,4,5,20,-1
196160,11,-10,-1,-1,-1,0,0,2
196205,3,-5,-7,0,-1,0,5,2
196259,-17,-1,22,2,0,0,3,1
196317,-7,14,-4,-3,-1,0,1,0
196379,13,-14,-6,-1,-1,0,-3,0
196439,-17,23,5,0,-1,1,-2,3
196494,5,39,-1,-2,-3,-3,1,4
196543,-25,-5,12,1,-2,0,-4,0
196597,-14,9,-2,-2,-6,-3,-6,-3
196649,-4,30,3,-3,-4,-5,0,1
196704,-11,1,-11,1,1,2,-1,5
196756,14,-9,6,-1,-2,-3,-2,-3
196809,1,2,-2,-2,0,1,7,2
196862,1,-11,11,-2,-9,-5,-2,-7
196921,2,21,-5,-1,0,-1,0,1
196982,-2,54,6,-1,1,-1,-5,-3
197044,3,-22,-6,-2,-1,1,4,-4
197091,0,-57,-21,-7,-4,-9,-14,-16
197143,16,11,-1,1,4,1,9,2
197196,7,-20,-10,-2,1,-3,-4,-2
197250,4,-17,4,2,3,3,8,3
197302,-4,-9,-7,0,1,0,2,3
197359,5,-30,3,0,0,-2,3,2
197424,18,-10,1,4,3,2,2,-1
197482,4,-7,-4,1,1,2,5,1
197532,-8,-6,-1,1,-2,-2,0,0
197595,1,13,34,2,-2,-2,-1,2
197657,-18,-3,-8,-2,2,0,0,-2
197725,8,3,9,2,1,-2,9,0
197787,47,35,22,2,-2,-1,-4,7
197842,-4,43,-3,4,5,5,1,5
197895,5,-14,-8,2,1,0,-4,5
197956,14,-5,-9,-4,-4,-4,9,-3
198020,13,11,10,-1,1,-1,-5,-1
198083,-25,26,3,1,1,0,6,2
198142,-10,23,5,0,-1,-2,6,5
198194,8,5,3,-3,-7,-4,-3,3
198246,3,-12,-2,2,4,1,-19,3
198299,2,22,3,-1,-5,-2,1,-4
198353,-1,26,-4,2,4,4,12,3
198405,12,10,37,1,-5,-4,-1,-2
198463,9,12,-9,-2,0,-2,-10,-4
198524,-10,-3,-3,-1,-2,-4,-4,2
198585,11,39,-2,-3,-4,-2,1,3
198637,-13,-7,-5,1,-1,-2,2,-3
198700,1,44,1,0,2,3,-4,0
198771,-14,10,-5,1,1,-1,-2,-2
198825,-4,24,-3,-1,0,-1,6,-5
198877,-10,-7,-2,-2,2,-2,2,-1
198930,0,39,3,-2,-1,-2,3,-3
198983,-10,4,10,-1,-2,-1,-1,0
199036,2,-8,7,-1,-2,-1,-8,-7
199088,12,45,-8,-1,2,4,15,6
199139,15,-6,-13,-7,-7,-3,-6,0
199191,-1,-29,-12,-1,-2,0,9,0
199245,-17,-28,-1,0,1,-1,-4,-11
199302,-8,7,-8,-3,-2,0,-1,2
199364,-28,10,3,0,2,1,11,-12
199425,5,-21,-3,3,0,0,-3,1
199478,-7,-12,18,3,0,0,-6,-2
199530,11,23,17,1,0,-2,12,2
199584,-22,-14,5,2,5,1,1,2
199636,3,-1,6,2,1,1,-4,1
199687,-8,26,-18,1,-1,-1,-22,-1
199745,-6,10,5,-3,-3,0,-3,-12
199807,-4,-4,3,-3,-3,0,11,-3
199871,-2,4,2,-2,0,-1,-2,0
199927,-6,7,13,1,0,1,1,5
199982,-5,-21,2,-2,-2,-2,-4,1
200046,6,13,16,1,-4,-1,-1,-1
200107,-10,-1,-3,1,1,-1,-3,-1
200167,-5,-6,-7,-3,-2,-1,0,0
200219,-5,-59,4,1,0,-2,2,-2
200274,-9,7,4,-1,-2,-2,-7,-5
200326,-9,63,11,0,3,-1,6,0
200379,0,1,-7,-4,-2,-1,-7,-2
200432,-6,13,8,1,2,0,0,-1
200491,6,-51,-9,-2,-1,-2,-5,-2
200552,4,-31,-3,-4,-2,-1,-3,-3
200600,3,-14,-15,-3,0,-1,2,-2
200664,1,20,2,2,2,2,2,3
200727,0,-11,-2,0,-1,0,3,-1
200793,0,-9,-22,-2,-1,1,4,-1
200852,-8,24,18,1,1,-1,-1,-3
200901,-8,-12,15,-2,1,2,-3,-3
200964,2,37,0,-3,-4,-7,-7,-4
201027,3,-18,2,-1,0,1,-5,0
201090,-8,16,10,6,4,2,1,-1
201150,-7,29,13,-1,-2,-1,4,-1
201210,5,-13,4,1,1,0,-5,-1
201263,7,24,-4,-6,-5,-5,-2,-1
201314,-5,-6,-9,-3,-4,-6,-8,-6
201366,-6,2,-3,-4,-3,-2,-3,0
201422,-9,11,-8,0,-1,-1,6,1
201473,-13,-29,3,0,0,1,2,-2
201535,-6,-67,-12,-1,-2,-2,-9,-3
201593,-1,16,-12,-2,-4,-1,-2,-4
201654,19,87,15,4,3,1,3,-5
201705,-10,3,-2,0,-1,-1,4,1
201769,-4,11,-7,-2,-5,-3,-3,-3
201832,10,-18,8,-3,-1,0,-2,-1
201892,-7,-16,-19,-3,-1,0,-1,-1
201952,0,-12,-1,0,-1,-2,1,1
202005,0,11,1,0,-3,-4,-7,-3
202056,0,16,2,-1,-2,-1,10,2
202112,-1,-23,1,2,-1,-2,1,1
202172,-3,12,0,1,1,2,9,0
202218,16,14,-5,-2,-6,-5,-7,-5
202275,9,-72,-3,-3,-1,-2,1,-2
202335,-21,-35,16,2,3,1,3,-2
202387,-10,16,-2,-2,0,0,1,2
202451,-1,9,-3,-2,-3,0,2,0
202513,9,4,-4,1,1,1,-25,-2
202577,-11,-18,-5,-3,-3,-1,3,0
202635,-6,28,-1,-1,-1,-2,3,1
202690,-8,0,2,0,-3,0,5,1
202751,6,17,-1,0,2,0,-1,0
202814,-3,41,5,1,3,0,2,1
202875,-13,3,-8,0,0,1,2,1
202936,1,-58,-8,-2,-2,1,14,0
202993,12,-11,-2,-2,-4,-3,-9,-6
203050,-9,26,13,1,-1,0,1,-1
203114,-9,-12,-9,1,4,2,3,2
203176,6,8,-9,-3,-1,-2,-2,-2
203238,-4,30,5,0,0,1,12,2
203288,3,3,2,0,-2,-3,-7,-5
203339,13,-11,-5,-1,2,2,-1,2
203392,4,0,-2,-3,-3,-3,-6,-1
203449,17,9,-2,0,3,2,6,1
203495,7,-13,-9,-1,-2,0,-3,0
203556,-4,-39,-1,1,1,1,0,-1
203618,-6,4,-1,-2,-4,-2,-4,-1
203670,5,11,5,0,-2,0,-1,-2
203723,-16,31,-3,0,2,0,0,1
203774,-2,-2,-10,-1,-2,-3,1,-3
203827,-13,19,5,-2,-3,-3,9,-3
203882,-14,16,-5,1,1,-1,-8,-2
203944,12,3,9,-3,-2,-4,0,-4
204006,1,30,5,0,-1,1,1,1
204051,-2,14,-8,-1,-1,-2,0,-3
204104,3,0,-10,-3,-3,-2,-2,-2
204160,-5,-36,-6,1,4,1,8,3
204208,7,-15,2,1,2,-1,-3,-2
204262,-6,4,-5,0,-1,0,2,1
204315,-7,9,-7,-3,-3,-4,-7,-5
204367,14,-2,9,0,0,0,9,-2
204422,-3,-15,18,-2,-3,0,-2,0
204475,-3,-20,1,1,-2,-4,-27,-3
204538,-10,13,-3,0,2,0,-4,2
204603,-16,-7,1,1,-3,1,5,1
204660,-15,26,-8,2,1,0,5,2
204713,-12,-23,-1,-2,-2,-3,-1,-3
204777,-8,17,-1,-1,-5,-5,5,-3
204839,7,7,-2,0,-1,1,-2,0
204900,10,22,11,-2,0,-2,-5,0
204951,39,7,3,-3,-3,-1,-2,-6
205007,7,17,9,-1,0,0,-3,-4
205057,1,-16,0,0,-1,0,-6,1
205110,-2,-95,-12,-2,1,-1,-2,-1
205164,-3,0,8,0,1,2,-2,0
205221,4,14,1,-3,-1,0,-10,-2
205283,-9,6,-5,-2,-3,-3,8,-2
205344,-14,-4,4,-1,-1,-3,1,-2
205400,-6,-17,-2,0,1,1,2,0
205466,-10,-18,-1,-1,-1,0,4,-1
205528,-4,-17,-7,-2,-1,-1,-5,-4
205584,-2,31,8,-1,-2,-3,2,-3
205635,4,4,-12,-7,-6,-7,-3,-7
205688,-19,40,-5,-1,-1,-1,-2,0
205746,-6,-30,5,0,-1,-1,-13,-2
205791,-3,17,8,-1,-1,-2,-4,1
205846,4,-5,-2,-1,0,-1,6,-1
205903,-7,7,8,0,-1,1,5,0
205967,-5,2,-3,-3,-1,-1,12,-1
206026,-8,-69,-11,1,-4,-2,-5,-2
206085,-3,6,-7,-4,-2,-1,1,0
206139,9,14,10,0,-6,-4,-6,-2
206204,4,10,23,-3,-10,-5,-6,-7
206266,1,52,-14,-2,0,-1,0,1
206331,-10,-12,-4,-1,-4,-4,0,-4
206387,-1,29,-10,0,0,1,-1,1
206436,1,22,2,0,2,2,2,-2
206490,22,32,-4,-2,-1,-1,-1,-1
206549,3,-6,1,-1,-1,-1,3,1
206603,17,21,6,-1,2,1,-2,-1
206654,-12,18,8,-1,1,0,-1,-3
206708,-10,0,-7,-3,-1,-1,0,-1
206764,7,-12,-9,1,-3,-4,-5,-1
206826,2,1,-10,-1,1,-4,4,0
206889,-3,11,5,1,-1,2,4,4
206949,-6,-2,-5,-1,0,0,-2,0
207003,6,8,11,0,-1,0,3,1
207057,3,6,-8,1,5,3,-7,-1
207107,3,-46,0,-2,-2,-1,2,-2
207159,21,-10,-8,-1,2,0,-2,-1
207209,4,-19,9,1,0,-1,-1,1
207262,-10,-48,-4,-3,-2,-2,-4,-5
207316,4,-18,-11,0,-1,-2,-1,-3
207370,1,15,-8,-1,-2,0,0,0
207431,-14,87,5,-1,0,-2,-5,-2
207488,-6,23,2,0,3,0,2,-1
207551,10,-9,0,-1,-1,0,11,-5
207601,-3,18,-5,-2,-1,-1,-5,0
207664,16,-30,5,-2,-3,-2,-24,-3
207724,0,87,0,-1,-1,1,3,-1
207787,1,-31,3,1,0,0,0,-2
207850,-4,-27,-11,0,-2,-1,3,-1
207902,0,48,-13,-4,-7,-3,7,1
207952,-5,-40,-2,1,0,-2,-3,-1
208006,-25,45,17,2,-1,0,-2,0
208056,1,-27,20,-1,-2,-1,-2,1
208111,18,-26,5,-1,-2,-5,7,-1
208171,-11,2,-11,-4,-4,-3,-7,-5
208231,-5,10,-6,1,1,1,5,1
208293,17,26,3,0,-2,-3,-1,-2
208353,12,-15,-11,-1,-3,-1,-1,1
208405,24,7,5,3,3,2,-8,4
208474,-20,-18,8,0,0,-2,-4,-1
208534,2,-3,-4,0,0,1,-2,-1
208595,-1,1,7,-1,-4,-4,-2,-3
208655,3,4,3,0,-1,-3,-17,-2
208707,4,10,-2,-2,-2,-1,1,0
208775,8,16,7,-3,-3,-1,1,1
208836,0,-16,-8,-2,-3,-1,-2,-4
208897,25,-14,3,-4,-5,-4,-8,-3
208943,-7,-21,-14,-1,-1,1,-1,-4
208995,-6,-3,-9,-3,-3,-1,6,-2
209053,-10,7,3,0,1,3,7,3
209099,11,-15,-8,0,2,3,4,1
209153,-15,5,12,1,3,2,0,1
209209,-9,-16,-7,-1,-1,0,-4,-2
209273,-12,-1,3,-5,-3,-4,4,-4
209334,-46,7,-3,0,-3,-1,5,0
209386,8,-8,-3,-4,0,-2,-7,-3
209452,-4,5,-2,2,1,0,6,0
209514,-14,1,-9,-2,2,-1,3,3
209576,3,-2,0,-2,-5,-3,-6,-3
209639,1,9,-5,-2,-2,-2,-2,-5
209685,-23,21,9,2,1,0,1,-7
209737,-2,-15,8,2,1,0,1,-4
209795,-10,33,6,-1,-6,-4,3,-3
209843,-6,17,6,3,-1,-1,8,-3
209897,-5,-2,3,-1,-4,-3,1,-1
209951,5,13,-8,0,-1,-1,2,10
210015,-7,-33,-16,-1,2,1,10,-2
210076,10,16,-4,-2,-3,-1,-7,0
210136,0,0,0,-6,-3,-1,-1,1
210190,-26,8,6,-1,1,0,-2,-7
210253,17,17,-6,-1,-3,-1,-2,0
210317,-7,-44,9,3,1,0,-1,0
210376,-18,7,0,-3,-2,-2,11,-4
210433,-11,-26,3,-1,-1,-2,-1,-3
210489,6,-18,-10,-2,3,0,-3,-3
210554,-8,26,2,-2,-4,-2,1,-2
210615,0,18,-8,0,0,-2,-6,-1
210678,-14,11,9,1,-2,0,12,-1
210736,1,-35,-13,-1,-1,-1,1,-1
210795,36,5,9,-2,0,0,-3,-2
210840,4,80,-1,1,1,2,2,3
210894,6,-33,-2,0,-2,0,4,-2
210949,0,-40,-16,-1,0,2,6,3
210998,-5,-6,18,1,3,0,5,-1
211057,3,17,8,-4,-6,-2,2,-2
211118,31,3,-20,-3,-1,-1,-1,-2
211179,-3,-10,-3,1,-3,0,4,3
211231,5,10,3,0,-4,-3,0,-3
211293,34,-24,-9,-3,0,-1,-1,-2
211357,-2,42,-26,-8,-11,-5,-3,3
211418,8,2,9,-1,0,0,-2,-2
211478,23,-7,-9,-4,-6,-5,0,-2
211530,-10,32,-25,-2,-2,-1,8,0
211585,-9,20,2,-1,1,0,1,0
211636,-13,-11,-4,0,2,3,1,1
211688,21,-8,-10,-5,-2,-4,4,-1
211744,8,-103,-9,-3,-2,-1,-1,-1
211806,-7,20,6,2,1,2,2,3
211861,-4,32,10,0,-1,1,4,0
211911,1,-11,-9,-4,-3,-3,-8,-5
211966,4,-8,2,-4,0,-3,-3,-5
212019,-15,-12,-4,-1,-2,0,-3,0
212071,3,-11,-10,0,-2,2,-4,-3
212124,-17,41,-6,-2,-3,0,-3,0
212176,0,-1,-11,-1,2,1,-1,0
212233,-1,1,3,-1,-2,-1,-1,-2
212281,8,17,9,1,2,1,-5,-1
212338,-12,-8,-3,0,-1,0,-6,-2
212400,17,24,5,-4,-4,-2,-4,0
212461,0,-5,6,1,5,2,1,1
212521,-14,1,-6,2,2,2,3,4
212576,-8,-1,-4,3,3,2,1,1
212626,0,0,-23,-7,-5,-7,-7,0
212683,-11,30,7,-1,0,1,1,1
212730,-7,-9,-4,1,-2,-1,2,0
212784,-6,-10,-7,-2,1,1,-1,-2
212842,-18,-63,4,0,-1,-2,-1,0
212903,10,-93,19,2,-4,-3,0,-2
212964,-9,-2,-3,-4,-2,-4,-1,-1
213024,10,-14,3,-1,-1,-1,0,1
213080,5,34,2,-1,-1,-1,2,0
213128,-12,-1,4,-2,-3,-3,-3,-1
213181,-7,-14,-17,-5,-4,-4,-23,-3
213235,10,26,14,1,5,4,-2,-2
213293,1,-3,4,2,-2,-2,6,2
213340,15,15,29,-1,-2,-4,-8,-8
213393,1,4,-6,0,1,-2,5,1
213441,-3,-19,-3,0,-1,-1,-4,-1
213504,8,22,-10,-5,-10,-6,-12,-3
213564,-11,9,2,-2,-1,-2,-3,1
213617,4,4,13,3,-3,0,1,2
213668,6,38,20,0,-3,-2,-5,-2
213727,2,8,-13,1,1,1,3,2
213785,3,7,-9,-5,-4,-2,-3,-2
213839,-8,-21,-10,-1,3,3,-21,2
213888,5,19,1,0,3,1,6,0
213946,-9,43,-9,0,3,1,4,3
214008,6,-9,-3,1,2,0,-2,-1
214058,-3,32,8,0,0,-1,-2,0
214112,-14,15,15,6,8,4,-12,-2
214165,-11,-30,-7,-2,0,-1,-3,-3
214216,3,-7,-5,-1,6,3,-3,-2
214276,-10,55,17,1,-1,-2,-2,-4
214324,-7,18,-10,-1,-3,-3,-3,-2
214389,-19,-18,-3,0,2,0,2,-1
214449,-16,39,7,0,2,2,7,3
214510,11,6,-3,-1,1,1,3,-1
214561,20,2,-1,-2,-6,-3,-1,-2
214625,-1,-3,-8,-1,-1,-2,-6,-2
214686,11,14,-12,-4,-5,-2,-4,-1
214749,-7,-9,-6,-1,-5,-4,-17,-1
214809,0,11,6,-1,-3,-2,-5,-2
214860,0,7,5,2,1,1,-5,1
214925,-15,73,12,2,4,2,2,2
214986,11,29,26,1,4,1,0,-3
215047,7,0,-8,-1,-3,-4,3,-1
215110,-4,-2,-11,-3,-2,-1,-27,-2
215169,10,15,18,-2,-3,-2,-2,-1
215227,-5,14,-11,-3,-2,-3,-1,0
215290,0,-5,5,0,0,0,-4,1
215352,2,13,2,1,2,1,6,2
215414,-7,-34,-4,0,6,3,6,3
215472,-1,37,-9,-2,0,-1,-1,0
215521,21,2,-2,-4,-2,0,-1,-2
215575,3,9,14,0,0,1,-2,-1
215626,-12,21,-7,-2,-1,1,1,-1
215679,7,0,7,2,5,2,3,3
215733,11,2,-1,-1,-3,-1,-2,-2
215789,20,-4,-6,-5,-4,-2,-3,-3
215853,-6,-20,3,-2,-1,-1,-3,0
215915,26,-37,-3,-5,-4,-2,-6,-3
215966,-7,-36,-7,0,0,1,-2,-1
216028,-21,44,18,1,-1,2,4,3
216090,8,25,-10,0,0,2,5,-1
216154,-2,38,-11,-3,-4,-5,-11,-2
216214,2,-1,5,-2,0,-1,2,-1
216262,-9,3,-7,-3,-3,-3,-2,-2
216324,-10,12,-7,-3,-4,-2,-4,2
216376,14,35,10,0,1,0,-4,-1
216429,-9,14,1,0,2,0,3,2
216484,9,21,7,0,-2,-2,-4,-4
216536,-15,-60,1,1,6,6,4,2
216593,1,-41,12,-1,-2,-2,-6,0
216654,-7,-11,-9,-4,-4,-3,0,-4
216715,-4,-19,-15,-1,-1,-1,-2,1
216765,0,32,-4,-4,-4,-1,6,0
216830,14,-10,-11,-2,-4,-2,4,-1
216892,-9,5,6,0,0,0,-7,-6
216954,-4,-5,-13,-1,2,3,-3,0
217016,1,0,2,1,5,3,-6,-1
217066,-4,45,-18,-1,0,2,-26,5
217131,6,-72,-1,1,0,1,-5,-2
217193,-8,32,11,1,-1,-4,-5,-3
217255,3,-26,-3,0,2,2,-1,1
217316,-7,17,-5,0,0,0,-7,-1
217367,-32,-10,0,-1,1,2,7,0
217420,1,26,6,-1,0,-1,-9,-3
217475,7,4,-1,-2,2,0,0,0
217532,0,10,23,-2,-3,-2,-4,-3
217588,0,26,-1,-2,-2,-1,0,1
217638,20,-75,-1,-1,-4,-4,0,-2
217698,4,-1,-14,-2,-5,-2,-23,0
217759,-6,34,-5,-2,1,1,6,4
217809,18,35,-12,-2,1,0,-7,0
217871,2,5,-5,-2,1,-1,0,1
217935,-25,-25,5,-2,-2,0,-4,-6
217997,13,21,0,-2,-2,-1,2,-1
218058,0,-6,-11,-2,-3,0,-21,0
218110,-9,-9,-5,-1,2,1,1,2
218177,15,-61,-7,-2,-1,0,0,-3
218237,6,1,-9,-3,-5,-5,-4,-2
218298,-3,12,12,2,1,2,0,1
218359,1,27,-1,-4,-4,-4,-3,-7
218411,-2,-7,-11,-4,2,1,-2,1
218468,0,46,2,1,2,2,0,2
218520,6,6,-17,-3,-5,-3,1,-1
218574,1,-79,-5,0,0,-1,3,0
218632,3,28,-5,-4,-5,-5,0,-2
218695,0,75,32,1,-2,-2,-3,-3
218752,-9,28,-8,-1,-1,1,4,1
218800,-9,-3,-14,1,1,1,1,4
218853,-12,-12,-2,1,1,0,-3,2
218917,-3,14,-9,2,2,1,-1,4
218980,13,33,12,-4,-3,-4,-9,-5
219042,-1,-44,-10,0,1,-1,-2,1
219094,-7,-10,-9,-1,-3,-2,-24,2
219154,3,25,0,-1,0,2,-4,0
219215,24,4,0,-3,-4,-3,-2,-2
219277,14,-23,-11,-1,-1,-1,11,1
219340,-9,18,17,1,0,-1,-3,-1
219403,1,38,7,-6,-6,-7,-11,-9
219451,-5,8,-6,-2,0,2,1,0
219504,-16,-76,3,-1,-6,-5,-2,-3
219557,0,-2,10,-1,0,1,3,-4
219610,-23,42,13,0,-3,-1,7,3
219664,-22,-13,-11,2,6,5,4,1
219719,4,16,-7,-1,0,-1,8,0
219781,-7,14,-11,-2,0,1,2,0
219839,4,36,8,1,3,2,6,0
219886,-16,37,15,3,8,5,5,3
219938,2,4,-2,-1,-3,-2,-4,0
219992,15,-10,-11,-6,-9,-5,-1,0
220044,31,-1,-5,-2,-2,-3,0,-1
220097,2,-44,-14,-2,-4,0,6,0
220151,-1,12,7,-2,0,-2,-7,-1
220202,7,-1,1,-1,-2,-1,1,-1
220253,-5,-12,-12,-1,1,1,5,0
220304,-1,-27,-10,-2,-1,-1,9,0
220360,-15,-2,13,4,6,7,2,1
220418,-22,17,-9,-1,2,-1,2,-1
220464,4,-3,-4,-1,0,0,3,0
220525,-2,21,0,-5,-11,-6,-4,-1
220585,10,-10,5,-3,-5,-3,1,-1
220639,7,62,10,2,5,1,1,1
220689,11,21,6,1,2,1,-31,-3
220742,-3,-32,15,-3,-6,-5,-1,-3
220796,7,32,-4,0,-2,0,-3,0
220852,11,-11,-9,-4,-2,-2,3,-1
220899,-8,-60,7,2,4,1,-2,2
220952,-4,36,0,-1,2,0,4,1
221004,6,34,-2,-2,-4,-3,-3,1
221064,4,-40,-9,-5,-7,-2,1,-1
221124,8,10,-1,-1,0,-1,-19,1
221175,-12,-38,-3,-2,-6,-3,0,2
221235,55,-6,-3,0,1,-2,-6,-2
221283,-11,-29,-2,-1,1,0,-9,-3
221335,2,-16,-13,-1,0,-1,-3,-1
221394,-24,-8,-7,-1,2,0,0,-1
221442,-8,-10,1,0,0,1,-25,-1
221504,-5,-19,0,-2,-1,-1,-7,1
221567,1,66,14,-5,-8,-4,-6,1
221628,1,-8,4,1,1,2,4,0
221679,6,-10,-13,-4,-1,-3,-2,1
221734,8,19,-19,-4,-5,-2,-2,-1
221787,-2,27,-7,-5,-4,-2,-1,-3
221838,4,-19,-6,0,0,0,-1,1
221892,-6,29,0,4,7,3,3,1
221950,-14,16,4,5,4,1,-10,5
222016,-12,-23,-7,-1,-1,-3,-5,-3
222071,-15,61,-13,-5,-4,-3,0,-1
222123,-9,8,11,-2,-1,2,3,-2
222187,0,3,1,-1,2,-1,-2,1
222249,0,4,-9,-2,-2,0,-4,0
222310,-3,1,1,1,2,0,8,0
222370,-1,34,8,-2,-3,0,-16,1
222423,19,-17,-16,-4,-7,-3,-1,-2
222486,4,-21,-14,-4,-6,-6,-8,-3
222549,-6,9,10,0,2,1,0,-5
222610,2,12,-4,1,1,0,-16,2
222661,0,-1,-10,-2,2,1,-25,-4
222724,-13,16,-18,-2,-1,1,7,3
222787,-8,-52,7,-1,0,-4,-4,-6
222850,2,-2,-3,2,1,1,0,1
222911,-5,-11,-10,-2,1,-1,-4,3
222970,10,-8,-6,-1,0,-1,7,1
223025,-7,1,-10,-4,-4,-3,14,-2
223089,-2,20,-6,-1,5,0,2,-1
223151,1,58,9,4,1,0,-2,1
223212,-13,22,4,3,3,1,-1,0
223265,21,6,-9,-1,-3,-2,-16,1
223315,-4,-5,-12,1,-2,-1,2,-3
223368,-7,-14,7,-4,-7,-4,-3,-2
223421,-3,43,-4,0,-1,-1,-4,-2
223473,3,30,11,-3,-3,-3,-6,-3
223530,-20,6,9,2,2,-1,1,0
223592,-4,4,5,-2,-6,-2,-4,1
223653,-6,24,4,2,3,2,-3,0
223717,0,-30,-5,-4,-4,-4,3,-4
223773,-4,2,-7,-1,-2,-2,-2,0
223828,-9,13,-1,-1,1,0,3,0
223890,-4,-35,8,3,4,3,-18,-1
223953,8,16,-1,-3,-3,-3,-2,-5
224013,-2,12,-14,-7,-5,-5,-6,-1
224066,-27,43,18,0,-4,-3,-8,-3
224118,-4,-12,1,1,-1,-2,14,-3
224172,-15,1,3,-1,1,1,0,0
224226,-13,10,-3,-1,-4,-5,-1,-3
224276,-4,21,17,1,-2,-2,-5,-3
224335,1,23,-21,-3,-1,0,-3,-1
224395,-7,9,0,-1,0,0,-3,1
224456,16,4,-2,-3,-6,-4,-7,-1
224509,-10,-34,4,1,1,3,4,0
224574,24,1,-5,-2,-1,-1,1,-4
224636,-13,26,17,1,-4,-2,-4,-5
224695,-10,-3,-2,-3,-6,-3,-2,0
224746,16,-3,-3,-2,2,0,-3,-4
224811,7,0,-9,-1,0,0,6,1
224873,25,-6,-12,-7,-10,-8,-4,-6
224935,1,-11,-10,-3,-2,-2,-1,-1
224997,-5,14,-1,0,2,1,6,3
225051,12,5,4,0,-1,0,-4,0
225102,5,-1,3,-3,-3,-5,0,-2
225154,2,15,-8,1,4,2,0,2
225204,-14,33,-8,-3,-3,-2,3,2
225258,-2,-3,-4,-4,0,0,1,2
225315,1,-12,16,-3,-5,-3,-5,-3
225377,-19,41,-12,-1,1,1,0,1
225438,-11,15,5,-1,-1,-2,-1,0
225491,-18,25,-8,0,4,3,0,1
225555,-10,4,-4,-2,-2,-1,0,1
225617,-5,13,-11,-4,-4,-2,-3,0
225679,-23,2,5,2,3,1,4,0
225741,6,-35,-12,-6,-9,-5,5,-5
225792,-14,15,-9,1,-1,-1,0,0
225843,-16,-15,-11,-1,0,0,-1,-3
225899,8,47,2,-5,-9,-5,-5,-2
225947,-7,-56,21,-1,-4,-2,2,-4
226001,3,0,13,1,2,2,2,0
226057,0,-103,-12,0,1,0,-1,-1
226121,-10,-24,-6,2,4,4,4,0
226181,2,6,3,0,2,1,4,1
226234,-23,-25,-11,0,-2,0,-5,-2
226285,5,8,-8,-2,-2,0,1,0
226338,24,11,11,-7,-8,-4,-26,-7
226391,-9,-32,-14,-5,-3,-2,0,-4
226449,-10,-71,-5,4,4,1,4,3
226495,1,10,2,-1,-2,-2,-3,-1
226551,-24,-16,3,3,8,6,9,3
226602,-3,-11,-7,1,5,2,5,1
226660,-1,-38,-9,-7,-8,-10,-10,-11
226721,-21,-40,-4,1,3,3,-2,2
226782,0,-54,-7,1,-1,1,3,0
226833,5,-26,-11,-3,-3,0,16,0
226886,-18,40,30,-1,-9,-5,-3,-1
226938,10,34,-3,-4,-2,-2,2,-1
226989,-10,17,-2,-1,-1,-2,-4,-4
227042,-8,4,0,-1,-4,-4,-6,-6
227100,19,19,-3,-2,-2,-6,-3,-6
227163,29,42,1,-2,-3,-2,-4,1
227223,-17,11,14,3,0,2,0,2
227275,-12,-21,16,1,0,0,8,1
227338,14,-5,-13,-3,-1,-2,-6,-1
227402,5,4,0,-1,-2,0,-5,-1
227464,11,1,-17,-1,2,0,-1,-1
227524,6,-26,11,-1,-6,-7,9,-5
227582,-6,39,-15,0,4,2,-5,-3
227628,-14,16,-9,-2,1,0,-3,1
227681,-16,-6,-10,0,4,-1,-5,1
227733,11,48,-4,-2,0,1,1,0
227785,19,-1,-12,-4,-3,-1,3,0
227846,-16,-9,10,0,-1,-1,2,0
227905,37,21,-10,0,-1,0,-5,2
227958,-6,1,2,1,1,-1,3,-1
228014,-9,18,3,1,1,1,1,0
228063,0,-4,7,-3,-7,-5,-10,-3
228117,43,-21,-3,-1,-2,-2,-2,-3
228183,-3,19,4,-4,-6,-3,-2,-2
228244,-2,2,8,3,2,1,0,2
228306,-6,11,6,-2,-3,-3,1,-2
228358,9,-2,-3,-3,-2,-1,0,-2
228408,-1,-27,8,3,3,0,12,-2
228460,-11,6,6,2,5,3,9,2
228512,-1,-12,8,0,-2,-3,-6,-5
228567,-3,51,4,2,5,4,-3,1
228628,-3,-3,-2,-3,-3,-4,0,-3
228689,-15,58,19,-1,0,0,2,-3
228750,-7,-4,-10,-2,1,1,0,0
228797,8,39,-7,-3,-3,-1,-5,-2
228857,-1,5,3,-5,-4,-5,-7,-6
228910,11,27,11,-2,2,1,0,-1
228968,0,15,-6,-4,-6,-3,-3,-1
229015,-3,2,7,1,2,1,-3,-1
229067,6,44,2,1,5,4,1,2
229132,-10,-43,4,2,-1,-1,-1,-2
229189,-10,7,7,3,4,2,0,0
229244,21,9,5,1,-2,-1,-5,-3
229293,-8,31,9,1,6,3,-3,-1
229345,8,-17,-23,-11,-19,-13,-11,-6
229401,-5,-10,-2,0,2,0,-2,0
229451,-2,-6,2,1,1,1,1,2
229505,-22,19,17,2,2,-3,-9,-1
229568,-11,-60,-6,1,3,2,-5,-2
229631,-8,19,-9,-4,-3,-3,2,-4
229692,-5,18,12,1,-3,-2,-2,4
229744,12,43,-9,-1,0,-1,5,3
229806,-13,31,-3,-1,-1,0,-25,-2
229870,4,-17,1,-2,-6,-4,3,0
229932,-4,-13,1,-1,2,-2,-5,-4
229992,-4,20,2,-2,-2,-2,6,-1
230051,8,37,-5,0,3,-2,3,-4
230107,-2,-11,2,1,0,0,6,0
230174,-10,-24,-8,0,-1,0,3,1
230234,-10,-114,-5,-3,-1,-1,-3,-3
230295,7,-25,5,1,1,1,5,1
230343,-3,14,-2,0,0,0,11,1
230408,-13,-1,15,-2,-4,-1,-4,-3
230473,-5,-20,-3,0,0,0,1,1
230536,-12,-30,-2,0,3,4,0,-1
230599,-1,19,-7,-3,-2,-4,-9,-6
230656,-2,-68,-12,-2,-2,-4,-12,-2
230713,-2,-16,-3,1,0,-2,-7,-2
230766,9,-20,3,1,-1,0,-7,-3
230816,-2,7,-7,-2,1,-1,-3,0
230868,-4,12,3,2,4,2,7,1
230924,-13,-21,-21,-3,-2,1,0,2
230974,2,-11,-7,0,-1,0,0,1
231035,11,-17,-18,-2,4,1,-1,3
231095,36,-1,5,-1,-6,-4,-8,-3
231150,-24,55,7,2,2,0,0,-2
231212,13,-35,1,-2,3,1,0,0
231276,-5,6,-8,-3,-4,-1,11,4
231335,2,-38,-5,-3,-6,0,-4,-2
231399,0,-12,-2,2,-2,-1,2,0
231445,-7,14,6,0,1,-1,1,-2
231509,2,13,4,-5,-3,-3,-1,-5
231572,13,40,4,2,1,-1,1,2
231635,-10,-25,-6,0,-2,-2,-8,-2
231695,0,-6,-8,-3,2,0,-1,-1
231746,9,-11,-7,0,-1,-1,0,-1
231798,-2,-42,-6,-2,1,-1,-2,-2
231851,-1,14,2,1,-1,0,-2,1
231904,0,22,-3,-5,-5,-2,8,1
231956,2,29,19,2,1,0,-2,-1
232013,9,-1,-10,-3,-3,-1,-3,1
232079,14,-30,-1,0,-1,-3,2,-3
232139,9,-47,-9,1,2,0,14,-1
232199,-3,-47,2,0,1,-1,2,2
232251,25,30,2,-2,-1,-3,-3,-2
232320,11,-15,-8,-2,-7,-4,-1,-3
232381,2,-8,25,1,0,0,3,-1
232439,-11,-45,-8,-2,-1,-1,-4,-3
232490,3,-5,-6,-2,2,1,-1,0
232548,2,-15,-7,-2,-2,-5,3,-3
232601,-32,36,-11,-2,-5,-3,-4,-5
232658,0,-50,-12,-5,-4,-1,-2,-6
232712,2,-5,-2,-1,-2,-3,2,2
232774,11,-1,1,0,-4,-1,-22,0
232833,5,-4,-12,0,0,2,-8,1
232885,0,-24,28,-3,-4,-4,-4,-6
232947,-4,-10,-5,-1,-3,-2,1,1
232997,-3,0,-2,0,0,2,-1,-1
233059,-9,-7,3,-1,-4,-3,-2,-2
233120,-19,2,8,1,1,1,2,1
233171,-17,-98,-1,1,2,2,12,-1
233234,-11,-11,-4,-2,-5,-4,0,-3
233303,-6,-6,2,0,1,-1,-1,-5
233364,18,-8,5,-3,1,-1,6,-1
233427,-29,-46,-4,-2,0,0,-1,0
233473,-1,-27,2,0,2,2,2,1
233522,-12,30,-8,-1,0,0,-3,-1
233576,-3,8,3,-1,1,2,15,0
233630,-5,30,2,1,0,-2,5,0
233683,-7,5,8,1,0,0,-3,-2
233741,-5,7,1,-3,1,0,2,-2
233802,2,-80,-5,3,3,2,-1,0
233862,7,-81,-16,-4,-5,-4,-8,-5
233914,-4,3,5,0,3,1,1,0
233984,-16,31,0,2,1,1,6,1
234046,-4,50,-10,-2,-1,-1,-3,1
234108,10,4,-2,-1,2,2,2,1
234152,6,5,-9,-4,-6,-2,0,-1
234215,-12,20,8,-4,-6,-3,2,-4
234268,14,30,1,0,0,-3,-2,0
234326,7,32,-6,-2,-1,-1,-4,-1
234371,-6,12,21,3,3,0,7,3
234425,-1,-17,2,-1,-1,-4,-4,-5
234484,15,21,-6,-3,-4,-2,0,-3
234544,-4,36,-14,-5,-3,-6,-7,-5
234605,13,16,-10,-4,-5,-4,1,1
234658,-12,-1,5,-1,-5,-5,9,-1
234720,-12,-7,-2,-2,-3,-1,-1,-1
234784,7,-17,14,0,-2,-2,2,-2
234844,-4,14,-6,1,-1,-2,-1,-1
234905,3,-24,1,-1,-6,-1,4,1
234957,-1,-32,-8,-5,-13,-7,-3,0
235020,-11,-9,2,0,-2,-1,0,3
235086,4,0,3,-1,1,0,-5,-1
235150,-14,-4,11,-3,0,0,-5,-4
235210,-14,-40,17,2,1,0,-4,-1
235256,11,28,-6,-1,0,0,-6,2
235320,4,9,-5,-3,-4,-2,14,-1
235383,-1,4,4,-4,-7,-5,-11,-3
235446,-9,4,13,-3,-10,-8,-10,-3
235505,29,-35,-28,-1,1,-3,-10,-5
235557,23,-19,-9,-2,-4,-3,-2,-5
235608,-6,12,2,-1,-1,-1,1,-2
235661,15,0,3,-2,-1,2,0,0
235712,-4,-19,-8,-1,2,2,-4,0
235766,-1,20,4,0,-1,0,-19,-1
235823,-4,-7,-15,-2,-5,-2,-5,0
235886,-8,-14,15,1,2,-2,8,2
235948,-18,16,-5,0,-1,0,3,1
236006,-26,-3,0,2,2,1,-21,2
236062,-1,-52,1,0,0,-1,-1,-1
236120,-8,1,4,2,1,3,15,3
236173,11,22,15,0,3,1,1,1
236224,-9,35,13,0,3,1,-1,-1
236276,-1,-4,5,3,3,1,-2,-1
236328,7,24,-16,-5,-8,-1,5,-1
236389,-5,-41,18,0,-1,-2,-9,-3
236449,28,-3,9,0,0,-1,0,-2
236503,-4,16,-10,-5,-4,-4,-31,-2
236553,-7,10,4,-2,-2,-3,0,-5
236607,-7,9,-9,0,1,-1,-3,1
236662,-2,10,-9,-1,-2,-1,-5,-1
236728,1,-24,-7,-2,-2,0,-1,0
236789,9,23,-24,-5,-3,-4,2,2
236840,6,23,-10,-3,-8,-6,-7,-4
236892,11,-39,-6,-3,-3,0,11,1
236943,1,6,2,-1,2,2,0,-2
236996,35,-60,2,-1,0,-2,-4,-1
237049,-5,33,19,-2,-1,-3,-5,-5
237112,-1,-37,6,2,1,0,2,-1
237174,-1,31,6,0,-3,-1,-2,1
237235,-10,-46,-5,-1,-2,1,-1,-3
237281,-17,28,3,1,0,-2,-5,-1
237334,-11,50,9,2,-1,0,6,2
237393,22,-22,-7,-2,-6,-4,4,-2
237441,2,7,10,0,0,-2,-3,-4
237492,-19,-37,17,5,9,4,-21,0
237552,4,-4,-14,-4,-4,-4,-2,2
237613,-13,-13,7,1,2,2,2,1
237673,-6,9,-2,1,2,-1,-2,-1
237731,-2,26,1,-1,0,-1,-6,-2
237777,6,3,2,-3,-6,-4,-9,-2
237829,0,-23,-11,-2,-1,0,-5,-4
237882,1,-11,1,0,1,-2,-28,-4
237934,6,28,11,-4,-4,-5,1,-2
237986,-7,27,-5,-1,-1,0,2,1
238043,3,19,-3,-2,-4,1,-1,1
238100,-25,8,1,2,-1,1,11,1
238153,-9,-6,-4,-3,-9,-8,-3,-6
238214,3,23,-1,-8,-14,-11,-11,-9
238275,-21,5,9,3,8,3,0,5
238323,41,-39,12,-5,-4,-3,-5,-7
238380,-10,-1,-1,-2,0,1,2,0
238429,-13,-65,-26,-2,3,2,9,-1
238481,10,-17,-10,-2,0,1,-2,-2
