timestamp,sample_number,emg1,emg2,emg3,emg4,emg5,emg6,emg7,emg8
0.181836,0,-1,-2,-1,0,-1,0,-1,-1
0.181992,1,-1,0,-1,-1,-2,0,-2,-1
0.181998,2,-1,-1,-1,-2,-1,-1,-1,0
0.182000,3,0,-2,1,-1,-1,-1,-1,0
0.182636,4,-1,0,1,-1,-1,0,1,-1
0.182651,5,-2,-1,0,0,0,-2,0,-1
0.185613,6,-2,-1,0,-1,1,-2,-1,0
0.185650,7,-2,-1,-2,-1,0,0,-1,0
0.193356,8,-1,0,0,-1,-2,-2,-1,-2
0.193380,9,0,-2,-1,-2,-1,0,-1,-3
0.201548,10,-1,-1,-1,-1,-2,-1,0,-3
0.202131,11,0,-1,-1,1,-1,-1,0,-1
0.208628,12,-2,0,-2,0,0,-3,-1,-1
0.208647,13,0,0,-2,-1,-1,0,1,0
0.222683,14,-1,0,0,1,-3,0,-1,-2
0.222708,15,-1,-2,-2,-1,-1,-1,-1,1
0.234350,16,1,-3,-1,0,0,0,-3,0
0.234411,17,-1,-2,0,-2,0,-1,-2,1
0.246435,18,0,-2,0,-1,-1,-1,-1,0
0.246457,19,-1,0,0,-2,-3,-1,-2,-3
0.254809,20,-1,1,-1,-1,0,-2,-1,-1
0.254822,21,-1,-2,-1,-1,-2,-1,-2,-1
0.267517,22,0,-1,-1,-2,-1,0,-1,-1
0.267538,23,0,1,0,0,-1,-2,-1,-1
0.309278,24,-1,-1,-1,-2,-1,-1,1,-2
0.309295,25,1,1,0,-3,0,0,0,-2
0.309994,26,-1,-1,-1,-3,-1,-2,0,-1
0.310008,27,-2,-1,-1,-1,-1,0,-1,0
0.313767,28,0,-1,0,-1,0,-1,-1,0
0.313783,29,-1,-2,-2,0,-1,-2,0,-2
0.314515,30,-2,-2,-1,0,0,1,-2,-1
0.314578,31,-1,-1,-1,0,0,-2,-1,-2
0.322661,32,0,-1,-1,-1,-2,-1,-2,0
0.322684,33,-3,-2,-1,0,-1,0,-1,1
0.328006,34,1,0,0,-1,0,-1,-1,-2
0.328035,35,-4,0,0,-1,-3,-1,0,-2
0.337423,36,-1,-2,-2,-1,-1,0,0,0
0.337435,37,-1,0,-1,-2,-2,0,-1,-1
0.350704,38,-1,-1,-2,-2,-2,1,-1,-1
0.350725,39,1,0,-1,-1,1,-1,-2,-2
0.357550,40,-1,0,0,-1,-3,-1,-2,-1
0.357575,41,-1,-2,-1,-2,-2,-1,-1,0
0.372661,42,0,-2,0,0,-1,-1,0,-2
0.372755,43,1,-2,-2,-1,-1,-2,-2,-1
0.381637,44,-1,0,0,0,-2,-1,-3,-1
0.381648,45,-2,-1,-1,-2,0,0,-2,-2
0.396316,46,-2,0,-2,0,-3,-2,-3,0
0.396339,47,-2,-1,-1,-1,-1,-1,-1,0
0.397852,48,0,1,-1,0,0,-2,-1,-2
0.397867,49,-1,-1,0,0,0,1,-1,-1
0.426719,50,-1,-1,-2,-1,-2,-1,2,-1
0.426754,51,-2,-2,-2,-2,-3,-1,0,-2
0.428600,52,-1,-2,-1,0,2,-1,-1,-1
0.428613,53,0,-2,-1,1,-2,-2,-1,0
0.432528,54,-1,-1,-2,0,-1,-1,-2,0
0.432579,55,0,-1,-2,-1,-1,-3,0,1
0.441764,56,-1,-2,-1,0,-2,-1,0,-2
0.441777,57,0,-2,-2,0,0,-1,-2,-1
0.456226,58,-1,-1,0,-1,-1,-3,-1,0
0.456244,59,-2,-2,-2,-1,-1,1,-2,1
0.462718,60,1,-2,-2,-2,-1,1,0,-1
0.462787,61,0,-1,-2,-1,-2,-2,-1,-2
0.480395,62,-1,-2,0,-2,-3,0,-1,-2
0.480406,63,-2,-1,-1,0,0,0,-1,0
0.480408,64,-4,0,0,-1,0,-1,-1,0
0.480447,65,-3,1,-1,-1,-1,-2,1,0
0.492431,66,-1,-2,-1,-1,-1,0,-1,-3
0.492448,67,0,0,0,-2,-1,-1,-2,-2
0.501820,68,0,-1,-2,-1,0,0,0,-1
0.501835,69,1,-2,-1,-1,0,-1,0,0
0.516505,70,-1,-1,-1,-1,1,0,-2,-1
0.516525,71,1,-1,0,0,-1,-2,0,-2
0.517969,72,1,-1,-2,-2,-1,0,-1,-2
0.517988,73,-1,0,0,-2,-2,-1,-2,0
0.538795,74,0,-1,-1,-1,-2,-1,-2,-1
0.538812,75,-2,-1,-3,-1,0,-2,-2,-2
0.540463,76,0,-1,-1,-2,0,-1,0,0
0.540538,77,-1,-2,-2,-1,-1,-1,0,-1
0.552670,78,-2,0,1,-2,0,1,-1,-2
0.552694,79,-1,-1,-1,-1,-1,-1,0,-1
0.562365,80,-1,0,-2,-2,-2,-1,-2,0
0.562377,81,-1,-1,0,0,-1,-2,-2,-2
0.575750,82,0,-1,-1,-2,-1,-2,-2,-2
0.575766,83,-1,-1,-1,0,-1,-1,-2,-1
0.582506,84,-2,0,-1,0,-3,-3,-1,-2
0.582538,85,0,-1,-2,-1,-1,-2,-1,-1
0.598943,86,1,-1,-1,-1,0,-1,0,1
0.598962,87,-1,0,-1,-1,-2,0,0,0
0.600706,88,0,-2,-1,-2,1,-1,-2,-2
0.600728,89,-2,-1,-2,-2,0,-1,-1,-1
0.620991,90,-1,0,-1,-1,-1,0,0,0
0.621007,91,1,-4,-1,-1,-1,-1,-2,-1
0.627508,92,0,-1,0,1,-3,0,-2,-1
0.627526,93,-2,-1,0,-3,-2,-1,0,-1
0.635902,94,-1,-1,-3,-1,-2,0,-2,0
0.635925,95,0,0,1,-2,0,0,0,0
0.642667,96,-2,-1,-1,0,0,-3,0,-1
0.642692,97,-1,-1,0,-1,-1,-1,-1,-1
0.658930,98,1,0,-1,-1,-1,-1,-1,-1
0.658965,99,-1,-1,0,-2,0,0,-2,-3
0.660328,100,0,-2,-2,-2,0,0,-1,-1
0.660617,101,0,0,-3,1,-1,-1,-2,-1
0.688919,102,-1,-1,0,-2,-1,-3,0,-1
0.688937,103,0,0,-2,-1,-2,0,-1,-2
0.690323,104,-2,-1,-1,-1,0,-1,-2,1
0.690371,105,0,1,-2,-1,-1,1,-1,-1
0.695694,106,-1,-1,-2,0,-1,-1,0,0
0.695718,107,0,0,-2,-1,0,0,0,-1
0.702776,108,-1,0,-1,-1,-3,-2,1,0
0.702800,109,-1,0,0,0,0,0,-2,0
0.719212,110,0,-1,-2,-1,0,0,-1,-1
0.719252,111,-1,-1,1,-1,-2,-1,0,0
0.720574,112,-2,-1,-1,0,-1,-1,-2,0
0.720655,113,1,-1,-2,-2,-1,-1,-1,0
0.741875,114,-2,0,0,0,0,-1,1,0
0.741894,115,0,-3,-2,-2,0,-2,-1,-2
0.742928,116,0,-1,-1,-2,0,-1,-1,0
0.742947,117,0,-1,-1,1,-2,-1,0,-2
0.755582,118,-2,-2,0,0,0,-2,-2,-1
0.755598,119,0,0,-2,-1,-2,-1,0,0
0.762756,120,1,-2,0,-1,-2,-2,-1,-1
0.762780,121,-1,-2,0,-3,0,-1,-1,-1
0.778924,122,-1,-1,-2,-1,-1,-1,-2,-2
0.778947,123,-1,0,0,0,0,-2,-1,0
0.780491,124,-2,-1,-2,0,-1,-1,-1,-1
0.780504,125,-2,-1,-2,0,0,0,-1,-1
0.801395,126,0,-1,-2,0,-1,0,-1,-1
0.801421,127,-1,0,-2,0,-2,-1,-2,-1
0.803065,128,-1,-1,-1,-1,-1,-1,1,-1
0.803113,129,-2,0,-1,-1,0,-1,-2,-3
0.815626,130,0,-2,-1,0,-2,-1,-1,0
0.815644,131,-1,-1,-1,0,-1,0,-1,0
0.822423,132,1,0,-1,-2,-2,-1,0,-2
0.822441,133,0,1,0,-3,-1,-1,-1,-1
0.838947,134,-1,-1,-1,0,0,-1,-1,-1
0.838965,135,-2,-1,-2,1,0,0,0,0
0.840361,136,-3,-1,-1,-1,0,-1,0,0
0.840381,137,-1,-2,-1,-2,-1,-2,0,-2
0.861365,138,0,2,1,-2,-2,-1,-2,-1
0.861383,139,-2,-3,-2,-1,-2,-1,-1,-2
0.862929,140,-1,0,-1,1,1,0,-1,-1
0.862942,141,-1,-3,-1,-1,0,-2,-1,-1
0.875682,142,-1,-1,-3,0,0,-1,0,-1
0.875697,143,0,-1,0,-1,-1,0,0,0
0.882680,144,-1,0,0,-1,0,1,-2,0
0.882696,145,-2,-3,-1,0,-1,-1,0,-2
0.906340,146,-1,0,0,-3,-2,0,-3,0
0.906357,147,-1,-1,0,-1,-1,0,-2,-1
0.907767,148,-1,-1,-1,-2,0,-2,-2,0
0.907787,149,1,0,-1,0,0,-3,-1,0
0.921407,150,-2,-3,1,-2,0,-1,0,-1
0.921432,151,-1,1,-2,-1,0,-2,-2,-2
0.922987,152,-1,-1,0,-1,0,-1,-1,-1
0.922998,153,-1,-2,-2,-1,-3,0,-1,1
0.935071,154,-2,-1,-2,-2,-2,-1,-1,-1
0.935094,155,-1,-1,-1,0,1,-1,-1,-2
0.945200,156,0,-1,-2,-2,-2,-3,-1,-1
0.945213,157,1,-2,-1,-1,0,-1,-1,0
0.966284,158,-1,0,-2,0,0,0,0,-1
0.966307,159,-1,-1,0,-3,-3,0,0,-1
0.967852,160,0,-2,-2,-2,-2,-1,-1,0
0.967871,161,-2,0,-1,-1,-1,1,0,-1
0.981797,162,1,-1,-1,-1,-1,0,-2,-1
0.981814,163,0,0,-1,-2,0,-1,-2,-1
0.983225,164,-1,0,-2,-1,-1,-1,-1,-1
0.983275,165,-1,2,-1,-2,-2,-1,2,-1
0.995171,166,0,-2,-1,-1,-2,0,0,-1
0.995192,167,0,0,-1,0,0,-1,0,-2
1.004053,168,0,-2,-2,-2,-1,-1,-2,-1
1.004072,169,0,-1,0,-1,0,-1,-2,0
1.018922,170,-2,-1,-2,-1,-1,-2,-1,-2
1.018944,171,-2,-1,-2,0,-2,-2,0,0
1.020289,172,-1,1,-1,-1,2,0,0,-2
1.020305,173,0,-1,-2,0,-2,0,-1,0
1.041990,174,-2,-1,0,0,-1,-1,1,-1
1.042011,175,-1,0,0,-2,-2,-1,0,-2
1.043501,176,0,-2,0,-1,-1,0,0,-2
1.043526,177,-1,-1,-1,-2,-1,-3,-1,-2
1.054915,178,0,-1,0,0,0,-2,-1,1
1.054936,179,-1,0,-1,-1,0,-1,-1,0
1.064092,180,-3,0,-1,0,0,-1,0,-2
1.064160,181,-2,-1,-1,-2,-1,-1,-2,-1
1.078749,182,-2,-1,-2,0,0,0,-1,-2
1.078769,183,0,-1,1,-1,-2,0,-4,0
1.080324,184,-1,0,-1,-1,-1,-1,-2,0
1.080342,185,0,-1,-3,0,-1,0,0,-1
1.101606,186,-1,-1,-1,-2,-2,-3,1,-1
1.101636,187,-1,-3,-1,-1,-1,0,0,-1
1.102919,188,-2,-2,-1,-2,-1,-1,-2,0
1.102929,189,-1,-1,-1,1,-1,1,-2,-3
1.114924,190,0,0,-1,0,0,-1,-2,-1
1.114937,191,-1,0,-1,-1,-1,0,0,-1
1.124096,192,-1,-1,0,0,-1,0,-1,0
1.124111,193,-1,-1,0,-1,-1,-2,-2,-1
1.138890,194,-1,-2,-1,-1,0,-1,-1,1
1.138908,195,-1,-2,-1,0,-1,0,0,1
1.140457,196,-1,-3,-1,-1,-2,-1,0,0
1.140564,197,-2,0,0,1,0,-1,-1,-1
1.185202,198,0,-1,-1,0,-1,0,-1,-2
1.185236,199,0,0,-2,-1,-1,-2,-1,-1
1.186839,200,0,0,-3,0,-3,-2,-2,-3
1.186934,201,0,-1,-1,0,-2,-2,0,0
1.187727,202,0,0,-1,-2,0,-1,-2,0
1.187745,203,1,-1,-1,0,-1,0,1,1
1.192845,204,-2,0,-3,0,0,-2,-1,-1
1.192873,205,0,-2,0,-2,0,0,-2,-2
1.198734,206,-1,1,-1,1,-1,-1,-3,-2
1.198757,207,1,-3,0,-2,-1,0,-1,0
1.200516,208,0,-1,0,-1,-2,0,1,-2
1.200536,209,-3,-1,0,-1,-1,0,1,-1
1.221409,210,0,-3,-1,0,1,-3,-1,0
1.221426,211,-1,0,-2,-1,-2,-2,-1,-2
1.222930,212,0,0,1,1,0,-1,-2,-1
1.222953,213,0,0,-1,-2,0,-1,-1,-1
1.234899,214,-2,-1,0,-2,-2,-1,-2,-1
1.234915,215,0,0,-2,-1,-3,-1,-1,0
1.243874,216,-3,-2,-1,-2,-1,-2,-1,-1
1.243888,217,0,-3,-1,-2,0,-1,-2,0
1.258838,218,0,0,-2,-2,-2,-1,0,-2
1.258901,219,-1,-1,0,-2,0,-2,-2,-2
1.260294,220,-1,-2,0,-2,-1,1,0,0
1.260313,221,-1,-1,-2,0,-2,-1,1,-1
1.280825,222,-1,-3,-1,0,-2,1,0,0
1.280859,223,0,0,-1,0,1,-2,0,-1
1.288066,224,-1,-1,-1,-2,-1,-1,0,-1
1.288085,225,-3,-1,-1,0,0,-2,0,-1
1.303285,226,-2,-1,-1,-1,-1,-1,0,0
1.303308,227,-2,-1,-1,0,-2,0,-1,-2
1.303928,228,-1,-1,-1,-1,-2,0,-1,-2
1.303949,229,0,-1,-3,-1,-1,0,0,0
1.325692,230,1,1,-1,-1,-2,-1,-1,-1
1.325710,231,-1,-2,-1,-1,0,0,-1,-1
1.326415,232,0,-1,0,-1,-1,-1,-2,0
1.326425,233,-1,-1,-1,-2,-2,-1,0,0
1.339958,234,-1,-2,1,1,1,-2,-2,-1
1.339977,235,-1,-1,-1,-1,-1,-1,-1,0
1.347993,236,-1,0,0,-1,-2,0,-2,-2
1.348050,237,-1,-1,-2,-1,0,0,-1,-2
1.363983,238,-1,-1,-2,-4,-1,-1,0,0
1.364006,239,-1,-2,-2,-2,0,-1,-2,-3
1.364008,240,1,-1,0,-2,-2,-2,-1,0
1.364081,241,-1,-2,0,0,0,-2,-3,-2
1.385717,242,-1,-2,-2,-1,-1,-2,-1,-2
1.385741,243,-2,-1,1,-1,0,-1,-2,-1
1.386589,244,-1,0,0,-2,0,-2,0,0
1.386602,245,0,-1,0,-3,0,0,-2,0
1.400068,246,0,-1,-2,-2,-2,0,-1,-1
1.400091,247,-2,-1,-3,0,-1,-3,-3,-1
1.408466,248,-1,-2,-1,0,0,-1,1,-1
1.408485,249,-1,-1,-2,-1,-1,0,0,-2
1.423020,250,1,0,0,-1,1,0,0,-1
1.423041,251,-1,-2,-1,0,0,0,0,-1
1.424069,252,-1,-1,0,-1,1,-1,-2,-1
1.424083,253,-1,0,0,-1,-2,-2,-1,1
1.445518,254,-2,0,0,-2,-2,-2,-2,0
1.445534,255,0,0,0,-2,-2,-1,0,0
1.446243,256,0,0,-3,-1,-3,1,-1,-1
1.446255,257,0,-2,-1,-1,-1,0,-1,-3
1.459937,258,0,-1,-1,0,-2,-2,-1,-1
1.460009,259,0,-1,-1,-2,-1,-2,1,1
1.468095,260,-2,-2,-1,-1,-2,-2,-1,-2
1.468112,261,-2,-2,-1,-1,-1,-1,0,-1
1.483020,262,-1,-3,-1,-1,0,0,-1,-1
1.483953,263,-1,-1,-2,-2,-2,0,-1,-1
1.483965,264,1,1,-2,-2,1,-1,-2,-1
1.483967,265,-1,1,-1,0,-1,-1,-1,-2
1.507065,266,-1,1,-2,-1,0,0,-2,-1
1.507079,267,-1,-2,0,-1,1,1,0,-2
1.507081,268,-2,-1,0,-2,-1,-1,0,-1
1.507083,269,-1,0,0,-1,0,-1,0,-1
1.520024,270,0,-2,0,0,-1,-1,-1,-1
1.521019,271,0,0,-1,-1,-1,-1,-3,-1
1.528168,272,-1,-1,-1,-1,0,-1,-1,-1
1.528188,273,0,-2,0,-1,-1,0,-1,0
1.543014,274,-1,-1,-1,-1,-4,-1,-1,0
1.543034,275,0,-1,0,0,-3,-1,0,-2
1.544138,276,-1,-1,-1,1,0,0,-1,-3
1.544160,277,-2,0,-1,-2,-1,-1,-1,0
1.565788,278,-2,-1,0,0,-1,0,0,-2
1.565807,279,1,-1,0,-2,-1,-2,-1,-2
1.566676,280,-1,-2,0,2,-1,0,0,0
1.566686,281,1,-2,-1,-2,-1,-2,-1,-1
1.580109,282,-2,-1,-3,-2,1,-2,0,0
1.580130,283,-1,-2,-2,-2,-2,0,0,1
1.588322,284,-1,1,-1,0,-2,-2,0,1
1.588358,285,-2,-1,-1,-1,-1,-1,-2,-1
1.603197,286,-1,-2,-1,-1,-1,0,-1,-2
1.603222,287,-2,0,-2,-1,0,-1,-1,0
1.603985,288,-1,-2,0,-3,-1,-2,-2,-1
1.604005,289,-2,-2,-1,-1,1,-1,-2,-1
1.625701,290,-1,-1,-1,-1,-1,0,-3,-1
1.625718,291,-2,-2,-2,0,0,1,-1,-1
1.626701,292,-1,-1,-1,-2,-2,-1,-2,-1
1.626715,293,-1,1,-1,-1,-1,0,0,-1
1.640015,294,-1,-2,0,0,-2,-2,-2,-2
1.640036,295,-2,-1,-3,-2,-1,-2,0,1
1.648875,296,-2,-1,-1,0,-1,-2,0,-2
1.648899,297,0,-1,-1,-1,0,-3,0,-1
1.663170,298,-2,-1,0,-2,-1,0,-1,-1
1.663228,299,1,1,0,-2,-3,0,0,-1
1.664359,300,0,-2,-1,-1,0,0,0,-1
1.664484,301,0,0,-1,0,-2,-2,-1,0
1.685567,302,2,1,-2,0,1,1,1,-1
1.685587,303,0,-2,0,0,1,-2,-1,-1
1.686413,304,1,-2,-2,0,-1,0,-1,0
1.686425,305,0,-2,-2,-1,-2,-2,-2,-1
1.699891,306,0,-2,-2,-3,-1,-1,-1,0
1.699909,307,-1,-1,0,-1,-1,-2,-1,0
1.708114,308,-1,-1,-2,-2,-1,-2,-1,-1
1.708134,309,0,-1,-3,-1,-1,0,-3,-2
1.723046,310,-1,0,-1,-1,0,-1,-2,1
1.724005,311,0,-1,0,1,0,1,-1,-1
1.724018,312,-1,-2,-1,-1,0,-1,-1,-1
1.724020,313,-1,1,-1,1,-1,1,-2,-1
1.745890,314,-1,-2,0,1,-1,-1,-1,-3
1.745916,315,-1,1,-1,-2,-2,0,-1,0
1.747058,316,0,-1,-1,0,-1,-2,-1,-1
1.747077,317,-1,0,-1,-1,-2,-1,0,-1
1.760200,318,-2,-1,-1,-1,-1,-1,-1,-1
1.760227,319,0,-2,-1,0,-2,0,-1,0
1.767464,320,-2,-2,0,-1,-3,1,-4,0
1.767488,321,-1,0,-1,-1,-2,-1,1,0
1.783255,322,-1,-1,-2,-1,-3,-1,0,0
1.783274,323,-2,-1,-1,-2,-1,-1,0,-2
1.784351,324,0,0,0,-2,0,-1,0,0
1.784363,325,0,-2,0,-1,0,0,-2,-3
1.805423,326,-1,0,0,1,-1,-2,-1,0
1.805441,327,0,-1,-3,0,-1,0,-2,-2
1.813233,328,-1,-1,0,0,0,-2,-1,2
1.813257,329,-2,-2,-1,-1,-2,-1,-1,-1
1.819940,330,-1,-2,-1,0,-2,-2,-1,-2
1.819957,331,-1,0,-1,0,-2,-1,-1,-1
1.827333,332,0,1,-1,-1,-1,0,-1,0
1.827351,333,-1,-2,-2,-1,0,-2,-1,1
1.844964,334,-2,-1,-2,-1,1,0,0,1
1.844976,335,-2,-4,-2,-1,-1,-2,-1,-2
1.845359,336,-2,0,-1,-1,-2,0,-1,0
1.845371,337,-2,-1,0,-1,-1,-1,0,0
1.866075,338,-2,-2,-2,-1,-2,-1,0,0
1.866086,339,0,1,0,-1,-1,-1,-1,0
1.866252,340,-2,0,0,-1,-1,-1,-1,-2
1.866311,341,0,-2,0,0,-1,0,-1,-2
1.879912,342,0,0,0,-2,-2,-2,0,-1
1.879931,343,-1,-2,-1,-2,-1,0,0,1
1.895629,344,-1,-2,0,-2,-1,0,0,0
1.895646,345,0,-1,0,1,-1,-1,0,0
1.903048,346,-1,-2,-1,0,-2,0,-1,-1
1.903066,347,-1,-2,-1,-1,0,-2,-1,-1
1.903983,348,1,-1,-2,1,-1,-1,-2,-1
1.903997,349,-2,-2,-2,-2,-1,-2,-2,0
1.933848,350,1,-1,-1,-1,-2,0,1,-2
1.933870,351,-2,1,-1,0,-1,-1,-1,-1
1.934655,352,-1,-2,-2,-2,1,-1,0,-1
1.934686,353,0,1,-1,-2,-1,0,-1,-1
1.939955,354,-1,-1,0,0,-1,-2,-1,-1
1.939974,355,0,0,-1,0,0,-1,-1,0
1.947487,356,-2,-1,-2,-1,0,-1,0,-1
1.947512,357,0,0,0,-1,0,-1,1,-1
1.963124,358,-2,-2,-2,0,1,-1,-2,-3
1.963147,359,-1,-2,-2,-1,-2,-1,1,-1
1.964062,360,-2,-2,-1,0,-2,0,-1,-1
1.964074,361,-2,-1,-1,-1,0,-2,-1,0
1.985613,362,0,-2,-2,-2,0,-1,0,1
1.985630,363,-2,1,-1,-2,0,-1,-3,-2
1.986617,364,1,-2,-1,-1,-3,-2,-1,-2
1.986632,365,0,-1,0,0,-2,1,0,-2
2.008231,366,-1,0,0,0,0,-1,0,-1
2.008259,367,1,-3,1,-2,0,-1,1,-1
2.009511,368,-1,1,-1,-1,1,0,-1,-1
2.009530,369,0,-2,-1,0,-1,-1,-1,-1
2.023314,370,0,1,-1,-2,0,-1,-2,-1
2.023345,371,-2,-1,-3,-1,0,-1,-1,0
2.024394,372,1,0,-1,-2,0,-2,0,-3
2.024549,373,-2,-2,-1,-2,-1,0,-1,1
2.045683,374,-1,0,0,-2,-2,-2,-3,-1
2.045768,375,-2,0,-1,0,-1,0,-2,-1
2.046493,376,-1,-1,-2,-2,-1,-2,-1,-1
2.046514,377,0,0,0,0,0,-1,0,-2
2.068166,378,0,0,-2,-1,0,-1,-1,0
2.069377,379,-1,-1,0,0,-1,-1,-1,1
2.069394,380,-1,0,0,1,-1,-1,-1,1
2.069396,381,-1,0,-3,-2,-1,0,-1,0
2.083175,382,0,-1,1,0,0,0,0,-2
2.083196,383,1,-2,-1,-2,-1,0,0,-1
2.084029,384,-1,-1,-2,-1,1,-1,1,-2
2.084045,385,-1,0,-1,-1,-4,-1,-1,-1
2.105436,386,-1,-1,-1,0,-1,-2,-1,-1
2.105498,387,-1,1,0,-1,-2,-2,-2,0
2.113126,388,0,-1,-1,-1,0,0,0,0
2.114177,389,-1,-2,0,-1,0,-1,-2,0
2.128576,390,0,-2,-1,-2,-1,0,0,-2
2.129830,391,-1,-1,-1,0,0,-1,-1,0
2.129849,392,-2,0,-3,0,-1,0,-1,-1
2.129852,393,0,-1,-2,-2,-2,0,-1,0
2.143263,394,-2,1,-1,0,0,-1,-2,0
2.143296,395,-2,-2,-1,-1,-2,-2,-2,-3
2.144412,396,-1,-1,-2,-1,1,-1,-1,-1
2.144429,397,-3,-1,0,-1,-1,-1,-1,-2
2.165617,398,-1,0,1,-1,0,-1,1,0
2.165636,399,0,-1,1,-1,-1,-1,-1,-1
2.166318,400,0,-1,0,-2,-1,0,-2,-1
2.166394,401,1,-3,-1,-1,-2,0,0,-1
2.188073,402,-3,-1,-2,0,-1,0,-2,-2
2.188090,403,0,-1,-1,-2,1,0,-1,-1
2.188870,404,0,-1,1,-2,-2,0,0,0
2.189186,405,-1,0,-1,-2,0,-2,-2,0
2.202810,406,-1,-1,-3,-2,-1,-1,-1,-2
2.202834,407,-1,-2,-1,-2,-1,0,-1,0
2.210607,408,-1,-1,-1,1,-1,0,0,-1
2.210623,409,-2,0,1,-1,0,-2,0,-1
2.225650,410,-1,-1,-1,-2,-2,-2,-1,-2
2.225669,411,0,-1,-1,0,-2,-2,-1,-1
2.226617,412,-3,-1,0,-1,-1,0,-1,-1
2.226631,413,-2,-1,-1,0,0,0,-1,-1
2.265051,414,0,0,-1,-2,-3,0,-1,0
2.265068,415,0,1,-1,-3,-1,-1,1,-2
2.265934,416,-1,-1,-1,0,-1,-2,0,0
2.265957,417,-2,-2,-1,0,-1,-1,-1,-2
2.267548,418,-1,0,-1,0,-1,-1,-2,-1
2.267567,419,-2,-3,-1,-1,-1,-1,-2,-2
2.270601,420,0,-1,-2,0,0,-1,1,0
2.270618,421,1,0,-2,-1,0,-2,-1,-3
2.285614,422,-1,0,-1,-1,-1,0,0,-2
2.286470,423,-1,0,0,1,-1,-1,-1,1
2.286482,424,0,-2,-1,-1,-1,-2,-2,-1
2.286483,425,-1,-1,-1,-2,-1,0,-2,-1
2.308034,426,-2,-1,-2,-1,-2,0,0,-1
2.308050,427,-1,0,-2,-1,0,-1,-1,0
2.308766,428,0,0,0,0,-2,-1,-2,-1
2.308782,429,-1,0,0,-2,-1,-2,-1,-1
2.324025,430,2,-2,0,0,0,-2,-1,-1
2.324046,431,0,-1,0,-1,-2,-2,0,0
2.324048,432,-3,-1,-2,0,0,-2,-1,-2
2.324050,433,0,0,-2,-3,-1,-1,0,0
2.345679,434,-3,-2,-1,-1,-1,0,-1,-1
2.345699,435,0,0,-1,1,0,-1,0,-3
2.346641,436,0,-1,0,-3,0,1,-1,1
2.346653,437,2,0,-1,0,-2,-1,0,-1
2.368155,438,-2,0,-1,-1,-1,-1,0,0
2.368172,439,-1,-1,-1,-2,-1,0,0,0
2.369067,440,-1,-1,-1,-3,-2,-2,-1,-2
2.369079,441,-1,-2,0,0,-2,-1,-2,0
2.382976,442,-1,-1,1,0,-2,-1,-2,0
2.382992,443,-1,0,0,0,-2,-1,-2,-2
2.383723,444,-1,-1,-1,-1,-2,-1,-1,-1
2.383752,445,0,-1,-1,0,-2,0,0,-1
2.405605,446,-1,0,-1,-1,0,-2,-2,-2
2.405627,447,-2,-1,0,-1,-1,-2,0,-1
2.406345,448,-1,0,0,0,0,0,-1,1
2.406360,449,-2,-2,-1,-1,0,1,0,-1
2.428034,450,0,-2,-1,-1,-2,-1,-1,0
2.428050,451,1,1,-3,-1,-2,-2,0,-2
2.428919,452,-2,-1,0,0,-1,0,-1,-2
2.428932,453,-2,-1,-1,0,-2,-1,-3,-1
2.443021,454,-2,0,0,-1,0,0,-1,-1
2.443038,455,-1,-2,-1,-2,-2,0,-2,0
2.443739,456,0,-2,-1,0,-2,-1,-2,0
2.443751,457,-1,-2,0,0,-1,-1,-1,-2
2.465607,458,0,-2,-1,-1,-1,-1,0,0
2.465628,459,-1,-1,-1,-1,0,-1,-1,0
2.466318,460,-1,-1,-1,-1,-1,-1,-2,0
2.466336,461,1,0,-1,-1,1,0,-2,0
2.488929,462,-1,-1,-2,-1,1,0,0,-1
2.489937,463,-1,-2,-1,-1,-1,0,-1,-1
2.489957,464,0,2,-1,-1,-1,-3,-1,-2
2.489958,465,0,-2,-1,0,0,0,-1,0
2.503049,466,-1,-2,-1,0,-1,-1,0,-1
2.503068,467,0,-1,-1,0,0,0,-1,-1
2.504001,468,0,-1,-3,-1,-1,-1,-1,-1
2.504015,469,0,-1,-2,-2,-2,-2,-1,-2
2.527007,470,-1,0,-2,-2,-4,-2,1,1
2.527025,471,-2,-1,-1,-1,0,-1,-3,-1
2.527028,472,-2,-2,0,-1,-1,1,0,1
2.527030,473,-2,0,-1,1,-2,0,-1,3
2.548096,474,-2,-2,-1,1,-1,-1,-2,-4
2.548113,475,0,-2,0,-1,-2,-2,-3,-1
2.548949,476,-1,-1,-1,-1,0,-2,0,-4
2.548961,477,0,1,-1,-1,0,-2,0,1
2.562835,478,1,-1,-1,1,0,-3,-1,2
2.562854,479,0,0,-2,0,-1,0,0,0
2.570588,480,0,0,1,0,1,0,-1,-1
2.570604,481,-2,-1,0,-1,-1,-1,-1,-3
2.585814,482,-1,-2,-1,0,-1,0,0,0
2.585839,483,0,-1,-2,-1,-1,-2,-2,-2
2.586935,484,-1,-1,-1,-2,0,-1,0,-1
2.586959,485,0,1,-2,-2,-1,-1,0,0
2.608159,486,-2,1,-1,0,-1,0,-2,-1
2.608244,487,-1,-1,-1,-1,0,0,0,0
2.609144,488,-2,-1,0,-1,-2,-1,-1,-1
2.609200,489,-2,-1,3,0,-1,-2,-2,-3
2.623109,490,-1,0,-1,-2,0,0,-1,0
2.623132,491,-2,0,-2,0,-1,0,0,0
2.630588,492,0,-1,0,2,-1,-1,-1,0
2.630609,493,0,-1,-1,-2,-2,-1,-1,-2
2.645619,494,0,0,0,-1,-1,1,-3,-1
2.645640,495,0,0,1,0,0,-2,0,0
2.646563,496,0,-2,-1,-2,-1,-1,-2,-3
2.646579,497,-1,-2,-2,-1,-1,1,-2,-2
2.668206,498,-1,-3,-2,-1,-2,-2,-1,1
2.668223,499,-2,0,0,-1,0,-1,-1,-2
2.669084,500,-1,-1,0,-2,0,-2,0,2
2.669188,501,0,-1,0,-2,0,-1,-1,-1
2.682902,502,0,-1,0,-1,2,-2,-1,-2
2.682939,503,0,-2,-2,0,-1,0,0,0
2.690583,504,-2,0,-3,0,-2,-1,-1,-1
2.690598,505,-2,-2,0,0,-1,-3,0,-1
2.705688,506,-2,0,0,-1,0,-1,0,-1
2.705705,507,1,-2,1,-3,-2,0,-2,-1
2.706279,508,-1,1,0,-1,-1,-1,-2,-1
2.706310,509,-1,-2,-2,-1,-1,0,-2,0
2.728603,510,-2,1,0,-1,-3,0,-1,0
2.728623,511,-1,-1,-1,-1,1,-1,0,2
2.729674,512,-1,-1,-1,-1,-1,0,-1,0
2.729687,513,-2,-1,-1,-1,-1,0,0,-4
2.742552,514,0,-3,-1,-1,-1,-1,-2,-3
2.742568,515,-2,-1,-2,-1,0,-1,-1,-3
2.750713,516,-1,-2,-1,-1,0,-1,-1,1
2.750732,517,-1,0,0,-1,0,1,0,0
2.766917,518,0,0,-1,0,1,-2,0,-1
2.766932,519,-1,-2,-2,-2,-3,-1,-2,0
2.766934,520,-1,-1,0,-1,-1,-1,-2,-1
2.766935,521,0,-1,-1,-1,0,-2,-2,-1
2.788133,522,1,-1,0,-2,-1,-1,-1,-1
2.789129,523,-1,-1,-1,-1,1,0,0,-1
2.789147,524,-1,-1,-1,0,-1,-1,2,-2
2.789150,525,0,0,-1,-1,-1,-2,0,-1
2.802781,526,-1,-1,-2,-1,-1,-1,0,0
2.802817,527,-1,-1,-1,0,-1,-2,-1,0
2.810573,528,-1,-1,-1,-2,-1,1,0,-1
2.810588,529,0,0,-2,-1,-1,-1,0,1
2.825470,530,0,-2,-1,-1,-2,-2,-1,0
2.825492,531,0,-2,-1,-1,-2,-2,-2,-2
2.833139,532,0,-1,0,1,0,0,0,-1
2.833156,533,-2,-1,-2,-2,-2,0,0,-1
2.848156,534,0,-1,-1,-2,-2,-2,-2,-3
2.848209,535,0,0,-1,-1,-1,-1,-1,-1
2.848844,536,1,-1,-1,0,-1,-4,0,-2
2.848852,537,-1,-1,-2,-2,0,-1,0,-1
2.862331,538,-1,0,1,-2,-1,1,0,1
2.862343,539,-1,1,-2,-2,-1,-2,0,0
2.870607,540,-2,0,0,0,-1,-2,-2,-1
2.871349,541,1,-1,0,-1,0,-2,-1,-1
2.885664,542,0,-1,-1,-1,-2,-1,-1,-2
2.885680,543,-2,-1,0,-2,-3,-2,-1,0
2.886983,544,-1,-2,-1,-1,-1,-1,-1,0
2.886995,545,-1,0,-2,-1,-1,-1,0,-2
2.909683,546,-1,-1,-1,-1,-2,-1,-2,-2
2.909695,547,0,-1,-1,-1,0,0,1,-1
2.909698,548,1,-1,0,-1,-1,-2,-1,-1
2.909701,549,1,-1,-1,0,-1,-1,-1,0
2.931224,550,0,-1,-2,0,-2,0,0,-1
2.931245,551,-2,-2,1,0,0,0,-2,3
2.933130,552,-1,-1,1,-1,0,-1,-2,-6
2.933142,553,-2,0,0,-1,0,1,-1,-1
2.945585,554,-1,0,-2,-1,-1,-1,-1,0
2.945607,555,0,-1,-1,-4,-2,0,0,-2
2.946476,556,0,0,0,0,0,-1,-1,1
2.946495,557,-1,-1,0,-1,-1,-1,-2,-1
2.968248,558,-1,-1,-1,1,1,-1,-2,0
2.968268,559,0,0,-1,0,0,-1,-2,-1
2.969387,560,-1,0,-2,-1,-1,-1,0,1
2.969399,561,-1,-1,1,0,-3,-1,1,-2
2.991642,562,-1,-2,-3,-1,1,-1,0,-1
2.991697,563,-2,0,-1,-1,-2,-2,-1,-2
2.992191,564,-1,-1,-2,-1,-2,-2,-1,-1
2.992227,565,-2,-2,-1,-1,0,-2,-1,1
3.005879,566,1,-1,-2,-1,1,-1,-1,-1
3.005907,567,0,0,-1,0,0,0,-2,-3
3.006440,568,-2,0,-1,-1,-1,0,1,0
3.006498,569,1,-2,-1,-1,-1,-1,-1,-1
3.028799,570,-2,0,0,-1,-1,-2,0,-1
3.028815,571,-1,-1,0,-1,0,-1,-1,-3
3.029730,572,-1,-1,-1,0,-1,-1,-1,-1
3.029746,573,-2,0,-1,-1,-2,0,0,-1
3.051151,574,-4,-1,0,-1,0,-2,-1,-1
3.051165,575,-1,0,0,0,-1,-2,0,2
3.051958,576,-2,-1,-2,-2,-1,-1,0,0
3.051970,577,-1,-2,-1,-1,-1,-2,-2,-1
3.066119,578,-1,1,0,0,0,0,-1,-3
3.066142,579,-1,0,-1,0,-1,-2,-1,-1
3.066287,580,0,-1,-2,-1,-2,0,0,-1
3.066311,581,3,-1,-2,-2,0,-1,-2,-1
3.088140,582,-2,0,-1,-2,-2,-2,-3,-1
3.088907,583,0,-3,-2,-1,-2,-1,0,-2
3.088913,584,-2,-1,-2,-2,-1,0,-1,0
3.088915,585,-1,-1,-2,1,0,-1,-1,1
3.111411,586,2,-1,-1,-3,-2,-3,-1,-2
3.111423,587,-1,0,-1,0,-1,-1,-2,-1
3.111919,588,0,-2,-1,0,-1,-1,0,-1
3.111925,589,-3,-2,-1,-2,-1,-1,-1,-1
3.125818,590,-2,-1,-2,-1,0,0,0,0
3.127400,591,-1,-2,-1,-1,-2,0,-1,0
3.127415,592,2,0,0,-1,0,-2,-2,2
3.127417,593,-1,0,-1,0,0,-1,-2,-5
3.148294,594,0,-2,-2,-1,-2,0,-2,0
3.148312,595,-1,-1,-1,-2,0,0,-1,-1
3.149075,596,1,0,-1,-1,0,-1,0,-2
3.149081,597,1,-1,-1,0,-1,0,-3,-2
3.171442,598,-3,-2,0,1,-2,1,-1,-2
3.171463,599,0,0,-1,-2,0,-1,1,-1
3.172341,600,-2,-1,-2,0,0,-2,-1,-1
3.172473,601,-3,0,0,-2,-2,1,-1,0
3.185826,602,0,-2,-1,-1,-1,-2,0,0
3.185850,603,1,-1,0,0,-1,0,-1,0
3.186738,604,-2,-1,-1,-1,-1,-1,0,-3
3.186747,605,0,0,-2,0,0,-1,0,0
3.208129,606,0,0,-1,1,1,-2,-1,0
3.208166,607,1,-1,-1,-2,-1,0,1,-2
3.208748,608,0,-2,-1,-1,-1,-1,-1,0
3.208754,609,2,0,-1,-1,-1,-2,-1,1
3.231710,610,-2,-2,0,-1,-1,-2,0,0
3.231741,611,-2,1,-1,0,-2,-2,-1,-1
3.233180,612,-1,-1,0,-2,0,0,-2,-1
3.233186,613,-2,-2,-1,0,0,-1,-1,0
3.245556,614,-1,-2,-1,-1,-1,-1,0,0
3.245578,615,-1,-1,-1,0,-1,-1,-2,-1
3.246295,616,-1,-1,-3,1,-1,-1,-2,-1
3.246304,617,-1,-1,0,-1,-1,0,-2,-1
3.268207,618,0,2,0,-2,-1,-1,-1,-1
3.268218,619,-1,-2,-1,-2,-1,-1,-2,-2
3.268804,620,-2,-1,-1,-1,-3,-1,0,-1
3.268839,621,0,-1,-1,-2,-1,-3,-2,-2
3.291397,622,-1,-1,-2,0,-2,-1,-2,-1
3.291418,623,-1,-1,-3,-1,-1,-1,0,1
3.293713,624,-3,1,-1,-1,1,-1,-1,-1
3.293726,625,1,-1,-1,-1,-1,-1,0,-1
3.306061,626,0,-1,-1,-1,0,0,-1,-2
3.306082,627,0,0,1,0,0,-1,-1,-2
3.307741,628,0,-3,0,-1,0,-1,-1,-3
3.307752,629,-2,-1,-1,-2,-3,0,-2,0
3.328492,630,0,0,0,0,-1,0,-1,-2
3.328521,631,-2,0,-2,-2,0,-1,-3,-1
3.330912,632,-2,-1,1,0,-1,-1,-2,-1
3.330928,633,-2,-2,-1,0,1,-2,-1,-1
3.351369,634,-2,-1,-1,0,-1,-1,0,-1
3.351390,635,-2,-1,-3,-1,0,-1,1,-1
3.352168,636,-2,0,-1,-1,-1,-1,-1,0
3.352296,637,-1,-1,-1,0,-1,-1,-1,-3
3.365577,638,-2,-1,-2,-2,-1,1,-1,0
3.365597,639,-2,-2,-2,0,0,-1,-2,0
3.366233,640,-1,-1,-2,-1,0,0,-1,-2
3.366245,641,-3,-2,-2,-2,-1,0,0,0
3.388570,642,-1,-1,-1,-2,1,-1,-1,-1
3.388585,643,-1,1,0,-1,0,-1,-1,-2
3.390675,644,-3,0,1,0,-2,1,0,0
3.390686,645,-2,0,-1,-2,0,-2,-2,0
3.411214,646,1,-2,-1,-1,0,0,-2,-1
3.411230,647,1,0,0,-2,-2,-1,-1,-1
3.411847,648,0,0,0,-2,-1,-3,0,-2
3.411860,649,-1,0,0,-1,1,-1,-1,0
3.425715,650,-2,-1,-3,0,-2,-1,-1,-2
3.425735,651,-1,-4,0,0,0,-2,-2,-1
3.426574,652,-2,-2,-1,-2,0,-2,-1,-1
3.426594,653,-2,-3,-2,-1,-1,1,-2,-1
3.448058,654,-1,-1,-1,1,-1,-2,-2,0
3.448072,655,-1,1,0,0,-3,0,-2,-1
3.448830,656,1,0,1,-2,-2,0,-3,0
3.448840,657,-1,0,-2,0,0,-1,-1,-1
3.471814,658,-2,-2,-1,-1,1,-1,0,0
3.471827,659,-2,-2,-1,-1,-2,1,-1,-2
3.472003,660,0,-1,-1,-1,0,0,-2,0
3.472032,661,0,-2,1,0,-1,0,0,-1
3.484917,662,-1,0,0,-2,-4,-1,-2,-3
3.484935,663,-1,0,-2,0,-1,-2,-1,-1
3.493011,664,1,-2,-2,-1,0,0,-2,0
3.493737,665,1,-1,-1,0,-2,-1,-2,-2
3.507996,666,-1,-1,0,-1,-1,-1,-3,-1
3.508010,667,-1,-2,-1,-1,-2,1,0,0
3.508836,668,-1,-1,-1,-1,0,-1,0,0
3.508852,669,-2,0,-1,-2,-1,-1,-1,-2
3.531289,670,-2,-1,0,-2,0,-1,0,0
3.531305,671,0,-1,0,0,0,-2,1,1
3.532093,672,-3,0,-1,-1,-1,-2,-3,-2
3.532101,673,-1,-2,0,1,0,-1,1,0
3.545603,674,2,0,-3,1,-1,-1,-1,-1
3.545621,675,-2,-2,-1,-1,0,-1,-2,-1
3.546480,676,-3,3,-2,-1,0,0,0,-1
3.546492,677,1,0,-1,-2,-2,0,-1,0
3.568057,678,-1,-2,0,-2,0,2,0,-1
3.568072,679,0,-1,-1,-1,-1,-2,-1,-2
3.568858,680,-1,-2,-1,-1,-1,-1,-1,0
3.568880,681,-2,0,0,-2,-1,0,-1,-2
3.591160,682,0,-1,-1,-2,-1,0,-1,0
3.591175,683,0,-2,-1,-3,-1,-1,-1,-1
3.592002,684,-2,-2,-1,0,0,-1,-1,0
3.592017,685,0,-1,-2,-1,-1,-1,-2,-1
3.604882,686,-1,-2,-1,-1,-2,-2,-1,-1
3.604900,687,-2,-1,1,-1,-1,-1,0,-1
3.613409,688,3,-1,-3,0,-3,-2,-1,-2
3.613421,689,0,-4,-1,-1,-1,-2,-1,0
3.628059,690,-3,8,1,-1,-1,-1,-1,0
3.629161,691,-1,0,-2,-2,-1,-1,0,-2
3.629172,692,0,-3,-1,0,-1,0,-1,-1
3.629174,693,-1,-4,-1,0,-2,-1,-2,0
3.651248,694,0,1,-2,-1,0,-2,-1,-1
3.651264,695,-3,1,0,0,-2,-1,0,1
3.651989,696,0,-1,-1,0,-1,-1,1,0
3.651998,697,-1,-2,-2,-1,-1,-2,0,0
3.664883,698,-1,-5,-2,-1,-2,-1,-1,0
3.664945,699,-2,1,-1,0,0,0,-2,0
3.673197,700,-1,-1,-1,-1,-1,0,0,0
3.673330,701,0,-5,0,-1,-2,-1,0,0
3.688048,702,-1,1,-2,-1,-2,-1,-1,0
3.688069,703,1,0,-1,-2,-1,0,0,0
3.689729,704,0,0,-2,-2,-2,0,0,-2
3.689741,705,-2,4,-2,-1,-1,1,0,-2
3.711214,706,-2,-2,-2,1,0,-1,-1,-1
3.711230,707,1,-1,-1,-2,-1,0,-2,0
3.711968,708,-1,-4,0,-1,-2,-1,0,-1
3.711996,709,0,0,-1,-1,-1,-1,-1,-1
3.724829,710,0,0,-2,-2,-2,-3,-1,-2
3.724843,711,-1,-2,-2,-1,-1,-1,-1,-1
3.732857,712,-1,1,-1,-2,-1,-2,-1,-1
3.732873,713,-2,0,-1,-1,1,0,-1,-1
3.756221,714,-2,-2,0,1,0,-1,-2,-2
3.756236,715,0,0,0,-1,0,0,-1,-1
3.756895,716,-2,0,-1,1,0,0,-1,0
3.756907,717,-1,0,-1,0,-1,-1,0,1
3.771192,718,0,-3,-3,0,-1,-1,-1,1
3.771207,719,-1,-1,-3,-1,-2,-1,-1,-1
3.771866,720,-1,-1,1,-2,-1,-1,-2,0
3.771899,721,-1,-2,0,-2,-3,-1,-2,-1
3.785306,722,0,-2,-3,-2,-1,0,0,-1
3.785334,723,-1,-1,-2,0,0,-2,-2,-1
3.793039,724,-1,-1,-1,-2,-2,-1,-1,-1
3.793057,725,-1,0,-1,-3,-2,0,-1,-2
3.807978,726,0,0,1,1,1,-1,-2,-2
3.807999,727,-2,-2,-1,-1,-2,0,-1,-1
3.808851,728,0,0,-1,0,0,-1,-1,-2
3.808880,729,-1,0,0,-1,-1,-3,-1,-2
3.831358,730,-1,-1,-1,0,-2,-1,1,0
3.831440,731,-1,-1,0,-2,0,-1,0,-1
3.832235,732,0,0,-2,0,0,0,-1,-1
3.832247,733,-1,-2,-1,0,-1,1,-3,-1
3.844915,734,0,-1,0,-2,-2,-1,-1,-1
3.844933,735,-2,-1,-1,0,-1,-1,-2,-2
3.853096,736,-2,-2,-1,-2,-1,-2,-1,0
3.853114,737,-1,1,-1,-2,0,0,-1,1
3.868132,738,-2,0,-2,-1,0,0,-1,-2
3.868148,739,0,1,0,-1,-1,-1,-2,-1
3.868768,740,-2,1,0,-2,0,-2,-1,-1
3.868789,741,-2,-1,-1,0,-1,-2,-2,-1
3.891226,742,0,-1,-1,-2,-1,-1,-1,2
3.891242,743,0,-1,-1,-1,-2,-2,0,-1
3.891934,744,0,-1,-2,0,1,-1,-1,-1
3.891960,745,0,-2,0,1,-2,0,0,-1
3.913683,746,0,-1,0,-1,0,-2,-1,0
3.913699,747,0,-1,-1,-1,0,-1,0,-1
3.914514,748,-1,0,-2,-2,-1,-1,-1,0
3.914550,749,-1,-1,-1,-2,0,-1,0,0
3.928568,750,-4,0,-2,-2,0,1,0,0
3.928580,751,-1,-2,-1,-2,-1,-1,-1,-1
3.928821,752,0,0,-2,-3,-1,1,-1,-2
3.928854,753,-1,-1,-2,0,0,-1,-1,-2
3.951337,754,1,-1,-3,-1,-1,-1,0,-2
3.951960,755,0,0,-2,-1,1,-1,-2,0
3.951967,756,-3,-1,-1,-2,-1,-1,-2,-1
3.951969,757,0,0,-2,-1,-1,-1,0,-2
3.974034,758,1,-1,-2,-1,-1,1,-1,-1
3.974050,759,-1,1,0,0,-2,-1,0,-1
3.975010,760,-1,-2,0,0,-1,-1,-1,-1
3.975027,761,-2,-1,-2,-2,0,-2,1,0
3.988186,762,-1,-2,-2,-2,-2,-2,-1,0
3.988209,763,-1,-1,-1,-1,-2,0,-1,-1
3.989121,764,1,0,1,0,-1,-1,-2,0
3.989132,765,-2,0,-1,-1,-1,-1,1,-1
4.010342,766,0,-1,0,1,-1,-1,0,-2
4.010358,767,-1,0,0,0,-1,0,-1,-1
4.018038,768,0,-1,-3,-1,-1,-1,1,-2
4.018054,769,1,-1,-2,-2,-1,-1,-1,0
4.033685,770,1,-4,1,-2,-2,-2,-1,-1
4.033702,771,-2,-1,0,-1,-1,0,-1,-1
4.034717,772,0,-1,2,-1,-1,-1,-1,0
4.034729,773,0,-1,-1,-1,-1,-1,-2,0
4.048023,774,-3,-1,-1,0,-2,0,0,0
4.048040,775,0,-1,-1,-2,-1,-1,-1,-3
4.048724,776,-1,-1,-1,-1,0,-1,0,-2
4.048731,777,-2,-1,-2,-2,-2,-2,0,-1
4.071326,778,-1,2,-1,0,0,-2,-1,-1
4.071344,779,-1,-1,-1,-1,-1,1,0,0
4.072120,780,-1,0,-1,0,-1,0,-1,-1
4.072136,781,0,0,-2,0,0,-1,-3,-1
4.093903,782,0,1,0,-1,-1,-2,0,0
4.093927,783,-2,-1,0,0,0,-1,-1,-2
4.095323,784,-2,-2,-2,0,-2,0,0,0
4.095342,785,-1,-1,-1,-1,-2,-1,0,0
4.108147,786,-1,0,-1,-1,0,-1,-2,-1
4.108167,787,-1,0,-2,-1,0,0,0,-2
4.109263,788,-2,-1,0,-1,0,0,0,0
4.109281,789,0,-1,-1,-1,-2,-1,-1,-2
4.131302,790,-1,0,0,-2,-1,2,-1,0
4.131325,791,0,-1,-2,0,-1,0,-1,0
4.132835,792,0,-2,-1,0,0,-1,-3,1
4.132860,793,0,-1,-1,1,-2,-1,0,-1
4.154191,794,-2,-1,0,0,0,-3,0,-2
4.154222,795,1,-1,0,0,-1,-1,-2,1
4.155391,796,0,-1,-2,-2,-1,0,-1,-1
4.155416,797,-2,1,1,1,-1,-1,-1,0
4.168067,798,-1,-1,-2,0,-2,0,0,-1
4.168083,799,-2,-3,-1,-1,-1,-3,0,-3
4.168727,800,0,-2,1,-1,-2,0,-2,-3
4.168782,801,0,-2,-1,-1,0,0,-1,-2
4.191157,802,1,0,-2,-1,0,-1,-2,-3
4.191172,803,-2,0,-1,-1,-1,-1,0,1
4.191950,804,1,-1,-1,0,0,-2,0,0
4.192005,805,-2,0,-1,-1,-2,0,-2,0
4.212821,806,0,-1,-3,-1,-1,-1,-1,0
4.212838,807,0,0,-1,0,0,0,-3,-1
4.220719,808,-3,0,-2,0,0,0,-1,-1
4.222041,809,-2,-1,0,-2,-1,0,0,-1
4.236559,810,1,-1,-1,-2,0,-1,-1,0
4.236578,811,-1,-1,-1,-1,0,-1,-1,-1
4.237820,812,-1,-2,-3,0,-1,0,-1,0
4.237832,813,0,-2,0,0,0,0,-1,-2
4.251180,814,-2,-1,-1,-2,-1,0,-2,1
4.251202,815,-1,-2,-2,-3,0,-2,-1,0
4.252715,816,-1,0,-1,1,0,-1,1,-1
4.252750,817,-1,0,0,0,-2,-2,-1,-2
4.273799,818,0,0,0,1,-2,-1,-1,-1
4.273874,819,0,0,1,0,-1,0,0,-2
4.275393,820,0,-2,-1,0,-2,-1,-1,0
4.275410,821,-1,-1,-2,-1,-2,-1,-1,1
4.288029,822,-1,-1,-1,0,-2,-1,-1,-1
4.288041,823,-2,-3,-1,0,-1,-1,-1,-1
4.296610,824,-2,-1,-1,-1,-1,-2,-1,-2
4.296621,825,0,1,-2,-2,0,-1,-1,-2
4.311213,826,-1,-1,0,-1,-1,0,0,-1
4.311229,827,0,0,-1,-1,-2,0,-1,-1
4.312887,828,-1,-1,-1,-1,0,-1,-1,-1
4.312901,829,0,-2,-1,-1,-1,-3,0,0
4.333694,830,-1,-1,-1,-1,-1,0,-1,-1
4.333713,831,-2,0,0,0,-2,-1,-1,-1
4.335399,832,-1,-1,-1,-1,0,-1,-1,1
4.335447,833,-1,0,-1,0,0,0,-2,-1
4.347509,834,-2,-2,-2,-1,-1,-1,1,-3
4.347525,835,0,-1,-2,-1,-1,-2,-1,-1
4.357102,836,-1,-2,-1,-2,-2,-2,0,-1
4.357115,837,-1,-1,-1,0,-1,1,-2,-2
4.371273,838,-2,-1,0,2,0,0,-2,-1
4.371292,839,1,-1,-2,-2,-1,1,0,0
4.372808,840,-1,0,0,-1,0,-2,-2,-1
4.372843,841,-1,-2,0,-2,1,-2,-1,0
4.393685,842,0,1,1,-1,-1,-2,-2,-1
4.394273,843,-1,-1,0,0,-1,-2,-1,-1
4.395379,844,-2,-1,-1,-1,-2,1,1,0
4.395397,845,-1,-2,0,1,-2,-2,-1,-3
4.407400,846,0,-2,-2,-2,0,0,-2,-3
4.407418,847,-1,-1,-1,0,0,-1,-1,-1
4.416562,848,-1,-2,0,-2,-1,-2,-1,-1
4.416624,849,-1,0,-2,-1,-1,-2,-1,0
4.431327,850,0,-1,-1,0,0,-1,-1,0
4.431386,851,0,-1,0,-1,-1,-1,-1,-1
4.432745,852,0,1,0,-1,-1,0,-4,-1
4.432760,853,-1,-2,-1,-2,-2,-1,0,-1
4.453733,854,0,-2,-3,0,-1,-1,-1,-2
4.453751,855,-3,-3,0,-1,-1,0,-1,-1
4.455373,856,-2,0,-1,0,-1,-1,0,-2
4.455388,857,-1,0,-1,0,0,0,-1,0
4.467452,858,-2,0,1,0,-2,-1,-1,0
4.467470,859,-1,0,0,1,0,-1,-1,1
4.476481,860,-1,-1,0,-2,-1,-1,-1,-1
4.476498,861,0,-2,0,0,-2,-2,-1,0
4.506192,862,-1,-1,0,-1,-2,-3,-1,-2
4.506214,863,1,0,-1,-1,0,0,-2,-1
4.507784,864,1,0,-2,-1,-1,-3,-1,-1
4.507797,865,-1,1,-2,0,-1,-1,-1,-2
4.513855,866,-2,0,0,-1,-1,-1,-1,0
4.513879,867,-1,-1,-2,-2,-2,-1,0,0
4.515318,868,1,-2,0,0,-1,-2,0,-1
4.515334,869,0,-1,-1,0,-1,0,-2,0
4.527578,870,-1,-2,-1,-2,-2,2,-1,-2
4.527606,871,-1,-1,0,0,-2,0,1,0
4.538332,872,-1,-1,-1,-2,-2,-1,-2,0
4.538343,873,-1,-1,-1,-1,1,-3,-2,-1
4.551203,874,-1,-2,-1,-1,0,1,-1,1
4.551220,875,-3,1,0,-2,0,-2,-1,-1
4.552890,876,-2,-2,-2,1,-2,0,-1,-1
4.552907,877,0,1,0,-2,0,-1,0,-1
4.574287,878,-1,0,-2,-2,0,0,-2,-2
4.574315,879,1,-2,0,0,0,-1,-2,-2
4.575966,880,-2,-2,-1,-1,0,0,-1,0
4.575978,881,0,-1,-1,-2,0,0,-1,-3
4.587327,882,-2,-2,0,-1,-2,-1,-1,-1
4.587345,883,-1,-1,-1,0,-2,-1,-2,-2
4.597117,884,1,-1,0,0,-1,-1,-2,-1
4.597128,885,-2,-1,-3,-1,-1,0,0,0
4.611272,886,1,-1,-1,0,0,-1,-1,-1
4.611292,887,-1,-1,-1,-1,-1,-1,-1,-2
4.613272,888,-1,-1,0,0,0,-2,0,-3
4.613289,889,0,-2,0,-1,-2,1,0,-2
4.633825,890,-1,0,0,0,-1,-1,-2,-1
4.633840,891,-2,-2,-3,0,0,-3,0,-1
4.635187,892,2,-2,-1,-1,-1,-1,-2,-1
4.635201,893,-3,-2,-2,-2,1,-1,0,0
4.647459,894,-3,4,0,-3,-2,-2,0,-1
4.647478,895,-1,1,0,-1,-3,1,-1,-1
4.656763,896,0,-3,-1,-1,0,-1,-2,-2
4.656773,897,1,-8,-3,0,-2,-1,0,-1
4.671899,898,0,15,-2,-1,-1,-1,1,-1
4.673223,899,0,-1,-1,-3,-1,1,0,-1
4.673516,900,0,0,-1,-1,-1,0,0,1
4.673568,901,0,-4,0,-1,-2,-1,-2,0
4.693808,902,-1,-8,-1,-1,-1,-1,-1,-2
4.693827,903,-1,-1,-2,-1,0,-2,-1,-1
4.695362,904,-1,0,0,-1,0,-1,-1,0
4.695378,905,-1,2,-1,-1,-2,-2,-1,-1
4.707711,906,-2,-4,-2,-1,-2,-2,-1,-1
4.709111,907,1,-1,-2,0,-1,-1,-1,-2
4.716465,908,-1,-2,-2,-3,-4,1,-1,-1
4.716475,909,-1,3,0,-1,1,0,0,-1
4.731441,910,1,0,-2,-1,1,0,-2,-2
4.731468,911,-1,-3,-3,0,-2,-2,-1,1
4.732794,912,-3,1,-1,-3,-2,-1,-1,-1
4.732841,913,-2,0,-1,-1,-2,-1,-1,1
4.753948,914,-2,-3,0,-2,-2,-3,-1,-2
4.753968,915,-4,0,0,-1,-1,0,-2,-1
4.755937,916,0,1,-1,-1,0,-3,1,-1
4.755954,917,-1,1,-3,-1,-3,0,-1,0
4.767862,918,-1,-4,-2,1,0,-2,0,-1
4.767890,919,0,0,-1,-2,0,-3,-1,-1
4.777365,920,0,-1,-1,-1,0,0,0,-1
4.777375,921,0,0,0,-2,-2,0,-1,-2
4.791792,922,0,-3,-1,0,-2,0,0,-1
4.791818,923,-1,0,-2,-1,0,-2,-1,-2
4.793696,924,-2,-1,-1,1,-2,-1,0,1
4.793705,925,0,0,-1,-1,-1,0,-1,-1
4.813803,926,2,-1,0,-1,-2,-1,-2,-1
4.813818,927,0,-1,1,0,-2,0,-1,-1
4.815996,928,-2,-2,-1,-1,-1,-1,-1,-2
4.816007,929,-2,0,-1,-1,0,-2,0,-1
4.836185,930,-2,-2,0,-1,0,-1,0,-2
4.836199,931,1,-1,0,0,-1,1,-2,-2
4.837701,932,-2,1,0,-1,-1,-2,-2,-1
4.837714,933,0,-1,0,1,0,-2,0,-2
4.851472,934,-2,-1,-2,-2,-3,-1,-1,-1
4.851488,935,0,-1,0,-1,-1,-1,-1,-1
4.852724,936,0,-2,-1,0,-1,0,-2,-2
4.852730,937,-1,-1,-1,-3,-1,-2,-1,-1
4.873760,938,-1,0,0,-2,-1,-1,-2,1
4.873782,939,-1,0,0,-1,-2,-1,0,0
4.875463,940,-1,-1,-1,-3,-1,-3,0,-1
4.875532,941,-1,-2,-2,-1,-2,0,0,-2
4.896654,942,-1,-2,0,-1,0,0,-1,0
4.896666,943,-1,-1,-2,-2,-1,-2,-1,0
4.897771,944,0,0,-2,-1,-2,-1,-1,0
4.897785,945,0,-1,0,-1,-1,-1,0,-1
4.912407,946,-1,-1,-2,1,-2,-1,-1,-1
4.912417,947,-2,-1,0,-1,0,-1,-1,-1
4.912822,948,-2,0,-2,-1,-1,-1,-1,-1
4.912827,949,0,0,-1,-1,-2,-2,-2,-2
4.933851,950,0,-1,-1,-1,-2,-2,-2,-2
4.933872,951,0,-3,-1,-1,1,-1,0,-1
4.935225,952,0,0,-1,0,0,0,-1,0
4.935246,953,-1,-1,-1,-2,1,0,-2,-3
4.956432,954,0,-1,0,-2,-1,0,0,1
4.956460,955,-1,0,-1,0,-1,-1,-2,-3
4.958474,956,-1,-1,1,-2,-2,-2,-2,-1
4.958488,957,0,-1,-1,1,0,-1,-1,-1
4.971305,958,-1,-2,0,-1,2,1,0,-1
4.971326,959,-1,-1,-1,0,-1,1,-2,0
4.973224,960,-2,0,0,1,-1,-1,-2,0
4.973239,961,-1,-1,-1,-1,-1,-1,-1,-1
4.993769,962,-1,-1,-2,-1,-3,-1,0,0
4.993810,963,-1,0,-3,-3,-2,-1,1,-1
4.995247,964,-1,-1,-1,0,0,0,1,-1
4.995258,965,-1,-3,0,-3,0,1,-3,0
5.016272,966,-1,0,-1,-1,0,-1,-2,-1
5.016294,967,-1,0,0,-1,-2,-1,-1,-2
5.017889,968,-1,-2,-1,-1,0,0,-2,-3
5.017954,969,0,-2,-1,-1,-1,-1,-1,0
5.030999,970,-2,0,-1,1,0,-2,0,0
5.031015,971,-1,-1,-1,-1,-2,-1,-1,0
5.037568,972,0,-1,-2,-3,-1,-2,-1,-1
5.037623,973,0,-1,-3,-2,-1,-1,-1,0
5.054562,974,-2,-2,-2,-2,-1,-1,-2,-2
5.054579,975,0,-1,-1,0,-2,-2,-1,-1
5.055275,976,0,0,-1,-1,0,-1,-2,0
5.055347,977,0,1,-1,-1,0,-1,0,1
5.076294,978,0,0,-1,-2,-3,-1,0,-2
5.076314,979,-1,-2,0,-1,-1,0,0,1
5.077729,980,-2,0,0,-2,0,-1,-1,-2
5.077741,981,-2,-1,1,-1,-2,-1,-1,0
5.090871,982,1,-1,-2,-1,-1,0,0,-1
5.090897,983,-2,-2,-2,-2,1,-1,1,-1
5.097867,984,1,-1,0,-1,-2,-1,0,-1
5.097893,985,-1,-1,-1,-1,-1,-1,0,-3
5.115678,986,-1,-3,-2,-2,-2,0,-1,0
5.115690,987,-1,-1,-1,-2,-2,-1,-2,-2
5.115692,988,-1,-1,-2,-1,-3,0,1,1
5.115693,989,0,-1,0,-1,-1,-2,-2,1
5.136405,990,-2,0,0,0,0,-2,-1,-1
5.136427,991,-1,-2,-2,0,-2,-4,-3,0
5.137897,992,0,-1,-1,-2,-1,-4,-3,-1
5.137903,993,-1,-1,-2,0,-1,0,-1,-2
5.150682,994,0,0,-1,-1,-3,-1,0,0
5.150706,995,1,-1,-1,-2,-2,0,0,1
5.157528,996,-3,-1,-2,0,0,-1,0,-1
5.157549,997,-1,-1,0,-1,-2,0,-1,-1
5.174012,998,0,-1,-2,-3,0,-1,-1,0
5.174037,999,0,-1,-1,0,0,-1,-1,-2
5.175968,1000,-2,-1,-3,-2,-2,-1,-1,-1
5.176080,1001,-1,0,-1,-2,0,-1,-1,0
5.196384,1002,-1,-1,0,0,-1,-1,-1,-2
5.196521,1003,0,0,0,-1,-1,1,0,1
5.198383,1004,-2,-2,-1,0,0,-1,1,-1
5.198398,1005,0,-1,-1,-1,0,-1,0,-1
5.210686,1006,-1,0,-1,-1,-1,-1,-2,-2
5.210704,1007,-2,0,0,-1,0,-2,-1,0
5.217426,1008,2,1,0,-1,-3,0,0,-1
5.217455,1009,-1,0,-1,1,0,-3,-1,-4
5.233751,1010,-1,0,-1,-2,-1,0,1,0
5.233771,1011,0,-1,-1,-1,-1,-2,-1,-2
5.235216,1012,-2,-2,0,-1,0,-1,-2,0
5.235247,1013,-2,-2,0,-2,-1,1,-1,1
5.256267,1014,-3,-2,-1,-1,-3,-2,-2,-3
5.256284,1015,-3,0,0,-1,-1,-2,1,-1
5.257969,1016,0,-1,-1,-1,-1,0,-1,-1
5.258090,1017,-2,0,0,-2,-3,0,-1,-1
5.271001,1018,-1,0,-1,-1,1,-1,-1,-2
5.271017,1019,0,-1,-1,-2,-1,2,-1,-2
5.287042,1020,2,-1,-1,0,-1,-1,-2,-2
5.287054,1021,-1,-3,-1,-1,-1,-1,0,-2
5.293800,1022,0,-1,0,-1,-1,0,0,0
5.293821,1023,-1,0,-1,-1,-3,-2,0,-1
5.295289,1024,-2,0,-1,-2,-1,-1,1,-1
5.295301,1025,-2,-1,-1,-2,-3,-2,-1,1
5.317097,1026,0,-1,-2,0,-1,-2,0,-1
5.317112,1027,-1,-1,-1,0,0,0,-1,-1
5.317741,1028,-1,-2,-1,0,-2,-2,0,-1
5.317747,1029,-2,-2,-2,-1,-1,-1,0,-1
5.329928,1030,0,-1,1,0,-1,-2,-2,-1
5.329953,1031,0,-1,-2,-1,-1,0,-2,1
5.339117,1032,-2,0,0,-1,-1,-1,-2,-1
5.339132,1033,-1,-1,-2,-1,-1,-1,-2,-1
5.354028,1034,-1,-1,0,-1,-3,-1,0,0
5.354056,1035,-2,-1,0,0,-2,-2,-1,-2
5.355558,1036,-1,-1,-2,0,0,0,0,-1
5.355565,1037,-1,0,1,-1,0,-1,0,-1
5.376678,1038,0,-2,-1,-1,-2,-2,-2,-2
5.376706,1039,-1,1,-1,0,-1,-1,0,0
5.378975,1040,-1,0,-2,-2,-2,1,0,0
5.378987,1041,0,0,-2,-1,-1,-1,0,-1
5.390531,1042,-1,-2,-3,-1,-2,0,-2,-2
5.390569,1043,-2,-1,-1,-3,-1,-1,-2,-1
5.404998,1044,0,-1,-1,-1,-1,-1,0,-1
5.405023,1045,-2,-1,0,-1,0,0,1,0
5.413693,1046,0,-1,0,-1,0,2,1,-2
5.413712,1047,0,-2,-2,-1,-2,-1,-1,-1
5.415227,1048,-2,-1,0,0,-2,-2,-1,-1
5.415240,1049,0,-1,0,-2,-2,-1,-1,0
5.436449,1050,-1,0,-1,-1,-1,-3,-2,0
5.436562,1051,0,1,-1,1,-1,0,0,-2
5.438802,1052,-1,-2,-1,-3,0,-3,-1,0
5.438809,1053,-1,-1,-2,-1,-2,-1,0,-2
5.450004,1054,-1,-1,0,-1,-3,-1,-1,0
5.450025,1055,1,0,-2,-2,0,-1,-1,-1
5.460044,1056,-2,-1,-2,-3,-2,-1,-1,-1
5.460056,1057,-1,0,0,-1,0,-1,-1,-1
5.475137,1058,-1,0,0,-1,-1,0,0,0
5.475149,1059,-2,-2,-1,0,0,-2,-2,0
5.475257,1060,1,-1,-1,0,-1,-1,-1,-1
5.475263,1061,-2,-1,-1,0,-3,-1,-1,-2
5.496251,1062,-1,-2,-2,-1,1,0,-2,-1
5.496271,1063,-1,-1,-1,-2,-2,-2,0,0
5.497778,1064,-1,0,-1,-1,-1,0,-1,-1
5.497784,1065,1,0,-1,2,-1,-2,-3,-1
5.509903,1066,0,0,0,-1,-3,-2,-1,-1
5.509923,1067,-1,0,0,-3,-1,0,-1,0
5.519418,1068,-3,-1,1,1,-1,-1,-1,-2
5.519437,1069,0,-1,-2,-3,-1,-1,-1,-1
5.533722,1070,0,-2,-2,0,1,-2,0,1
5.533743,1071,0,-2,-1,-2,1,-1,-2,-2
5.536176,1072,-1,1,-1,0,-3,0,0,-1
5.536187,1073,-1,-1,-1,-2,-1,-1,0,1
5.556478,1074,-1,0,-2,-2,-1,-3,-2,-2
5.556499,1075,0,-2,-1,-1,0,-1,0,-2
5.558872,1076,0,-1,-1,-1,0,-2,1,0
5.558883,1077,1,-1,0,0,-1,-1,-1,-2
5.569900,1078,0,-1,0,-3,-1,1,0,-1
5.569919,1079,-1,0,0,1,-1,0,0,1
5.579537,1080,-2,-1,-1,-2,-1,0,-1,0
5.579553,1081,1,0,-1,0,-2,0,-2,-2
5.594262,1082,-1,0,1,-1,-2,-1,0,0
5.594284,1083,0,-1,-1,-1,-1,0,0,-1
5.596218,1084,0,-1,-2,0,-2,-1,-1,0
5.596227,1085,-3,-1,0,-1,-1,-1,1,-2
5.616532,1086,-1,0,1,0,1,1,-1,-2
5.616551,1087,-1,1,0,-2,-1,0,-2,-3
5.617747,1088,0,-1,-1,-3,0,0,-2,-1
5.617759,1089,-2,-1,-2,-1,-1,-1,-1,0
5.629849,1090,-1,-1,-2,-1,-2,-1,-1,-1
5.629861,1091,-1,-1,-1,-2,-2,-2,-2,-1
5.639774,1092,-2,-2,0,-1,-2,-1,0,-1
5.639792,1093,1,0,-2,-1,0,-1,-1,-1
5.654423,1094,0,-2,0,-1,1,0,0,-1
5.654450,1095,-1,-1,-1,-1,-1,-1,0,0
5.656196,1096,-1,0,-1,-1,0,-1,-1,-1
5.656208,1097,-2,-1,-1,0,-1,-1,-3,-1
5.684072,1098,-3,-1,-2,-1,-2,-2,-1,0
5.684090,1099,-2,-2,0,-1,0,-2,-1,0
5.685203,1100,1,0,0,-2,-2,0,0,-2
5.685263,1101,0,-1,0,0,0,-2,0,-1
5.698693,1102,-1,-2,-2,0,-2,-1,-2,0
5.698713,1103,-2,-1,-2,-2,-2,0,0,-2
5.700490,1104,-1,0,-1,-2,0,-1,-2,-1
5.700550,1105,0,-2,-1,-2,0,0,-1,0
5.713986,1106,0,0,-3,-1,-1,-2,-1,-1
5.714011,1107,-1,-1,-1,1,-1,-2,-2,-1
5.715246,1108,-1,-2,-1,0,0,-2,-1,-1
5.715258,1109,0,-1,0,0,-2,-2,-1,-1
5.735593,1110,-2,-1,-1,-2,-2,0,-4,-1
5.735620,1111,0,0,-1,0,-1,-1,1,-2
5.743791,1112,-2,-3,-1,-1,-2,-3,-1,-1
5.743811,1113,-1,-1,0,-1,-1,-1,0,-1
5.750126,1114,-1,-1,-2,-1,-1,-1,-1,-1
5.750156,1115,-2,-1,-1,-1,-2,-2,-1,0
5.759942,1116,-2,0,-2,0,0,0,-1,-1
5.759953,1117,-1,0,-2,-1,-1,-1,-1,0
5.774200,1118,-1,1,0,-1,-1,-1,0,-1
5.774226,1119,-2,-2,0,-1,-2,0,-1,-1
5.775313,1120,-1,0,-1,0,0,-1,0,-1
5.775337,1121,-1,-2,-2,-2,-1,0,-1,-1
5.796438,1122,1,-2,-1,-1,-3,0,1,-2
5.796459,1123,0,1,0,-1,-1,-2,-2,-1
5.798335,1124,-1,-1,-1,-1,-1,0,-1,-1
5.798340,1125,-2,-1,-1,0,0,0,-1,-1
5.818745,1126,-2,-2,0,1,0,-1,1,-1
5.818763,1127,0,-1,-1,-1,-3,-2,-1,-1
5.820552,1128,-2,-2,1,0,-2,-1,-2,0
5.820571,1129,-2,-1,-2,-3,0,-2,-3,-2
5.833971,1130,-1,-1,-2,0,-1,0,-2,-1
5.833995,1131,-1,0,-2,-1,1,0,-2,0
5.835344,1132,-1,0,-1,-1,-1,-1,-2,-3
5.835440,1133,0,-1,-1,-2,-2,-1,-1,-1
5.856534,1134,-2,0,0,-3,-1,-2,-1,0
5.856561,1135,-1,-2,-3,-1,0,0,-2,-1
5.858167,1136,1,-1,-1,-1,-2,-1,-1,1
5.858177,1137,-2,-1,-1,0,-2,0,-1,1
5.886398,1138,0,1,-1,-1,0,-1,-1,-1
5.886419,1139,-1,-2,0,-1,-1,0,-1,0
5.889005,1140,-1,-1,-2,0,-2,-1,-1,-1
5.889016,1141,-1,0,-1,0,-3,-2,0,-1
5.901231,1142,0,-1,0,0,0,-1,-2,-1
5.901253,1143,-2,0,-3,-1,-1,-1,-1,-1
5.902831,1144,-1,-1,-1,0,-1,0,0,-2
5.902864,1145,0,0,-1,-2,0,-1,0,0
5.916431,1146,0,-2,0,0,0,-2,-1,-1
5.916453,1147,-1,-2,0,-1,-1,0,0,-1
5.918211,1148,-2,0,-1,-2,-2,0,-2,0
5.918223,1149,0,-1,-2,-1,-2,0,-1,-1
5.940213,1150,-1,0,-2,-2,-2,-1,0,-1
5.940227,1151,-1,0,0,-1,0,0,-2,-2
5.940319,1152,-1,-1,0,-1,-1,-2,-2,-2
5.940349,1153,-2,-3,0,-3,-2,0,0,0
5.953639,1154,0,0,0,-2,-2,0,-1,-1
5.953681,1155,-2,-3,-1,-2,0,-2,0,1
5.961978,1156,1,1,-2,-2,0,-1,0,0
5.961989,1157,1,0,-1,0,0,-1,-3,-1
5.976170,1158,-2,-1,-2,0,0,-1,0,-1
5.976185,1159,-1,-1,-2,-2,-1,0,0,-1
5.978048,1160,1,-2,-1,-2,0,-1,1,-1
5.978067,1161,0,-1,-1,-4,0,-2,-1,0
5.998733,1162,0,-1,-1,-1,-3,-1,-1,1
5.998750,1163,-1,0,0,-1,-2,-2,-2,-1
6.000526,1164,-3,-1,-1,-2,0,-1,-1,-1
6.000577,1165,0,-1,-1,-1,-1,0,1,-1
6.013097,1166,-3,1,-1,-2,-1,0,-1,-1
6.013118,1167,1,-1,-1,0,1,-2,0,-2
6.019915,1168,-1,-1,-2,-1,0,1,0,1
6.019936,1169,-1,0,-1,0,0,-1,-2,-1
6.036309,1170,-2,-2,-2,-2,-1,0,-2,-1
6.036333,1171,1,0,0,-1,-1,-2,-3,-2
6.037773,1172,0,0,-1,-1,-1,-2,0,-1
6.037794,1173,0,0,0,-1,0,0,-1,-1
6.066222,1174,-1,-1,-1,-1,-2,-1,-1,0
6.066240,1175,-3,-1,0,0,-1,-1,1,-1
6.067726,1176,1,-2,0,-2,0,-2,-2,-3
6.067741,1177,-1,0,-1,-1,-1,0,0,-1
6.073075,1178,-2,-1,-1,0,-1,-1,-1,-1
6.073091,1179,-1,-1,-1,-2,-2,-2,0,0
6.080137,1180,-2,0,1,-1,-1,-1,0,-1
6.080149,1181,-2,-1,0,0,-3,-2,-3,-2
6.096216,1182,0,0,-1,-3,-1,-3,0,-1
6.096283,1183,0,-2,0,-2,-1,1,1,-1
6.097692,1184,-1,-1,-1,1,1,1,-2,-2
6.097706,1185,1,0,-1,-1,0,-2,-1,0
6.118708,1186,-1,-1,0,-1,-1,0,-2,-2
6.118724,1187,0,-1,-2,-1,-1,-1,0,0
6.120302,1188,1,0,0,-1,-2,-1,0,0
6.120317,1189,0,-2,0,-1,-1,-2,0,-1
6.133128,1190,-1,-3,0,-1,-1,0,-1,-1
6.133149,1191,0,-2,0,0,-2,-1,-2,-1
6.140138,1192,0,0,-1,0,-1,-1,-1,0
6.140159,1193,-1,-2,-1,0,-2,-2,-1,0
6.163667,1194,0,-1,0,-1,-2,0,-2,-1
6.163686,1195,-1,-1,-1,-1,-2,-2,-2,-1
6.165216,1196,-2,-1,-1,-1,0,-1,-2,-1
6.165228,1197,-2,0,0,-1,-1,1,-2,-2
6.178766,1198,-1,-2,-1,-2,0,-2,-2,-1
6.178782,1199,0,-1,-1,-1,0,0,1,-1
6.180277,1200,-1,-2,-2,-1,-2,-2,0,-3
6.180350,1201,-1,-2,-2,-1,-1,-3,0,-2
6.193166,1202,-1,-1,-3,-1,-1,0,2,0
6.193190,1203,-1,0,-1,-1,0,-1,-2,-2
6.199955,1204,-1,-1,-2,-2,-3,-1,-3,1
6.199977,1205,-3,-1,-1,-1,0,-1,1,-1
6.216233,1206,0,-2,0,-1,0,1,-1,-1
6.216256,1207,-1,0,0,-1,-1,0,-2,-1
6.218362,1208,2,-2,-1,0,-2,0,0,0
6.218373,1209,-2,0,-2,-1,-1,-1,-1,-2
6.238837,1210,0,-1,-1,-1,0,-2,-2,-1
6.238850,1211,1,0,-1,0,-1,-2,-1,0
6.240246,1212,-3,0,0,-2,-1,-1,-3,-1
6.240261,1213,-2,-1,0,0,-1,1,-2,0
6.253215,1214,-3,1,-2,-1,-1,-2,0,-1
6.253236,1215,-1,-1,0,-1,-2,-1,-1,-1
6.259881,1216,-1,-2,-2,-3,0,-1,0,-2
6.259901,1217,1,-1,-2,-1,-1,-2,-2,-2
6.276334,1218,-2,0,-1,-2,-2,-2,0,-1
6.276350,1219,-1,-1,-1,-2,-2,0,-2,0
6.277739,1220,-1,-1,-1,-1,-2,-1,-1,-2
6.277752,1221,0,-2,-1,-1,-1,-2,-1,0
6.298716,1222,-2,0,0,-1,-2,-1,-1,-1
6.298737,1223,-2,0,-1,-1,-1,-2,-1,-1
6.300243,1224,-3,0,0,-2,-2,1,-1,0
6.300265,1225,0,0,0,-2,-2,-1,-2,-3
6.312405,1226,1,0,0,-1,-1,0,-2,-1
6.312420,1227,0,-1,-1,-2,-1,-1,-1,-3
6.321882,1228,-1,-2,-1,0,-1,-1,-1,-1
6.321896,1229,-2,-1,-2,-1,-2,1,0,0
6.336220,1230,0,-2,-2,-1,0,-1,-1,-1
6.336238,1231,-1,-1,0,-1,-2,0,0,-1
6.337776,1232,-1,-1,-3,-2,0,-1,0,-1
6.337792,1233,-1,-1,0,-2,-2,0,1,-1
6.358723,1234,-1,-1,-1,-1,0,0,0,0
6.359961,1235,0,-1,-1,-1,0,0,-1,-1
6.360341,1236,1,0,-1,-1,-1,-2,0,1
6.360351,1237,-2,0,-1,-1,0,-1,-1,0
6.372353,1238,-1,-1,1,-1,-1,-1,-2,-3
6.372369,1239,-2,-1,-1,-1,1,-3,0,-1
6.382134,1240,-2,-1,0,1,-1,-1,-1,0
6.382145,1241,-2,-1,-1,0,-1,-3,-2,-3
6.396196,1242,-2,1,-2,1,-1,0,0,0
6.396211,1243,0,-2,-1,1,-3,0,0,0
6.398038,1244,-1,-1,-1,-1,0,-2,-1,-1
6.398068,1245,1,0,-1,-2,0,-1,1,0
6.418886,1246,0,-2,-2,-2,-1,-1,-1,-1
6.418903,1247,-1,-1,-3,-1,-2,-1,-2,0
6.420413,1248,-1,-1,-2,-1,-2,-1,-2,-1
6.420426,1249,-1,-1,-1,-1,-2,0,0,-1
6.441221,1250,0,0,-2,-1,-1,-4,-2,-2
6.441237,1251,0,-1,-1,-1,-1,-1,0,-1
6.442759,1252,0,-1,0,-2,0,-1,0,-2
6.442773,1253,-2,-1,-1,-1,-2,0,-2,0
6.456752,1254,-1,-2,-2,-1,0,0,0,0
6.456773,1255,-3,0,-2,-1,0,0,-3,-1
6.458277,1256,-1,0,-1,-1,0,-2,-1,-2
6.458292,1257,0,-1,0,-1,-1,-1,-2,-1
6.478694,1258,0,-2,-1,-1,-1,-2,0,0
6.478713,1259,-1,-1,-1,-1,0,0,-1,-1
6.480284,1260,-1,-1,-1,-1,-2,-1,-1,-2
6.480301,1261,-2,-2,0,-2,-1,-2,0,-3
6.492418,1262,2,-1,-1,-2,-3,0,-1,-1
6.492432,1263,-3,0,1,0,-1,-1,0,1
6.501616,1264,0,-1,0,0,0,-1,-2,-2
6.501634,1265,3,-1,-1,-1,0,-2,-1,-1
6.516197,1266,-3,0,-1,1,1,0,-1,-3
6.516220,1267,-2,0,-1,-3,-1,-1,-3,-1
6.517843,1268,-1,0,-2,-1,0,-1,-1,1
6.517855,1269,0,-1,-2,-1,-2,0,-1,0
6.538706,1270,-1,-1,-1,-1,-1,0,-1,-1
6.538721,1271,-1,0,-2,-2,0,-1,0,-2
6.540332,1272,-1,0,0,-2,-2,-1,-2,0
6.540352,1273,-2,-1,-2,0,0,-1,0,0
6.552402,1274,0,1,-1,-1,-3,-2,1,-2
6.552417,1275,1,-2,-1,0,-1,-1,-1,-2
6.561306,1276,1,0,-1,-2,-1,-2,0,-1
6.561360,1277,-1,0,-1,-1,1,0,-3,0
6.576274,1278,-3,0,-2,0,0,-2,-1,-1
6.576289,1279,-1,-2,-1,0,-2,-1,0,0
6.577696,1280,-2,-1,-2,0,-2,0,-1,-2
6.577715,1281,-1,0,0,1,-2,-1,0,-1
6.598679,1282,0,-2,-1,0,-1,0,-2,1
6.598698,1283,1,-2,0,0,-1,-1,-2,-2
6.600361,1284,-1,-2,-1,-1,0,-1,-1,1
6.600376,1285,-1,-3,-1,0,-2,0,-1,-1
6.612361,1286,-2,-2,-2,-1,-1,-1,0,-1
6.612382,1287,0,-1,-2,-2,-2,0,0,0
6.622194,1288,-2,-2,0,0,-1,0,0,-1
6.622205,1289,-1,0,-1,-1,-2,0,0,0
6.636240,1290,0,-1,-1,-1,-1,1,-1,-1
6.636261,1291,-2,-1,0,0,0,0,-1,-1
6.637860,1292,-1,-2,-1,-2,1,-2,-1,-1
6.637871,1293,-2,-1,-3,-2,-2,-3,0,-2
6.658715,1294,0,-1,-1,-1,-1,-1,0,-2
6.658730,1295,-1,0,-1,0,-1,-1,0,-1
6.660234,1296,-1,-2,-1,0,-3,0,1,-1
6.660249,1297,0,-1,-1,-2,-2,1,-1,0
6.672406,1298,0,-1,0,-2,-1,0,-1,-2
6.672427,1299,-2,0,-2,-2,0,-2,0,0
6.681377,1300,0,-1,-1,0,0,-1,-1,-1
6.681437,1301,-1,-1,-1,-1,0,-2,-2,0
6.696247,1302,-2,0,-1,-3,-1,-1,-1,0
6.696268,1303,0,-2,-2,-1,0,1,-2,0
6.697785,1304,-3,-2,-2,-1,-2,1,0,-1
6.697799,1305,-1,1,0,0,-1,0,0,-2
6.718826,1306,1,0,0,-1,0,0,-3,-2
6.718849,1307,0,-1,-1,-2,-2,0,-2,-1
6.720319,1308,0,-1,-2,-2,-1,-2,-2,0
6.720332,1309,-1,-1,1,-1,0,-2,-2,0
6.741911,1310,-1,-3,-2,-1,-1,0,-1,1
6.741924,1311,-2,-1,0,-1,-2,-1,0,-1
6.742760,1312,0,0,-2,-1,-2,-1,-2,-2
6.742768,1313,-2,-1,-2,-2,1,-1,1,-2
6.756268,1314,0,0,-1,-1,-2,-2,-2,1
6.756289,1315,0,-1,1,0,0,-2,-1,-2
6.758127,1316,-2,-1,0,0,-1,0,-1,1
6.758138,1317,-3,-2,-1,-1,-1,0,-1,0
6.779093,1318,-2,0,0,1,-2,-2,-1,0
6.780358,1319,1,0,-1,-1,-2,-1,-2,-2
6.780423,1320,1,1,1,0,-1,-3,-1,-1
6.780462,1321,-1,-2,-1,0,0,-1,-1,0
6.808824,1322,-2,-2,0,-1,0,-1,0,-1
6.808843,1323,-1,-2,0,-1,-3,-1,0,-1
6.810304,1324,-2,0,-1,-2,0,-2,-1,-1
6.810321,1325,-1,1,0,-2,-2,-1,-2,-1
6.815729,1326,1,-1,-1,-1,0,-2,0,-2
6.815755,1327,-1,-1,-2,-1,0,-3,0,-2
6.822439,1328,-2,-2,-2,-2,0,-2,1,0
6.822456,1329,0,0,-1,-1,-1,1,0,-1
6.838785,1330,-2,-2,-1,-2,-1,-2,-1,-1
6.838806,1331,-2,-1,-2,-3,0,-1,-2,1
6.840243,1332,0,-1,-1,0,0,-1,-2,0
6.840263,1333,-1,-1,-2,-1,-1,-1,-2,0
6.861616,1334,-2,-1,-1,0,-2,-1,-1,-1
6.861638,1335,1,0,-1,-1,-2,-1,0,-1
6.863602,1336,0,0,0,0,-1,-2,0,-1
6.863614,1337,-1,-1,-1,-1,0,-2,-1,-2
6.876212,1338,-1,0,-1,-1,-1,0,-1,0
6.876229,1339,-1,0,-1,0,-1,1,-1,-1
6.877775,1340,-1,1,0,-3,-2,-1,0,0
6.877813,1341,-1,-1,-2,0,-2,-1,-1,-2
6.898773,1342,-2,-1,-1,-3,-2,-2,-1,0
6.898826,1343,0,-1,0,-1,-1,-1,-3,-2
6.900163,1344,0,-2,0,-1,-1,1,-1,-2
6.900192,1345,1,-1,0,0,-1,0,-1,-1
6.921214,1346,1,-1,-1,-1,-1,0,-2,-3
6.921230,1347,-1,-1,-1,-2,1,0,-2,1
6.922863,1348,0,-3,0,-1,0,0,-4,-3
6.922880,1349,-1,-1,-1,-3,-1,-1,-1,-1
6.935581,1350,-1,0,-1,-1,0,-1,-2,-1
6.935596,1351,-2,-2,-2,-3,0,-1,1,-1
6.942572,1352,-2,-2,-1,-1,-2,-2,0,-1
6.942593,1353,-1,-3,-2,-2,-1,0,-1,-1
6.958795,1354,-2,-1,-1,-1,0,0,0,-1
6.958816,1355,-2,-1,0,0,-1,-1,0,-2
6.960537,1356,-1,-1,-1,-1,-2,0,0,-1
6.960550,1357,-1,0,-1,-1,-1,-1,-1,0
6.981228,1358,0,-1,-1,-1,-1,0,1,-1
6.981249,1359,-1,0,0,0,-3,-1,-2,-1
6.982681,1360,-1,-2,-2,0,-2,-2,0,-1
6.982697,1361,0,-2,0,-1,-2,-2,-3,-1
6.995515,1362,-1,-1,0,-1,0,-1,0,0
6.995534,1363,-1,0,-2,0,0,-1,-1,-1
7.002391,1364,-1,-2,0,-1,-1,0,-1,-1
7.002412,1365,-1,-1,-1,-1,-1,-1,0,-1
7.018710,1366,-1,-1,-2,-2,0,-1,0,-2
7.018731,1367,0,-1,0,-1,-1,-1,0,-2
7.020382,1368,0,1,-1,-1,-1,-2,-2,-2
7.020403,1369,0,0,-1,-1,-2,-1,0,-1
7.042611,1370,1,0,0,1,-1,-2,0,-1
7.042623,1371,0,0,-1,-2,-1,0,-2,0
7.042759,1372,0,0,0,0,-1,1,0,-1
7.042799,1373,-2,-1,-1,-2,-1,-2,0,-1
7.055542,1374,-1,-3,0,0,-2,-1,-1,-1
7.055560,1375,-3,0,0,0,-1,-2,-2,-1
7.069883,1376,0,0,-1,-1,0,0,-1,1
7.069899,1377,-1,-1,0,-1,-2,-1,0,-2
7.078883,1378,0,0,-1,0,-2,-3,-1,-1
7.078905,1379,-1,-1,-1,-1,1,-1,0,-1
7.080277,1380,0,-1,0,-3,-2,0,1,0
7.080289,1381,-1,-1,0,0,0,0,-1,-1
7.101330,1382,-1,1,0,-2,0,0,0,-1
7.101351,1383,0,-1,-3,-1,-1,0,-1,0
7.103069,1384,0,-1,-2,-1,-1,-1,0,0
7.103079,1385,-1,1,0,0,0,0,0,-2
7.115580,1386,-2,-1,0,-1,0,1,-2,-2
7.115602,1387,0,-1,0,0,-1,-2,-2,-2
7.122344,1388,-2,1,-1,-3,-1,-2,-1,-1
7.122398,1389,-1,-1,-1,1,-1,-1,-2,-1
7.138616,1390,0,-2,-2,-1,-1,-2,0,-1
7.138632,1391,0,-1,0,-2,-2,-1,0,1
7.140270,1392,-1,0,-2,1,-1,-2,-1,-1
7.140317,1393,-1,-1,-2,-1,-1,0,1,-1
7.161360,1394,0,0,-1,0,-2,1,0,-1
7.161383,1395,-1,-1,0,1,1,-1,0,0
7.162894,1396,-1,0,-1,-1,-3,-2,0,-2
7.162912,1397,-1,0,1,-1,-1,0,-2,0
7.175798,1398,-2,-3,-2,-2,-1,-1,-2,0
7.175819,1399,-1,0,0,-1,0,-1,0,-1
7.186707,1400,-1,-2,-1,0,-2,-1,-1,-2
7.186808,1401,-2,0,-2,-1,-3,-1,-1,-2
7.199294,1402,-1,-1,-1,-2,0,-2,-2,-1
7.199310,1403,-1,0,-2,1,-2,-2,0,-1
7.200401,1404,-2,-2,0,-1,0,-1,0,0
7.200424,1405,1,-2,-1,-2,1,-2,-2,-2
7.221395,1406,-2,-1,0,0,-2,-1,-1,0
7.221417,1407,-1,-1,-1,0,-1,-2,0,0
7.222912,1408,0,-2,1,0,-1,0,-2,0
7.222932,1409,-2,-2,-1,-1,-1,-3,1,1
7.235718,1410,0,-1,0,1,-2,1,0,-1
7.235745,1411,0,-2,-1,-2,-1,-1,-2,-2
7.242496,1412,-1,0,-1,-1,-2,-2,-1,0
7.242517,1413,0,-2,-2,-2,-1,-2,-3,0
7.258892,1414,-1,0,1,-2,0,-2,-2,-1
7.258918,1415,-2,0,-3,0,-2,-2,-2,-1
7.260596,1416,0,-1,0,-1,0,-1,0,-2
7.260614,1417,-1,1,-1,-1,-1,-2,-2,-3
7.281362,1418,-1,-1,-2,-2,-1,-1,-1,-2
7.281381,1419,-1,-1,-1,-1,-1,-1,-1,0
7.283149,1420,-1,-2,-1,-1,-1,0,-2,-2
7.283166,1421,-2,-4,0,-2,-1,-2,0,-1
7.294915,1422,-2,-1,-1,-3,-1,0,-1,0
7.294935,1423,0,0,1,-1,-1,0,0,0
7.304375,1424,0,-3,-3,-3,0,1,0,-1
7.304387,1425,-1,-1,-1,0,-1,-2,-1,-1
7.318731,1426,0,0,-1,0,-3,-2,-3,-1
7.318752,1427,-2,-1,-3,0,-1,-2,0,0
7.320323,1428,-2,-1,0,-2,1,-3,0,0
7.320386,1429,1,-1,-1,-2,-1,1,-1,0
7.348944,1430,-1,-1,-1,0,-1,-1,1,0
7.348962,1431,-1,-1,0,-1,0,1,0,-2
7.350466,1432,0,1,0,0,0,0,1,0
7.350477,1433,-1,-1,-1,-2,-1,0,1,-3
7.355027,1434,-2,-1,-2,-1,-2,-1,-1,-2
7.355053,1435,1,-2,-1,-2,-1,-1,-1,-2
7.364592,1436,-1,-1,-2,0,0,0,-2,-1
7.364605,1437,-2,-2,1,-1,-1,-2,-2,0
7.378698,1438,0,1,1,0,1,0,-1,-1
7.378718,1439,-1,-1,-2,-1,-1,0,-2,0
7.380380,1440,0,0,-1,-2,-2,-1,-3,0
7.380447,1441,0,0,-1,1,-1,0,-2,-1
7.401998,1442,0,-2,-1,-1,0,-1,-2,0
7.402010,1443,-2,-1,-1,0,-1,-2,-2,-4
7.402688,1444,-3,1,-1,-2,-3,-2,-1,-2
7.402704,1445,-1,-1,-1,-2,-1,-1,-1,-1
7.414840,1446,-1,0,-2,-1,0,-2,0,-1
7.414856,1447,-1,0,0,-1,-1,-2,-1,1
7.424749,1448,0,-1,-1,-1,-1,-1,-1,-1
7.424763,1449,-2,-2,-1,-1,-1,-1,0,-1
7.438823,1450,0,0,0,-1,0,0,0,-2
7.440186,1451,1,-1,-2,-1,1,-1,-1,-1
7.440459,1452,-2,-2,-1,0,-1,0,-2,-2
7.440477,1453,-1,-1,-1,0,-1,-1,-2,0
7.461255,1454,-1,0,-1,-2,-1,1,0,-1
7.461271,1455,1,-2,-1,-1,0,-2,-2,-1
7.462770,1456,-1,0,0,-1,-2,0,-2,-2
7.462787,1457,-3,-1,-1,-1,-1,-1,0,-2
7.474836,1458,-2,-2,-3,-1,0,0,-1,-1
7.474853,1459,-1,-1,0,-1,-2,0,-1,-1
7.484141,1460,0,0,0,0,-1,-2,0,0
7.484152,1461,-2,0,-2,0,-2,0,1,-2
7.498688,1462,-1,0,0,-1,-1,-1,-2,-2
7.498703,1463,-3,1,-1,-2,-2,0,-2,-1
7.500365,1464,1,-3,-1,0,1,-2,1,0
7.500384,1465,1,-1,-1,0,-2,0,-3,-2
7.522071,1466,-1,-1,0,0,-1,-1,0,0
7.522105,1467,-1,1,-1,0,-3,-1,1,-2
7.523737,1468,-1,-1,-2,0,0,-1,-2,0
7.523748,1469,0,-1,-2,0,0,-1,-1,-1
7.534965,1470,0,-2,0,-2,-4,-1,0,-1
7.534983,1471,0,-1,1,-1,-1,1,-2,-1
7.551646,1472,-1,1,-1,-2,-1,1,-1,-2
7.551657,1473,-2,-1,-1,0,0,0,-1,1
7.557910,1474,-2,-1,-2,-3,1,-2,-1,-2
7.557928,1475,-2,-1,-1,0,0,-3,-1,-1
7.566891,1476,-2,-1,-1,-1,-2,0,-2,0
7.566902,1477,0,0,-1,-2,0,0,-1,-1
7.581312,1478,-1,-2,-1,-1,-1,-1,-2,-2
7.581330,1479,0,-1,-1,-2,-3,0,0,-2
7.583180,1480,0,-1,-1,-1,-2,-2,-1,-1
7.583190,1481,0,1,1,-2,-1,-1,0,-1
7.594918,1482,1,1,-2,1,-2,0,-1,1
7.594954,1483,-1,-2,-1,-2,-1,-2,-1,0
7.604186,1484,-2,-1,0,0,-3,-2,-1,-2
7.604196,1485,-2,-1,-1,0,-1,-2,-1,-1
7.626290,1486,-2,-1,0,0,-1,0,-2,-2
7.626310,1487,-1,0,0,1,0,-1,-1,0
7.627787,1488,-1,-2,0,-1,-2,-1,-1,0
7.627855,1489,-2,0,-2,-2,-1,-2,-1,0
7.641143,1490,0,-1,-1,-1,-1,-1,-1,0
7.641159,1491,1,-1,-1,0,-1,-2,-1,-2
7.642892,1492,-2,0,-2,-2,0,-2,0,0
7.642910,1493,0,-2,-1,-1,-2,0,0,0
7.654934,1494,1,-2,-2,0,-1,-1,-1,-1
7.654952,1495,-2,0,-1,-1,-2,-1,-2,-1
7.664925,1496,1,-1,-1,-1,0,1,0,-1
7.664938,1497,0,0,0,-2,-1,-1,1,0
7.678658,1498,0,-1,-2,0,-1,-2,-1,-2
7.678677,1499,-2,-1,-2,-2,-1,-2,-3,-2
7.680296,1500,-1,0,-1,-1,-1,-2,0,-1
7.680355,1501,0,-1,1,-1,0,0,-1,-2
7.701168,1502,-1,-1,-1,-1,-1,0,-2,0
7.701182,1503,-2,0,-1,0,-1,-1,-1,0
7.702685,1504,-2,2,-2,-1,-2,-1,-2,-1
7.702724,1505,-2,-1,-2,0,-1,-1,0,-1
7.723674,1506,0,0,-1,-1,-1,0,0,-1
7.723690,1507,0,-1,-1,-2,-1,-1,-1,0
7.725562,1508,0,-2,-1,0,-1,-1,0,-1
7.725574,1509,0,-2,0,-1,-3,-1,-2,1
7.738756,1510,-2,0,0,-1,-1,0,-1,-1
7.738776,1511,-2,-1,0,0,1,-1,-1,0
7.740268,1512,1,-1,0,-1,0,-2,-2,0
7.740310,1513,-1,-2,-2,-1,-1,-2,-1,-1
7.761369,1514,-1,-1,-1,-1,-2,-1,-1,-2
7.761390,1515,0,0,-3,0,0,0,0,-1
7.763103,1516,-3,-2,-1,-1,-1,-2,-2,-3
7.763117,1517,-1,-1,-1,-1,-2,-2,-3,-1
7.783764,1518,-2,0,-1,-2,-1,-3,-1,-1
7.785343,1519,-2,-3,-1,-1,-1,-1,-1,0
7.785355,1520,-3,-1,-1,-1,-1,0,-2,-2
7.785357,1521,-1,1,-1,-1,-1,0,-1,1
7.799150,1522,-1,-2,-1,0,-1,-2,-2,0
7.799187,1523,0,-2,1,-3,0,-1,0,-1
7.800861,1524,2,-1,-2,-2,-2,0,-1,-1
7.800884,1525,-2,-1,-2,-2,-1,-1,0,-2
7.828677,1526,-3,1,0,-2,-1,-2,-1,-1
7.828701,1527,-1,-1,-2,-1,0,-2,1,-2
7.830372,1528,-2,-2,0,-1,0,-1,0,0
7.831236,1529,-1,-2,-1,0,-1,-1,0,-2
7.844050,1530,-1,-1,-3,0,-1,0,-1,-1
7.844073,1531,-1,-2,0,-1,-2,-1,-1,-1
7.845300,1532,0,0,0,-1,-1,-1,1,1
7.845314,1533,-3,0,-1,1,-3,-1,-1,-1
7.858012,1534,-2,0,1,0,-2,-1,-1,-1
7.858028,1535,-2,0,-2,-3,-2,-1,-2,0
7.865035,1536,-2,-1,-1,-2,-1,-2,-1,-2
7.865060,1537,0,0,0,-1,-1,0,-2,-1
7.881184,1538,-1,-2,0,-1,-1,-1,-1,0
7.881201,1539,1,-1,0,0,-2,-1,0,0
7.883117,1540,0,-2,0,0,0,0,-1,0
7.883253,1541,1,-1,-1,0,-2,-2,-1,-2
7.903693,1542,-2,-1,-1,0,-1,0,0,-1
7.903713,1543,0,-1,-2,-1,-1,-1,0,0
7.905347,1544,-2,0,0,-1,-2,0,0,0
7.905375,1545,-2,-1,0,0,1,-2,-2,-1
7.918891,1546,0,-1,-2,-1,-2,1,0,-1
7.918903,1547,-1,-2,-1,-1,0,0,0,-1
7.925058,1548,1,-1,-1,-1,0,0,-2,-2
7.925085,1549,-2,-1,-2,-1,-1,0,-1,-1
7.941294,1550,0,0,-2,-1,-1,-1,-2,-1
7.941312,1551,-1,0,-2,0,-2,1,-1,-1
7.942937,1552,-1,-2,-2,-1,0,0,-1,0
7.942947,1553,-1,-2,-1,-2,0,0,0,0
7.963761,1554,-2,-1,-1,-1,-2,-2,0,-2
7.963777,1555,0,-1,-2,0,-1,-2,-1,0
7.965476,1556,-1,0,0,-1,-2,-1,-1,-1
7.965487,1557,-1,-2,-1,-3,-1,-1,0,0
7.977998,1558,2,0,0,0,0,-1,-1,1
7.979330,1559,1,-2,0,-1,-1,-1,-1,-1
7.984900,1560,-1,-1,-1,-2,-2,0,-1,-3
7.984922,1561,-2,0,-1,-1,-2,-1,0,1
8.001527,1562,-1,-1,-1,0,1,-1,-2,-1
8.001598,1563,-2,-1,-1,-1,-1,-1,-2,0
8.003606,1564,0,-1,-2,-1,-2,-1,-1,0
8.003618,1565,0,-3,-3,-1,0,-1,-2,-1
8.024130,1566,-1,-1,0,-2,-1,0,-1,-1
8.025773,1567,-1,-2,-1,-1,-1,-2,0,0
8.025784,1568,-1,-3,0,0,-1,-1,-1,-1
8.025786,1569,-1,1,0,-3,-3,1,1,-1
8.038210,1570,-1,-2,-1,-1,0,-2,0,0
8.038228,1571,0,0,0,-2,-1,-3,-2,-2
8.044874,1572,-1,-1,-1,-1,0,0,1,-1
8.044891,1573,-1,-1,0,-1,-1,0,-1,-1
8.061250,1574,-1,-2,0,0,-1,-2,-1,-1
8.061273,1575,-1,0,-1,-2,0,1,-1,-2
8.062779,1576,0,-1,0,1,0,-3,-1,0
8.062802,1577,0,-1,0,-1,-1,-3,-2,-1
8.083715,1578,-1,0,-1,-2,-3,1,0,-1
8.083736,1579,-2,0,-3,-2,-1,-1,-1,-3
8.085384,1580,-1,1,-1,1,-1,-2,-2,-3
8.085477,1581,1,-1,-1,0,0,0,-2,-1
8.106264,1582,1,-1,0,-1,-2,0,-1,-2
8.106306,1583,0,-1,0,0,-2,-2,0,0
8.107814,1584,0,-1,-3,-2,-3,-2,-1,-1
8.107833,1585,-1,-2,0,-1,-2,-1,-2,-2
8.121764,1586,-2,0,0,0,-2,0,-1,-2
8.121816,1587,-3,-1,-1,-1,0,0,-2,-1
8.123151,1588,-1,-2,-2,-2,-1,-2,-1,-1
8.123164,1589,0,-1,-1,0,-2,-2,1,0
8.143667,1590,-1,-2,-3,-2,-1,-2,-1,0
8.143691,1591,-1,-2,-1,-2,-2,-1,0,-2
8.145413,1592,-1,0,1,-2,-1,-3,-2,0
8.145433,1593,-1,0,0,0,-2,0,0,-1
8.158032,1594,0,-1,-1,0,-1,-1,0,1
8.158049,1595,-2,0,-1,-1,-2,-1,0,0
8.164805,1596,1,-1,-1,-2,-1,1,0,0
8.164822,1597,-1,-1,-3,0,2,0,-1,-2
8.181817,1598,-1,0,0,0,-2,-2,-1,-1
8.181862,1599,-2,1,0,-1,0,0,-2,0
8.184235,1600,-2,-2,-2,0,1,0,0,-3
8.184281,1601,-1,0,-1,-2,-1,-2,-1,0
8.204180,1602,-1,1,0,1,-1,-2,-3,-1
8.204215,1603,-1,-2,-1,0,1,-1,1,-2
8.206071,1604,-2,-1,-2,0,-1,-1,-2,0
8.206082,1605,-1,-1,-1,-2,-3,-2,0,-2
8.217324,1606,-1,-1,-1,-3,0,0,1,0
8.217341,1607,1,-1,0,0,-3,-3,-1,-1
8.227025,1608,0,-1,-1,-2,-2,-1,-1,0
8.227038,1609,0,-1,0,-1,1,1,-3,-2
8.241271,1610,-1,-1,-2,-3,-2,-3,-2,0
8.241287,1611,-1,-1,0,0,0,-1,-1,-1
8.242698,1612,-1,-1,-2,-2,-1,-1,-1,-1
8.242712,1613,0,0,-2,-1,-2,-1,-2,0
8.263630,1614,-1,-2,0,-2,0,-1,-2,-2
8.263645,1615,1,-1,-2,-1,-2,0,0,1
8.265301,1616,-1,0,-1,-1,-2,-2,-1,-1
8.265322,1617,-1,-2,-1,-1,0,-2,-1,-1
8.278880,1618,0,0,0,-2,-2,0,-2,-2
8.278897,1619,0,-1,-1,-1,-1,-2,-1,-1
8.287591,1620,-1,0,0,0,-1,0,0,-1
8.287603,1621,-1,-1,0,-1,-1,-2,1,0
8.301383,1622,-2,-2,0,-1,0,-1,-3,-1
8.303071,1623,-2,-1,-1,-2,0,-1,-1,-1
8.303141,1624,1,0,-1,-1,-1,-2,-1,-2
8.303207,1625,-1,0,0,0,-1,0,-1,-1
8.324691,1626,-2,-1,-2,-1,0,-1,-3,1
8.324701,1627,-1,-2,-2,-2,-2,0,0,-2
8.325247,1628,0,-1,-1,-2,-1,-1,-1,-1
8.325262,1629,-1,-1,-1,-2,-1,-2,0,0
8.337450,1630,-2,-2,-1,1,-3,-1,0,-1
8.337471,1631,-3,-1,0,-1,-2,0,-3,-1
8.346641,1632,-2,-1,0,-1,-1,-1,-3,-1
8.346652,1633,0,0,0,-2,0,0,0,-1
8.361551,1634,0,0,-1,0,0,0,0,-2
8.363608,1635,-1,-2,-1,-1,-2,-1,0,-2
8.363619,1636,-1,-1,0,1,-3,0,1,-2
8.363621,1637,-2,-1,-1,0,-1,-1,-1,0
8.385986,1638,0,-2,-1,-1,1,-2,0,0
8.386004,1639,0,-2,0,0,0,-1,0,-1
8.386008,1640,0,-1,0,0,0,-2,-2,0
8.386011,1641,-2,-2,-2,-1,-1,-2,0,0
8.397450,1642,0,-1,-1,-1,-1,1,0,-1
8.397472,1643,-1,0,-1,0,-2,-1,-1,-1
8.406495,1644,-1,-2,-1,0,0,-1,-1,-1
8.406508,1645,1,-1,0,-1,-1,0,-2,-3
8.421191,1646,-2,1,-3,-2,-3,-2,0,-1
8.421209,1647,0,-1,-2,1,0,-1,-2,0
8.422893,1648,-2,1,0,0,-2,-1,-1,-1
8.424079,1649,-2,-1,-3,-1,-1,0,0,-1
8.444149,1650,-1,-2,-2,-1,-1,0,-1,0
8.444184,1651,-1,0,-2,-1,-2,-2,-1,0
8.445470,1652,-2,0,-3,-2,-1,0,1,0
8.445479,1653,-1,1,0,0,0,-1,-2,-2
8.457273,1654,0,0,0,-1,-1,-1,-2,-2
8.457294,1655,-1,0,-1,-1,-1,-1,0,-1
8.466300,1656,0,-1,-1,-2,0,0,-1,-1
8.466319,1657,1,-1,0,-1,0,-1,0,-1
8.481333,1658,0,-2,-1,-1,0,1,0,0
8.481355,1659,0,-1,0,-1,-1,-1,-1,-2
8.482645,1660,-2,-1,-1,-1,-1,-2,-1,0
8.482705,1661,-2,-1,0,-1,-1,-2,-2,-1
8.503756,1662,-1,0,0,0,0,-3,-1,-2
8.503772,1663,-1,-1,0,-1,1,-1,-1,-3
8.505460,1664,0,-2,-1,-4,-2,-2,1,1
8.505526,1665,-1,1,-1,-1,-1,0,-1,-1
8.517605,1666,0,-1,-1,0,-2,-1,-2,-2
8.517640,1667,-1,0,-2,-1,-2,0,-2,-1
8.527891,1668,0,-2,-1,0,-3,0,-1,-1
8.527907,1669,0,-3,-1,0,0,-1,-2,-1
8.541306,1670,-1,-2,-1,-1,-1,-3,0,0
8.541334,1671,-3,-1,-1,-1,-2,1,-1,0
8.543404,1672,-3,0,0,-1,1,-1,-2,-2
8.543605,1673,0,0,-1,-1,-1,-1,1,-1
8.563679,1674,-1,1,-1,0,-1,0,-2,-2
8.563700,1675,1,-2,0,-2,0,0,1,-1
8.565257,1676,-1,-2,0,0,-3,-3,0,0
8.565280,1677,-1,-3,-1,-2,-1,-1,-1,0
8.577356,1678,-1,0,-1,-1,-1,-2,-1,0
8.577374,1679,-1,-1,0,0,-1,-2,-2,0
8.587241,1680,0,-2,-1,-1,0,0,0,0
8.587252,1681,-1,0,0,-1,-2,-2,0,-1
8.601239,1682,-1,-1,-1,-3,0,-1,-2,0
8.601256,1683,-1,0,-1,-1,-2,-1,0,0
8.602706,1684,0,-1,-2,1,-1,0,-2,0
8.602728,1685,0,-1,-2,-2,-1,0,-1,-1
8.623653,1686,-1,-1,1,-1,1,-2,-1,-2
8.623670,1687,-1,0,-1,-1,-1,0,-2,-2
8.625173,1688,0,0,-2,-1,-2,-1,-1,-1
8.625196,1689,-1,0,-1,-2,-2,-2,-1,0
8.646220,1690,-2,-1,-1,-1,-1,0,-1,-1
8.647571,1691,-1,-1,0,0,-1,-2,-2,-2
8.647775,1692,0,-1,0,-1,-2,-1,0,-3
8.647788,1693,-2,-2,0,-1,0,-2,0,-1
8.661469,1694,0,-2,-1,0,-2,-1,1,0
8.661495,1695,-1,-1,-1,0,-1,-3,0,0
8.662967,1696,-2,0,0,-2,0,0,-1,-2
8.662977,1697,0,-1,-2,-1,-1,-1,-2,-2
8.684735,1698,1,-2,0,-2,-2,-1,0,-2
8.684751,1699,-2,-1,0,0,0,0,1,-1
8.685284,1700,-1,0,-3,-1,-3,0,-2,-1
8.685343,1701,0,1,-2,0,0,-1,1,-2
8.706273,1702,-2,-2,-2,-2,-2,-1,0,0
8.706291,1703,-1,0,-1,0,0,-2,-1,1
8.707698,1704,-2,-1,-1,-1,-1,-1,1,-1
8.707716,1705,-1,1,-1,0,-2,-1,0,0
8.722052,1706,-3,-2,0,0,-3,-1,-1,-1
8.723296,1707,0,0,-2,-1,-1,0,-2,0
8.723307,1708,-2,-2,0,0,0,0,0,-1
8.723309,1709,-1,-1,0,0,-1,-1,-2,0
8.751906,1710,1,0,-1,1,-1,-2,-1,-2
8.751924,1711,-1,-1,-1,-1,-1,0,-1,1
8.752734,1712,0,0,-1,-1,-1,0,0,0
8.752753,1713,-1,-1,0,0,-2,-1,-1,0
8.766227,1714,-1,-1,-1,-3,0,-1,-1,1
8.766251,1715,0,0,0,-1,0,-2,-3,-3
8.767959,1716,1,-2,-1,-1,-3,0,-2,0
8.767976,1717,-3,0,0,-1,-1,1,-2,0
8.781202,1718,0,-1,-1,0,-2,1,1,0
8.781218,1719,0,-2,-1,-2,0,-1,0,-1
8.782877,1720,0,-1,-1,-1,0,-1,-2,-1
8.782948,1721,-1,-2,0,-1,-3,-1,0,-2
8.803718,1722,-2,0,-1,-1,0,-1,0,-2
8.803741,1723,-1,-3,-1,-2,-1,-1,0,-2
8.805146,1724,-1,0,0,-1,-1,-1,-1,-1
8.805167,1725,-2,-1,-2,-2,-1,-1,0,-1
8.826281,1726,-2,1,-2,0,0,-1,-2,-2
8.826334,1727,-1,-1,0,-1,-1,-1,0,1
8.827939,1728,-1,0,-1,-1,-1,-2,0,0
8.828000,1729,1,-1,-1,-2,1,-1,-1,0
8.841131,1730,0,-1,0,-1,-2,-1,-2,2
8.841141,1731,-2,0,0,-1,-1,-1,0,-1
8.847416,1732,0,-1,-2,-1,-1,-1,-1,-1
8.848496,1733,-2,0,-3,-1,0,-3,0,-1
8.863667,1734,-2,0,-1,-2,-1,0,1,0
8.863683,1735,-1,-1,-2,0,-1,-1,-1,-1
8.865392,1736,-2,1,-1,-1,-1,-3,0,-1
8.865410,1737,-1,-1,-3,0,-1,-1,0,-1
8.886585,1738,0,-2,-1,-1,-1,-2,-2,-3
8.886599,1739,-1,-1,-1,0,-2,-2,0,-2
8.892787,1740,-2,-2,0,-1,-1,0,-2,-1
8.894159,1741,1,-2,-2,-1,-2,-1,-3,-1
8.900540,1742,-2,-1,-2,-1,0,-2,-1,-1
8.900557,1743,-1,0,-1,-1,-2,-1,0,1
8.907407,1744,-1,-2,-1,-2,0,-1,-1,-1
8.907430,1745,-1,-1,-1,-1,-1,0,0,1
8.923992,1746,0,-1,0,-1,-3,0,-2,-3
8.924013,1747,0,-1,-2,-1,-1,-2,-1,-1
8.925518,1748,-2,0,-1,0,0,-1,0,-1
8.925530,1749,0,-2,-1,0,0,-1,-1,-1
8.953936,1750,1,0,-1,-1,0,-2,0,-1
8.953976,1751,0,-2,-2,0,-1,-1,0,-1
8.955235,1752,0,0,-1,0,0,-2,-2,-2
8.955249,1753,-1,-1,-2,-2,-1,-1,0,-1
8.960709,1754,-1,-1,-2,-1,-1,-1,-3,-1
8.960730,1755,-3,-1,-1,-1,-1,0,-1,-1
8.967681,1756,-1,-2,-1,1,-2,-2,0,1
8.967703,1757,0,-1,0,0,-2,0,-1,-1
8.983651,1758,-1,0,-1,0,-2,1,-1,1
8.983667,1759,1,0,1,-1,-1,-1,-2,-2
8.985209,1760,-1,0,0,-1,0,-1,-2,0
8.985222,1761,-2,0,-1,-1,-1,-2,-1,-2
9.006592,1762,-1,0,1,-1,-2,-1,0,-2
9.006622,1763,-1,-1,-2,-2,-2,-1,-3,-1
9.008195,1764,-1,0,-1,-2,-1,0,0,-1
9.008209,1765,-2,-1,-1,-1,-2,-3,-2,-2
9.028680,1766,-2,-1,0,-1,-1,0,-1,-1
9.028695,1767,-1,-2,0,0,-1,-3,1,-1
9.030296,1768,-1,-1,-2,-1,-1,-1,-1,-1
9.030317,1769,-1,0,-1,0,-2,0,-1,1
9.043863,1770,1,-2,-2,-2,-1,0,-2,-1
9.043880,1771,-1,-1,-1,-1,-1,-1,-2,1
9.045182,1772,0,-2,-1,-1,0,0,-1,-1
9.045197,1773,0,0,-1,-2,-1,-1,-2,-1
9.066184,1774,0,-1,0,-2,-2,-2,-2,1
9.066205,1775,0,-1,-1,0,-1,0,-2,-2
9.067721,1776,-2,-1,0,-1,-1,-1,0,-2
9.067739,1777,-2,-1,0,0,0,0,-1,0
9.080757,1778,-2,-1,0,0,0,-1,-1,-2
9.080799,1779,-2,0,-1,-2,-1,-1,-2,2
9.087670,1780,-2,-1,-2,0,-1,0,0,-3
9.087682,1781,0,0,-1,-2,-3,-2,-1,-1
9.104098,1782,-2,-1,-2,-1,-1,-1,-2,-3
9.104126,1783,-1,-1,0,-1,-1,-1,0,-1
9.105838,1784,-1,-2,-1,-1,-1,-1,-2,0
9.105850,1785,-1,-1,-2,-2,-2,1,0,0
9.126963,1786,-1,0,0,0,-1,-1,-1,0
9.126995,1787,-1,0,-2,-2,-1,0,-1,-2
9.128733,1788,-1,0,-1,-1,-1,-2,-1,1
9.128744,1789,0,-1,-1,-1,1,-2,0,-1
9.139849,1790,-2,-2,-1,-1,-1,-1,-2,-1
9.139862,1791,-1,-1,-1,-2,-2,0,0,-3
9.149705,1792,-2,-1,0,-1,-1,-1,-2,-1
9.149715,1793,0,-1,-2,0,-1,-1,0,1
9.163906,1794,-1,0,-2,-1,-1,-1,-1,-2
9.163923,1795,-1,0,0,-1,0,-1,0,-2
9.165122,1796,0,-1,0,-2,-2,0,-1,-1
9.165161,1797,0,0,0,-3,-1,-2,-1,-3
9.186282,1798,0,-1,-2,-1,-2,0,-1,-2
9.186302,1799,-1,-1,0,-1,-2,0,0,-1
9.187727,1800,-1,-1,0,-2,-1,-3,-1,-1
9.187792,1801,-1,-1,0,-1,1,-1,-1,-1
9.199801,1802,-2,0,0,-1,0,-2,-1,1
9.199817,1803,-1,-1,-2,-1,-2,-1,-1,-2
9.209547,1804,-1,-1,-1,-1,-2,-2,-1,0
9.209557,1805,-1,0,0,0,0,-1,-1,-2
9.222857,1806,-1,-1,-1,1,0,-1,1,0
9.224170,1807,-1,1,0,0,-2,-1,0,1
9.231343,1808,0,0,-2,-1,-1,0,-1,-1
9.231359,1809,0,-2,0,-1,0,0,0,-1
9.246253,1810,0,1,-1,-2,-2,-1,-1,0
9.246266,1811,-2,-1,-2,-1,-1,-1,-2,-2
9.247656,1812,-2,-3,-1,0,-2,1,0,-1
9.247698,1813,-1,-1,-1,-1,-2,-2,-1,-2
9.261187,1814,-1,-2,0,-1,0,0,0,-3
9.261198,1815,0,-3,0,-1,-1,0,0,0
9.268912,1816,-1,-1,-1,0,-1,-2,-1,-2
9.268972,1817,0,-1,-1,-2,-2,-2,-1,0
9.283771,1818,1,-1,-1,0,-3,-1,-1,-1
9.283791,1819,-2,-2,-2,0,-1,-2,-1,0
9.285215,1820,-2,0,1,-1,-1,-1,-2,0
9.285234,1821,-3,-1,-1,0,-2,0,-1,-1
9.308484,1822,-1,-1,0,-2,-2,0,-1,1
9.308498,1823,0,-1,0,-1,-1,-1,-3,-2
9.308501,1824,0,0,-1,0,-1,-2,-1,-2
9.308503,1825,-1,-1,-1,0,0,0,-2,-1
9.329185,1826,-2,-1,-1,-1,-1,-1,-1,-2
9.330993,1827,-2,-1,0,-3,0,-2,0,-1
9.331006,1828,-1,0,0,-1,-1,-2,-1,0
9.331008,1829,-2,-1,-1,1,-1,-2,0,-1
9.343811,1830,-1,-2,0,0,1,0,0,-2
9.343828,1831,-1,0,0,-1,-1,-2,-1,-1
9.345385,1832,0,-1,-3,-2,0,-1,-2,-2
9.345404,1833,-1,-2,0,-2,0,-1,0,0
9.365580,1834,-1,-1,-1,-1,-2,-1,-1,0
9.366585,1835,-2,-1,-1,0,-1,-1,0,-1
9.366597,1836,-1,-2,0,-2,-2,0,-1,-2
9.366599,1837,-1,-2,-1,-1,-2,-1,-1,-2
9.388062,1838,-1,-1,-2,-1,-2,0,0,-1
9.388174,1839,0,-1,-4,-2,-1,-1,0,0
9.388865,1840,0,-2,-2,-1,-1,-1,1,-2
9.388881,1841,-1,0,-1,-1,0,0,-1,-1
9.403061,1842,-1,0,-1,-1,-1,-2,-2,0
9.403084,1843,0,-3,0,1,0,0,-1,-2
9.404053,1844,-1,0,-1,1,-1,-1,-2,-1
9.404064,1845,0,0,-1,-1,-1,-1,-1,0
9.425669,1846,-2,-1,-2,-1,-1,-2,0,0
9.425686,1847,0,-1,0,-1,-1,1,-1,0
9.426723,1848,-1,-1,-2,-2,-1,-2,-1,0
9.426733,1849,-2,-3,0,0,-1,-2,-1,-1
9.449003,1850,-1,1,-2,0,-1,-1,-1,-2
9.449014,1851,0,-1,-2,-4,-1,0,-1,-1
9.449015,1852,-1,-1,-1,-1,-1,0,-1,-1
9.449017,1853,0,1,-2,-1,0,0,1,-1
9.463052,1854,-1,0,-1,0,0,-3,-1,1
9.463069,1855,-1,-1,-1,1,-1,-2,-1,-1
9.464748,1856,-1,1,-1,-2,0,-2,-1,0
9.464762,1857,0,-1,0,0,0,-1,-2,-2
9.485635,1858,0,0,-1,0,-1,1,0,-1
9.485672,1859,-2,-1,-1,-2,-2,-2,-2,-2
9.486548,1860,-2,-1,-1,-1,-2,0,-1,-1
9.486640,1861,-3,0,0,0,0,-1,-1,-1
9.508798,1862,0,-1,0,0,-1,-1,0,0
9.508831,1863,-1,-2,-2,-1,0,-3,-1,1
9.509772,1864,0,-2,-1,0,0,-1,0,-2
9.509783,1865,1,-1,-2,-1,-2,-1,-1,-1
9.523052,1866,-1,1,-1,-1,-1,-2,0,-2
9.523072,1867,-1,0,0,0,-2,0,-1,1
9.524274,1868,0,-2,-1,-2,-1,-2,-2,-2
9.524285,1869,0,-2,-2,0,-2,0,-4,-1
9.545615,1870,0,-1,-2,-1,-1,-1,-3,-3
9.545649,1871,0,0,-2,-1,-3,-1,-1,0
9.546554,1872,0,0,-1,-1,0,-2,-1,-2
9.547660,1873,-1,-1,1,-1,-1,-3,-1,-1
9.568230,1874,-3,-1,-1,-2,0,0,0,0
9.568253,1875,-2,0,0,0,-1,-2,0,-2
9.569892,1876,-1,0,0,-1,-2,0,0,0
9.569902,1877,0,-1,0,-3,-1,0,1,-1
9.585847,1878,-1,-3,-2,-1,-1,-2,-1,-1
9.585858,1879,-2,-1,-2,-1,-1,-2,-2,-1
9.585860,1880,0,-1,-1,1,-1,-1,0,-1
9.585861,1881,1,0,-1,-3,-1,0,-1,-1
9.613865,1882,-1,-1,0,-2,-1,-2,-1,-1
9.613892,1883,-1,-2,0,-1,1,-1,0,1
9.615687,1884,0,-1,-2,-1,-1,0,-1,-1
9.615697,1885,-1,-1,0,0,0,0,-3,0
9.627964,1886,1,-1,-1,-1,-1,-1,0,-2
9.627980,1887,-1,-1,-1,-1,-1,-2,-2,-2
9.628920,1888,-1,2,-1,-1,-1,-2,-3,-3
9.628928,1889,-1,1,-2,-1,-2,-2,-2,-1
9.642982,1890,0,0,0,-3,-1,-1,-1,0
9.642998,1891,-2,-2,-1,-2,-1,-2,-1,-1
9.644102,1892,-1,-2,-1,-2,-2,1,1,0
9.644108,1893,-1,0,-2,-1,-1,0,0,-1
9.666337,1894,-1,-2,-1,-1,-1,-1,-2,-2
9.666350,1895,1,1,0,-1,-1,-1,0,-1
9.666352,1896,0,-2,-1,-1,-1,-1,-1,0
9.666353,1897,0,-3,-1,0,-2,-2,-1,0
9.688148,1898,-1,-2,-1,1,-1,-1,0,-1
9.688169,1899,-2,0,0,0,-1,0,-1,-2
9.689298,1900,-1,-1,-2,0,-1,-1,-2,-2
9.689349,1901,0,-2,-1,-2,1,-1,-1,-2
9.703402,1902,-1,0,-1,0,-2,0,-2,-1
9.703429,1903,-1,-3,-1,-1,0,0,0,-1
9.704627,1904,-2,-1,-1,0,0,0,-1,-2
9.704638,1905,-1,-1,0,0,-1,-1,-1,-1
9.725556,1906,-1,-1,-2,-2,-1,-2,-1,0
9.725584,1907,0,-1,-2,-1,-2,-1,-2,0
9.726981,1908,-1,-3,-1,-1,-2,-2,-1,-1
9.726991,1909,-1,-1,-3,-2,-2,-1,0,-1
9.747958,1910,-2,0,-1,-1,-1,-2,0,-1
9.747982,1911,0,-1,-2,-2,-2,1,-1,-1
9.748707,1912,-2,0,-2,1,-1,-2,-1,-1
9.748723,1913,-2,-2,-2,-1,-2,-2,-1,-1
9.762976,1914,1,1,0,0,1,-1,-1,-1
9.762996,1915,-1,0,-1,-2,-1,-2,0,-1
9.764002,1916,0,0,-1,-2,1,-1,-2,-1
9.764008,1917,-1,-2,-1,-1,-1,-1,0,-2
9.785631,1918,-1,-2,-1,-1,-2,0,0,0
9.785660,1919,0,-2,-2,0,0,-1,-2,-1
9.787402,1920,-1,-2,0,-1,-2,-2,0,0
9.787415,1921,-1,-1,-3,0,0,1,-2,-1
9.808342,1922,0,-2,0,-1,-2,-1,0,-2
9.808362,1923,-1,1,0,-1,-2,-1,-1,-3
9.808745,1924,-1,-1,-1,-2,-2,-2,0,-1
9.808757,1925,-1,0,0,-1,0,-1,-1,-2
9.823005,1926,1,-2,-1,-1,-1,-1,-2,-1
9.823025,1927,-3,-2,-1,0,0,-2,-1,-1
9.823847,1928,0,-1,-1,0,-1,-1,1,-2
9.823926,1929,-2,-2,1,-1,-1,0,1,0
9.845505,1930,-1,-3,-2,-1,-1,1,0,-1
9.845522,1931,-1,-1,-2,-3,-1,1,-2,-1
9.846913,1932,-1,-1,-2,-1,1,0,-2,0
9.846925,1933,0,2,0,-2,0,-2,-1,-1
9.868190,1934,-3,-1,-1,0,-1,-1,0,0
9.868208,1935,2,-1,0,1,0,-1,-1,-1
9.870063,1936,-2,-1,-1,-3,0,0,0,0
9.870074,1937,-1,-1,-1,0,-1,-1,-2,-1
9.883383,1938,-1,-2,0,-2,0,-1,-2,-2
9.884917,1939,-3,0,0,0,0,-2,0,1
9.884929,1940,-1,-2,-2,0,-2,-1,-3,-1
9.884931,1941,-2,-2,-2,-1,-1,-1,-2,0
9.906238,1942,-1,0,-2,-1,-1,0,-1,-2
9.906265,1943,0,-2,-1,-1,-2,0,-2,-2
9.907659,1944,1,-1,0,0,-2,-1,-2,-1
9.907671,1945,-3,-1,-1,-3,1,-2,0,0
9.928148,1946,0,-3,-1,-1,1,-1,0,0
9.928165,1947,0,0,-3,-2,0,0,1,-3
9.929099,1948,-1,0,-2,0,-1,0,-1,-1
9.929109,1949,0,0,-1,-2,-1,-2,0,0
9.943359,1950,-1,-1,-2,-1,-1,-1,-2,-1
9.943388,1951,-1,0,0,-1,-2,0,0,0
9.944900,1952,0,-2,-1,1,-1,-1,1,0
9.944911,1953,0,-2,-1,-1,-1,0,0,0
9.965482,1954,-2,-1,0,1,-2,-1,0,0
9.965495,1955,-1,-2,-1,-1,-1,0,-1,-1
9.966182,1956,-1,0,-2,-2,-2,-1,0,-1
9.966203,1957,0,-2,0,0,-2,-2,0,-1
9.988034,1958,-1,0,-2,-1,-1,-1,0,0
9.988058,1959,0,-2,0,0,-1,-2,0,-2
9.989690,1960,-1,0,0,-1,0,0,-2,-2
9.989700,1961,-2,0,-1,0,-1,1,0,-1
10.003011,1962,-1,0,-1,0,-1,-1,0,-1
10.003032,1963,-1,0,-2,-2,-1,-2,-2,-1
10.004094,1964,0,-2,-2,-2,-1,-1,-1,-3
10.004108,1965,-2,-2,-2,0,-3,0,-1,0
10.025631,1966,-1,0,-2,-1,-1,0,-3,-1
10.025643,1967,-1,-2,0,-1,-1,-2,-2,-1
10.026148,1968,-1,1,0,-2,-2,-1,0,-1
10.026159,1969,0,-2,-1,-1,-2,-1,-1,-1
10.048020,1970,0,0,1,0,-2,-1,-1,0
10.048040,1971,-2,-1,0,2,1,-2,-1,-1
10.049145,1972,-2,-1,-1,-1,-1,-1,-1,0
10.049156,1973,0,-1,-1,-1,-2,0,-1,-2
10.063146,1974,-1,-1,0,0,-1,-1,-1,-1
10.064810,1975,-2,-1,-1,-1,-1,0,-2,-2
10.064822,1976,-1,0,-1,-1,0,-3,-1,0
10.064824,1977,-1,1,0,-1,1,0,-1,-2
10.085966,1978,-1,-1,-1,-1,-1,-1,-1,-1
10.085996,1979,1,-1,-1,-1,0,0,-3,-2
10.087594,1980,0,-1,0,-1,-2,-1,-1,0
10.087605,1981,0,0,0,0,0,-1,-2,-2
10.108293,1982,-1,0,-2,-2,-2,-1,-1,-1
10.109925,1983,-3,-1,-3,-1,-3,0,1,0
10.109937,1984,-2,1,-1,-1,1,0,1,-1
10.109939,1985,-1,0,-3,-3,0,-1,-1,-1
10.123458,1986,1,-2,0,-1,1,-1,0,0
10.123487,1987,-1,0,-1,0,-2,-2,-1,1
10.125393,1988,-1,-3,-1,0,0,-2,0,-1
10.125404,1989,-3,0,0,-1,-2,0,-1,-1
10.146097,1990,-2,-2,-2,0,-3,-1,-1,0
10.147601,1991,0,-1,-2,-1,-2,-2,-1,-1
10.147613,1992,-1,-1,0,-1,-1,-1,-1,0
10.147615,1993,-1,-1,-1,-1,-2,0,0,-1
10.167979,1994,1,-1,-1,0,-2,-2,-2,-1
10.168000,1995,0,1,-2,0,0,-2,0,1
10.168884,1996,-1,0,0,0,0,0,-3,1
10.168985,1997,-2,-1,-1,0,-1,-2,0,-2
10.182367,1998,-1,0,-1,-1,0,-1,-1,-3
10.182390,1999,-2,-1,0,-1,-1,-1,-1,-1
10.190570,2000,-2,-1,0,-1,-1,0,-1,-1
10.190646,2001,1,-1,-1,0,1,0,-1,0
10.205458,2002,-1,-1,0,-1,1,0,0,-1
10.205475,2003,0,0,1,-1,1,-2,-1,-2
10.206446,2004,-1,-2,-1,-1,0,0,-1,-2
10.206454,2005,0,-1,-2,-1,-1,0,-1,2
10.228098,2006,-2,-1,-1,-2,1,0,-1,-1
10.228122,2007,-1,-2,-3,-2,0,0,-1,-1
10.228675,2008,-2,0,-2,0,-1,-1,-2,1
10.228689,2009,-1,-2,0,-2,-1,-2,-1,-3
10.242310,2010,0,0,-1,0,-1,-2,0,0
10.242332,2011,-1,1,-1,-2,1,-1,-1,0
10.250875,2012,0,-1,0,-2,-3,-1,-1,1
10.252220,2013,0,0,-2,-2,0,-2,-2,-1
10.265758,2014,-1,-1,0,0,-1,0,0,-1
10.267054,2015,-1,-1,0,0,-1,-2,0,0
10.267066,2016,-1,0,-1,-1,0,-1,-1,-1
10.267068,2017,-2,-1,-2,-1,0,1,-1,-2
10.287976,2018,-1,-1,-1,0,-1,-1,-2,-3
10.288940,2019,-2,-1,-1,0,-2,-1,-2,-1
10.288954,2020,0,-1,0,0,0,-2,1,-1
10.288957,2021,0,-2,-2,-2,-2,-1,-1,0
10.302682,2022,-1,0,0,0,0,-1,-2,-1
10.303605,2023,1,-1,-1,0,-1,0,-2,0
10.310493,2024,0,-3,-3,-2,-2,-1,-1,-2
10.310510,2025,-2,-1,1,0,-3,-2,0,-2
10.325452,2026,-2,-1,-1,-1,-1,0,-1,-1
10.325474,2027,-1,-1,-2,-2,-1,0,-2,-1
10.326128,2028,-1,0,-2,-1,0,-1,-2,-2
10.326146,2029,0,-1,-1,-1,0,0,-2,-1
10.348017,2030,-2,1,0,0,0,-2,-1,-1
10.348034,2031,-1,0,0,-2,-2,-1,1,0
10.349108,2032,0,-2,0,-2,-1,1,-1,0
10.349122,2033,-2,-1,0,0,-1,-1,-4,-2
10.362420,2034,-1,-1,-3,-2,-1,0,-1,0
10.362436,2035,-1,-1,0,0,0,-1,-2,0
10.370781,2036,-2,1,0,-1,-2,-2,1,0
10.370796,2037,-1,0,0,-2,-1,-3,-2,-2
10.385783,2038,-2,-2,0,-1,-1,-1,-1,-1
10.385796,2039,-1,-1,-2,-1,-2,0,0,-3
10.386209,2040,0,0,-2,-2,-1,-1,-1,-1
10.386223,2041,0,-1,-2,-1,-2,-1,0,-2
10.416305,2042,0,-1,-2,-1,-3,0,-1,-2
10.416360,2043,1,-2,-1,-2,-2,-2,-1,-1
10.417086,2044,-1,-1,-1,1,-1,0,-1,-1
10.417106,2045,-2,0,-1,-2,-2,-2,0,0
10.422797,2046,-1,-2,-1,-1,-2,-2,-1,-2
10.424722,2047,-1,0,0,-1,-1,-1,0,0
10.430411,2048,-2,-1,-1,-1,-2,0,0,-2
10.430428,2049,0,-2,-1,1,-1,-1,0,1
10.447968,2050,0,-3,-1,-1,-1,-2,-1,-1
10.447980,2051,-1,0,-3,-2,-2,-3,0,0
10.447981,2052,0,-1,-1,0,-1,0,-2,-2
10.447983,2053,-1,-1,1,-1,-1,-1,-1,0
10.467921,2054,0,-3,0,-2,0,-2,-1,-1
10.467939,2055,0,-1,0,-1,0,0,-2,-1
10.468640,2056,0,-2,-2,-3,0,-2,-2,-1
10.468659,2057,-1,-1,0,-2,0,0,0,-1
10.482309,2058,-1,0,-2,-2,-1,-1,-1,2
10.482326,2059,-2,-1,-2,-1,1,0,0,-2
10.490549,2060,-1,0,-1,-2,-1,-2,0,0
10.490571,2061,-1,0,-2,-2,-2,0,0,1
10.505456,2062,-1,-1,0,-1,-2,0,-1,-1
10.505473,2063,-2,-1,-2,0,0,0,1,0
10.506892,2064,0,-2,-1,-2,-1,-1,-1,0
10.506908,2065,-1,-1,0,-1,0,1,-2,-2
10.527970,2066,0,-1,1,-1,-2,-1,-1,-2
10.527987,2067,-1,-2,-1,-1,-2,-3,-1,-1
10.528826,2068,-1,-1,0,-1,-1,-1,-1,-1
10.528851,2069,-2,-1,-1,0,0,-2,0,-2
10.551266,2070,1,0,0,-1,1,-1,0,-2
10.551285,2071,0,0,0,-2,-1,-1,-1,0
10.552952,2072,-1,0,1,-1,0,-1,-1,-1
10.552962,2073,-1,-1,-1,-1,-1,0,-1,-1
10.565590,2074,-1,0,-1,-1,1,0,-1,-1
10.565609,2075,-1,0,1,-2,-1,-3,-1,2
10.566596,2076,-1,0,-2,-1,-2,1,-1,-1
10.566604,2077,1,0,-1,-1,0,-1,-1,1
10.587948,2078,-2,1,-1,-2,-1,0,1,0
10.587985,2079,-1,0,-1,1,0,-1,-2,-2
10.588826,2080,-1,-1,0,1,1,-1,-1,-3
10.588843,2081,-2,-2,0,-1,-1,0,-1,-1
10.610368,2082,0,-1,-3,0,0,0,-1,-2
10.610390,2083,1,-1,-2,-1,-2,0,0,-1
10.618951,2084,-3,-1,0,-1,-1,-2,-1,-1
10.618965,2085,1,0,-2,-1,-3,0,-2,1
10.625568,2086,-2,-1,0,-1,-1,0,-2,0
10.625587,2087,-3,-2,-2,-1,-2,-1,-2,-1
10.626686,2088,-1,-1,-1,-1,0,0,-2,0
10.626695,2089,-3,-2,-1,-1,-1,-2,-2,0
10.649564,2090,-1,-1,0,-1,-2,-1,0,-1
10.649577,2091,-1,-1,-1,-1,0,0,-2,-2
10.649580,2092,-2,0,-1,0,1,-1,-1,-1
10.649582,2093,0,-1,0,0,-2,-1,-1,1
10.671231,2094,-2,0,0,-2,-2,0,0,1
10.671248,2095,2,-1,0,1,-1,-1,1,-2
10.672176,2096,-1,-1,-2,-1,-2,-1,0,-1
10.672182,2097,0,0,0,0,0,-1,-1,-1
10.685710,2098,-2,0,-3,0,-1,-1,-1,-1
10.685735,2099,-1,-1,-2,-2,-1,0,-1,-2
10.686742,2100,-1,0,-2,-3,-2,-1,0,0
10.686795,2101,0,-1,-2,-2,0,-1,1,-1
10.708379,2102,-2,-3,1,-2,-1,0,-2,-1
10.708402,2103,-2,-1,1,-1,0,0,-1,-2
10.709984,2104,-1,-2,-1,0,0,-1,-3,0
10.709999,2105,-2,0,-1,0,0,-1,0,-2
10.731685,2106,-1,0,-1,0,-2,-2,-1,1
10.731720,2107,0,-1,1,-2,-2,-4,-1,-2
10.732007,2108,-2,-2,-1,0,-1,-1,0,-1
10.732026,2109,0,-2,0,-2,-1,-1,-1,-1
10.745476,2110,0,0,0,-1,-2,-2,0,-2
10.745497,2111,0,0,0,-2,0,1,-1,-1
10.746123,2112,0,0,0,-2,-1,1,0,-2
10.746138,2113,-3,-1,-1,-2,-2,-1,0,-1
10.768015,2114,0,0,0,0,-1,-2,-2,-2
10.768032,2115,-2,0,-2,-2,-1,1,0,1
10.769054,2116,-2,0,-1,-1,-1,-3,-2,0
10.769063,2117,0,-2,-1,-2,-1,0,-1,-1
10.791106,2118,1,-1,-1,0,-2,-2,-1,-1
10.791122,2119,-1,-1,-2,-2,-2,-2,0,-2
10.791761,2120,-2,-4,0,-1,-1,0,0,-1
10.791806,2121,-3,0,0,-2,-1,-2,-2,0
10.806142,2122,-2,0,0,1,-2,-1,-2,0
10.806155,2123,0,-2,-1,-1,-1,-1,-2,-2
10.806157,2124,0,0,0,-1,-1,-3,0,-1
10.806159,2125,1,-2,0,0,-1,-1,-1,-1
10.828019,2126,0,-3,-2,-1,0,-1,-1,-1
10.828041,2127,-1,-1,-2,-1,-1,-1,1,-1
10.829275,2128,-1,-3,-1,0,0,-2,-2,-2
10.829284,2129,-1,-1,-1,1,1,0,-1,-1
10.852260,2130,-3,0,-1,-2,1,0,-1,0
10.852277,2131,0,1,-1,-2,-1,-1,-1,-1
10.852282,2132,-1,1,-2,-2,-1,0,0,0
10.852286,2133,1,-1,-2,-2,-1,-1,0,-2
10.866032,2134,0,-1,-1,-1,-1,0,-2,-2
10.866060,2135,-1,-2,-1,0,0,-2,1,0
10.868076,2136,-1,-1,0,0,-1,0,-2,-1
10.868088,2137,-2,-1,0,-2,-2,-1,1,0
10.896756,2138,-1,-1,-2,-1,0,0,1,-1
10.896780,2139,-2,-2,-1,-1,0,0,-1,1
10.898877,2140,0,-1,-1,0,-2,-2,-2,-2
10.898888,2141,-1,0,-2,0,-1,-2,-1,-1
10.911697,2142,0,-1,-1,-2,-1,-1,1,0
10.911731,2143,-1,-1,-1,-1,-1,-1,-2,-1
10.913703,2144,0,-1,-2,-1,-2,0,0,-1
10.913715,2145,-1,-1,-1,-2,1,0,-1,-1
10.925655,2146,-2,-1,0,0,-2,0,-1,-2
10.925672,2147,-1,0,-1,0,-1,-2,-2,-1
10.926577,2148,-1,-1,-1,0,0,0,0,0
10.926585,2149,-3,0,0,0,0,-1,-1,-2
10.956121,2150,0,-1,-1,-1,-2,-1,-1,-1
10.956143,2151,1,-1,-1,-1,-1,-2,-1,0
10.957259,2152,-1,0,-2,0,-1,-2,-1,0
10.957268,2153,-1,-2,-2,1,-2,-1,0,-2
10.971161,2154,0,-1,-1,0,0,0,-1,-2
10.971178,2155,-2,-2,0,-2,-1,1,-1,-4
10.972076,2156,0,-1,0,-1,-1,-1,-1,-1
10.972157,2157,0,0,-1,1,-3,0,0,0
10.985473,2158,0,1,-2,-2,-2,-1,0,0
10.985491,2159,1,-1,0,-2,-2,0,-2,1
10.986504,2160,0,-2,-1,-3,0,-1,0,-1
10.986511,2161,-1,0,-1,-1,0,-1,-1,-2
11.009341,2162,-2,-2,-1,-1,-1,-1,0,-1
11.009354,2163,-1,-1,-2,0,-2,-1,-1,0
11.009356,2164,-1,-1,0,0,-1,0,-2,-2
11.009358,2165,0,-1,-1,0,-2,0,-2,0
11.031981,2166,0,-1,0,-2,1,-2,0,0
11.032014,2167,-2,1,0,0,1,-2,-2,0
11.033365,2168,0,-2,0,-1,0,-2,0,0
11.033380,2169,0,-2,-1,-1,-1,-1,1,0
11.045646,2170,-1,-1,-2,-1,-1,-1,-2,-1
11.045670,2171,0,-2,-2,-2,-1,1,0,1
11.046772,2172,-1,-1,-1,-2,0,-2,0,0
11.046783,2173,-3,-1,0,-1,-1,-1,-1,0
11.068662,2174,0,-1,-1,0,1,-1,-1,0
11.068691,2175,0,-1,-1,-2,-1,-2,0,-1
11.069709,2176,-1,-1,-1,0,-2,0,-2,-1
11.069718,2177,-1,-1,-2,-2,-2,-2,0,0
11.091806,2178,0,-1,-1,-2,-1,0,-2,0
11.091832,2179,-2,1,-2,0,-1,-1,-1,-1
11.092388,2180,0,0,-1,0,0,0,-1,-1
11.092500,2181,0,-2,-1,-1,-2,0,-2,-1
11.105443,2182,-2,-1,-2,0,-1,-1,0,0
11.105461,2183,0,-1,0,1,0,-1,-2,0
11.106159,2184,-2,-1,0,-1,-1,-2,-1,0
11.106178,2185,-1,-2,0,-1,1,0,-1,0
11.127966,2186,0,0,-1,-1,-1,-1,0,-2
11.127984,2187,-1,-1,0,-2,0,-1,-2,-2
11.129423,2188,-1,0,-2,-1,1,-1,-1,-2
11.129433,2189,-2,1,0,-1,-1,-1,-1,-1
11.150414,2190,-2,-2,0,-2,-1,-1,0,0
11.150476,2191,-3,-3,0,2,-1,-1,-3,-4
11.158109,2192,-1,-1,0,0,-2,0,-1,-1
11.158131,2193,-2,-1,-1,-2,-2,-1,-4,-1
11.173704,2194,-1,-2,-1,-2,-2,-1,-1,1
11.173727,2195,-1,-1,-1,-1,-1,-1,-1,0
11.175587,2196,0,-1,-2,0,1,1,-1,-2
11.175600,2197,-1,-1,-2,1,-1,-1,-1,0
11.188065,2198,-1,-2,0,-2,0,0,0,0
11.189168,2199,-1,1,-1,-2,0,-2,1,0
11.189187,2200,0,-2,0,-2,-1,-2,-1,0
11.189250,2201,0,-1,-1,-1,0,0,-1,-1
11.211189,2202,-3,-1,-1,-1,-1,0,-2,-1
11.211212,2203,0,-1,-1,-1,-2,0,0,0
11.212875,2204,-1,0,-1,-1,-2,0,0,0
11.212887,2205,0,-1,-1,0,-1,-2,-1,-2
11.225149,2206,-1,0,-1,-1,-3,0,-1,-1
11.225177,2207,-1,-1,0,-1,-1,0,-1,-1
11.233073,2208,-2,-1,-1,-1,-2,-1,1,0
11.233087,2209,0,-1,-1,0,0,-1,-2,0
11.248237,2210,-3,0,0,-1,1,-2,-1,-2
11.248271,2211,-1,-2,-1,-2,-2,0,1,1
11.249048,2212,-1,-1,-1,-1,-2,-1,-1,-1
11.250348,2213,-2,-1,-2,0,-2,-1,-1,-1
11.271787,2214,1,1,0,-1,-1,0,0,-2
11.271817,2215,-1,-1,0,0,0,-1,-2,-2
11.273590,2216,-1,-1,-1,0,-2,0,0,0
11.273601,2217,-1,-1,-2,-2,-1,-1,-1,0
11.284794,2218,0,0,-2,-1,-1,-3,0,-1
11.284811,2219,-2,-2,-1,0,-2,-1,-1,0
11.293532,2220,0,-1,0,-1,-1,-1,-1,-1
11.293549,2221,0,-1,-1,-1,-1,-1,-1,-1
11.307936,2222,1,-2,-2,-1,-1,0,-2,-2
11.307959,2223,-1,0,-2,0,-1,-1,0,-1
11.308613,2224,-2,-2,-2,-2,-1,-1,0,0
11.308655,2225,-1,-1,-1,-1,-1,-2,0,-1
11.331221,2226,-1,-2,-1,0,0,-1,-2,-1
11.331239,2227,0,0,-1,-2,-1,-2,-1,-2
11.332180,2228,0,-1,0,-1,-2,-1,-2,-2
11.332187,2229,-1,0,0,-2,0,-1,-2,-1
11.344782,2230,-2,-2,0,-2,0,-1,-1,1
11.344802,2231,-1,-1,0,-1,-1,1,-1,1
11.353066,2232,-2,0,-3,0,-2,-1,0,-1
11.353088,2233,-1,-1,-1,-3,-2,-1,-1,0
11.368081,2234,0,-1,-1,1,-1,-1,-4,-3
11.368096,2235,-3,-1,-3,-1,1,0,-1,1
11.368629,2236,0,0,0,-1,1,0,-1,0
11.368668,2237,-2,1,-2,-2,-1,1,0,-2
11.391156,2238,-1,-1,0,-2,-3,0,0,-1
11.391183,2239,-1,-1,0,-2,0,0,-1,-2
11.393117,2240,-1,-1,0,-1,-1,0,-1,-1
11.393132,2241,0,0,-1,1,-1,-2,-1,-1
11.405142,2242,-2,-1,0,-1,-1,0,-1,0
11.406351,2243,-1,-2,-1,-2,-2,-2,0,-1
11.414181,2244,0,1,-1,-2,-1,-3,0,-1
11.414195,2245,1,-1,-2,-2,1,-1,-2,-2
11.429975,2246,-1,-1,-2,-1,1,0,0,-1
11.429989,2247,0,-1,0,-1,-2,-1,-1,0
11.429991,2248,-2,-1,1,-1,-1,2,-2,-1
11.429993,2249,-1,-1,0,-2,-1,1,0,-1
11.451293,2250,0,-1,-2,0,0,-3,-2,0
11.451326,2251,-2,0,-1,-1,1,-1,0,0
11.453310,2252,1,-2,-1,-3,1,-2,0,-1
11.453323,2253,-2,-1,0,-1,-1,-2,0,2
11.464811,2254,0,0,-1,0,-3,-2,0,0
11.464830,2255,0,-1,-2,-1,-1,-1,-2,-2
11.473354,2256,-2,-1,-2,-1,-1,-1,-2,-3
11.475396,2257,-1,-2,-2,0,-1,-1,-1,-1
11.488326,2258,-1,-2,-1,-1,-2,1,0,0
11.489560,2259,0,-1,-3,1,-1,-1,-2,-1
11.489572,2260,-1,1,0,0,0,-1,-1,-2
11.489574,2261,1,-1,-1,-1,1,-1,-1,-2
11.511512,2262,1,0,0,-2,2,-1,-1,0
11.511538,2263,-3,0,0,-2,-2,0,-2,-1
11.512025,2264,-1,-1,-1,-1,-1,-1,-1,0
11.512094,2265,-2,0,-2,-3,0,-1,0,-1
11.533649,2266,-1,0,-1,0,0,1,-1,-3
11.533671,2267,0,-1,-2,-3,-1,-3,1,0
11.535556,2268,0,-1,-1,1,0,-1,-1,0
11.535568,2269,-2,0,-1,-1,-1,-2,-1,-2
11.547990,2270,-2,-1,-2,-1,-3,-1,-1,-2
11.548006,2271,3,0,-2,-1,-1,-1,-1,-1
11.549211,2272,-3,-2,-2,0,-2,0,0,0
11.549223,2273,0,-1,-1,0,-2,-1,-2,-2
11.571158,2274,-2,-1,1,-4,-3,-1,-1,1
11.571173,2275,2,0,1,1,0,1,0,-3
11.571801,2276,2,-2,-1,-2,-1,-1,1,1
11.571838,2277,-2,-1,0,-1,1,1,0,0
11.593931,2278,-1,0,0,-1,0,-1,-2,0
11.593966,2279,-2,-2,0,0,-2,0,-2,-1
11.595873,2280,-1,-1,-3,-2,-1,0,-1,-1
11.595884,2281,0,0,0,1,0,-2,0,0
11.607935,2282,0,-1,-2,-1,-1,-2,-1,0
11.607957,2283,-2,0,-1,-1,0,-3,0,-1
11.608887,2284,0,-1,-2,-1,-1,-1,-2,-3
11.608897,2285,-3,-2,-3,0,-1,-1,-1,-3
11.632450,2286,-2,-3,0,0,-1,0,-1,-2
11.632466,2287,-1,-2,-3,-1,-2,-1,0,0
11.632468,2288,-1,0,-1,1,-1,0,-1,0
11.632470,2289,0,-2,0,-2,-2,-2,-2,0
11.653749,2290,-1,-1,-1,-1,1,-1,-1,-1
11.653771,2291,-2,-1,-2,-2,-3,-1,-1,0
11.654776,2292,-1,-1,0,-1,-1,0,-2,-1
11.654787,2293,-1,-1,-1,0,-2,0,0,-1
11.668334,2294,0,1,-3,1,-2,0,-1,-1
11.669931,2295,0,-1,1,-2,0,0,-1,-2
11.669942,2296,0,0,0,0,0,0,-2,-1
11.669944,2297,0,-2,-1,-1,-2,0,-2,-2
11.691676,2298,-1,-2,-1,-2,-1,0,-1,-1
11.693006,2299,0,0,-1,-1,-3,-4,0,-2
11.693018,2300,0,0,-2,0,-1,-1,0,0
11.693062,2301,-1,2,-1,1,1,-1,-1,-1
11.713628,2302,0,-1,0,0,-2,-2,-1,-2
11.713656,2303,-1,-1,1,1,0,1,0,0
11.714364,2304,-3,-1,0,-2,-2,-1,-1,-1
11.714385,2305,1,-1,-1,-1,-1,-1,-2,-1
11.727956,2306,-2,-2,-2,0,-1,-2,-1,-3
11.727977,2307,-2,-2,-1,-1,0,0,-1,-1
11.728768,2308,-1,-1,-1,0,-2,-2,-2,-1
11.728787,2309,-1,-1,-1,-1,-1,-2,0,-1
11.751464,2310,1,0,-2,0,0,-1,-1,0
11.751495,2311,-2,1,0,-1,-2,-1,-2,-1
11.753890,2312,-1,1,-3,-1,0,0,0,-2
11.753905,2313,0,-1,-1,0,-1,0,0,-1
11.773857,2314,-1,-1,-1,-1,-1,0,1,-1
11.773871,2315,-2,-2,-3,-1,0,-1,-2,1
11.774283,2316,1,-1,-1,1,0,-1,-1,0
11.774304,2317,0,0,-1,-1,-1,0,0,-2
11.789312,2318,-2,0,0,-1,0,-1,0,-1
11.789323,2319,-2,-1,-1,0,-1,0,0,0
11.789325,2320,-1,-2,0,-1,0,0,-3,-1
11.789327,2321,0,-2,-2,-2,0,-1,0,0
11.811226,2322,-2,0,0,-2,-1,0,-1,1
11.811247,2323,2,0,0,0,-1,-1,-1,0
11.812324,2324,-4,0,1,-2,-2,-2,0,0
11.812330,2325,-1,-1,-2,-1,0,-2,0,0
11.833729,2326,0,-1,-1,-1,-2,-2,-1,-1
11.833751,2327,-1,-1,0,-2,-2,0,-1,-1
11.835004,2328,0,-1,-2,-1,-2,-1,0,-2
11.835024,2329,-1,-1,0,-1,-1,0,-1,-2
11.848478,2330,-2,-2,0,-1,0,-1,0,-2
11.848502,2331,-2,-1,-1,-2,-1,-2,0,-1
11.850072,2332,0,-1,0,-1,-2,-1,-2,0
11.850084,2333,-2,0,-1,-2,-1,0,-2,0
11.871184,2334,-1,-1,1,0,-1,-1,-1,0
11.871203,2335,0,-2,-1,-1,-1,0,-2,-1
11.872114,2336,1,-1,-2,-1,-1,-1,-1,-1
11.872133,2337,-2,0,-1,-2,-1,-1,0,-1
11.893801,2338,1,0,-1,-2,-2,1,-1,0
11.894904,2339,0,-1,-2,-2,-1,-3,0,0
11.894918,2340,-1,0,0,-1,0,-2,-3,-2
11.894920,2341,-1,-2,1,-1,-2,-2,-2,0
11.908189,2342,-1,0,-1,0,-1,-1,-2,-1
11.910082,2343,0,-1,0,0,-2,-1,-2,-2
11.910091,2344,-1,-1,-1,-1,0,-2,0,0
11.910094,2345,-2,-1,-1,-1,-1,1,0,0
11.931319,2346,-1,-1,-1,-2,-2,-2,-1,-1
11.931332,2347,0,-3,0,1,0,-1,0,-1
11.931828,2348,-7,-3,-1,-1,0,-2,0,0
11.931835,2349,3,0,-3,-1,-2,-1,-3,-2
11.953868,2350,-1,-1,-1,-1,-2,-1,0,-2
11.953887,2351,0,0,-1,-1,-1,0,-2,-3
11.954860,2352,1,-1,-1,-2,-1,-1,-1,1
11.954867,2353,-2,-1,-1,0,-1,-2,-2,0
11.968092,2354,-1,-1,-1,-1,0,0,0,0
11.968114,2355,-2,-1,-1,-1,-1,0,0,-2
11.969665,2356,0,0,0,-2,0,-1,0,-1
11.969679,2357,-1,-2,-1,-2,-2,-3,0,-1
11.991900,2358,0,-1,-2,-1,-1,1,-1,0
11.991921,2359,-2,-1,1,0,0,0,-1,1
11.992038,2360,1,0,-2,1,-1,0,0,-1
11.992050,2361,-1,-1,-2,-1,0,-1,-1,0
12.013772,2362,0,0,0,-2,0,-2,-2,0
12.013840,2363,-2,-1,-1,-2,-1,-1,1,-1
12.014401,2364,-1,-2,0,-1,-2,0,-2,-3
12.014422,2365,-1,0,0,-1,-1,-2,-2,-2
12.028186,2366,-2,-1,0,0,0,-1,-2,0
12.028202,2367,-2,-1,1,0,0,0,-1,0
12.028663,2368,-1,0,-1,-2,-1,-1,-2,0
12.028702,2369,0,0,-1,-1,1,0,-1,-2
12.051161,2370,-2,-2,-2,-2,0,-2,-2,-2
12.051177,2371,-2,-1,-2,-1,-1,-1,1,-1
12.052226,2372,-1,-2,-1,-1,-2,-1,0,0
12.052245,2373,-1,-1,1,-1,0,0,-1,-1
12.073667,2374,-2,-2,-1,-1,-1,-1,1,-1
12.073690,2375,1,0,-1,0,1,-1,-1,0
12.074254,2376,0,0,-1,-1,-1,-1,0,-1
12.074267,2377,-2,-3,-1,-2,-2,-2,-1,-2
12.087278,2378,0,-1,0,0,-1,0,-1,0
12.087294,2379,-1,-2,-2,0,1,-1,-2,-1
12.096048,2380,-1,0,-1,-1,0,-2,-1,0
12.098024,2381,0,0,0,1,-1,1,-1,0
12.111635,2382,0,-1,0,-1,-1,-1,-2,-1
12.111669,2383,0,0,-4,-1,-1,-1,-2,-1
12.113302,2384,1,-1,-1,-1,-1,-1,-1,-1
12.113311,2385,-1,0,-2,0,-1,0,-1,-1
12.134755,2386,-2,0,0,-1,-1,0,-1,0
12.134770,2387,1,-2,1,-2,-2,-1,-2,-2
12.134772,2388,0,-1,-1,-1,-1,-3,-2,-2
12.134774,2389,0,-2,0,0,0,-2,1,0
12.147423,2390,-1,-1,-1,-2,-3,-2,-1,-1
12.147448,2391,-2,1,0,0,0,-3,-2,-1
12.155598,2392,-2,0,-1,-1,0,0,1,0
12.155618,2393,0,-1,-1,0,-1,0,-2,-1
12.171282,2394,-1,-1,-4,1,-2,-1,-1,1
12.171302,2395,0,0,-1,-2,-3,-1,0,0
12.172689,2396,-1,-1,-2,0,-1,-1,-2,1
12.172705,2397,-1,0,-1,0,-1,-2,0,-1
12.194874,2398,-1,0,-1,-1,-1,-2,-2,-1
12.194885,2399,-1,0,-2,-1,-3,0,0,0
12.194887,2400,-1,-1,1,-1,-1,0,-2,-1
12.194935,2401,-2,-2,0,-1,-2,-2,-3,0
12.207397,2402,1,-2,0,-1,0,-1,1,-2
12.207420,2403,-2,-2,-1,0,1,0,1,-1
12.215866,2404,-1,0,0,-1,-1,0,-1,-1
12.215905,2405,-2,-1,-2,-2,-2,-1,-1,-2
12.231322,2406,-2,0,0,-2,1,-1,0,-2
12.231346,2407,0,-1,-1,0,-1,-1,-3,-1
12.232089,2408,-1,-2,-1,-2,0,0,-1,-1
12.232130,2409,0,0,-1,0,-1,-1,-1,-1
12.253759,2410,-1,0,-1,-1,-3,-2,-3,-3
12.255489,2411,0,0,0,0,-2,1,0,-1
12.255503,2412,-2,-2,0,-1,-1,-1,-1,1
12.255505,2413,0,0,-1,-2,-3,0,0,0
12.276255,2414,-2,0,-1,-1,0,1,-1,0
12.276276,2415,-2,0,0,0,-1,-2,-1,-2
12.276939,2416,0,-1,0,0,1,-1,0,-1
12.276975,2417,-2,0,-1,-1,0,0,-1,-1
12.291231,2418,-2,0,-1,0,-1,-1,-2,-1
12.291257,2419,0,-3,-1,-2,-1,-1,-2,0
12.291901,2420,-1,-1,-1,0,-2,-1,-1,-2
12.291922,2421,1,-1,0,0,0,-1,-1,-1
12.313785,2422,0,-1,-1,0,-2,0,-1,0
12.313810,2423,-1,-1,-2,0,0,0,-2,-1
12.315378,2424,-1,-2,-1,0,-2,-1,0,0
12.315392,2425,-1,-1,-1,-2,0,0,0,-1
12.327502,2426,-1,0,0,-1,0,-1,0,-1
12.327523,2427,-1,0,0,-1,-1,0,-1,-2
12.336463,2428,1,-1,-1,-2,-3,-3,-1,-3
12.336488,2429,0,0,-1,0,-1,0,-3,-1
12.349976,2430,1,-3,-1,0,0,-1,-1,0
12.351445,2431,-1,1,-1,-1,-1,1,-2,-2
12.359333,2432,-1,0,0,0,-1,-1,1,0
12.359346,2433,-1,0,-1,-1,-2,0,0,0
12.373657,2434,-2,-1,-1,-2,-2,-1,0,0
12.373676,2435,-3,-3,-2,0,-3,-1,-1,0
12.375249,2436,-2,0,-2,-1,-2,0,-2,-2
12.375265,2437,0,-2,2,-1,-1,-1,1,-1
12.387510,2438,-1,-1,-2,-2,0,0,2,-1
12.388910,2439,0,-1,0,-2,-2,-1,-1,0
12.398178,2440,-1,0,0,-1,-2,-1,0,0
12.398202,2441,0,-1,-1,0,1,-2,-2,-2
12.409950,2442,-1,-1,-2,0,-3,-1,-1,-1
12.409980,2443,-2,-2,-1,-2,-1,-3,0,-1
12.419765,2444,0,0,-2,0,-2,0,-1,0
12.419781,2445,-2,-2,0,-2,-1,0,-1,0
12.433824,2446,-1,-1,-1,0,-1,-2,-2,0
12.433853,2447,-1,0,-1,-1,-2,0,-1,-2
12.436197,2448,1,0,0,-1,0,1,0,0
12.436210,2449,-1,-1,-3,0,-2,0,-1,-1
12.456207,2450,0,-2,-2,-2,0,-1,-2,-1
12.456225,2451,0,0,0,-1,0,-2,0,0
12.457817,2452,-2,-2,-2,-1,2,-1,0,-4
12.457839,2453,-1,-1,-1,-1,-2,-1,0,-2
12.470591,2454,-1,-1,-1,0,-1,-1,-1,-2
12.470607,2455,-1,-2,-2,0,-2,-1,-1,-2
12.477491,2456,0,0,-1,-1,0,-3,0,-1
12.477512,2457,-2,0,-2,-2,-2,-1,-1,-2
12.493963,2458,-1,1,0,-1,0,0,-1,-1
12.494020,2459,0,0,-2,-2,0,-2,0,-1
12.496227,2460,-1,-1,1,-2,-2,0,-3,0
12.496239,2461,-1,-2,0,-1,-1,-3,-1,0
12.516251,2462,0,-1,1,1,0,0,-2,-2
12.516268,2463,-1,-1,0,0,0,-1,0,-2
12.517805,2464,-1,-2,-1,-3,-1,1,-1,-1
12.517822,2465,0,0,-1,1,-1,-2,-3,-3
12.530478,2466,-1,-2,-1,-1,-1,-1,0,0
12.530496,2467,0,-2,0,-1,1,-2,0,-2
12.545246,2468,1,-2,-2,-1,-2,-2,-1,-1
12.545268,2469,0,-1,-1,-2,-1,-1,0,-1
12.553588,2470,-2,1,0,-1,-1,0,1,-1
12.553602,2471,-1,-1,0,-2,-1,-1,0,-1
12.555301,2472,-2,-2,-1,-1,-1,0,0,1
12.555411,2473,-1,-2,-2,-2,-1,-1,0,0
12.576748,2474,-1,0,-1,-1,-2,0,-1,-1
12.576781,2475,-2,0,-1,-1,-1,0,0,1
12.579121,2476,-1,-2,-2,0,-1,-2,-1,-1
12.579132,2477,0,0,-2,0,-2,-1,-1,0
12.590536,2478,-1,-1,-1,-1,-1,-1,1,0
12.590553,2479,0,-1,0,-1,-2,-1,-1,-2
12.597309,2480,-2,0,0,0,0,-1,-1,-2
12.597330,2481,-1,-1,-1,-4,0,-1,-1,-3
12.614902,2482,0,-2,-2,-1,-1,-2,-1,-1
12.614920,2483,-1,0,-3,1,-2,0,-1,0
12.619936,2484,-1,-1,1,0,0,-1,-1,0
12.619959,2485,-1,-1,-2,-1,-1,-1,0,0
12.636219,2486,-2,-1,-1,-1,0,0,-1,-3
12.637697,2487,-1,-1,-1,0,1,-1,-2,-1
12.637766,2488,-1,-1,-1,-1,0,-2,-2,0
12.637826,2489,-1,0,-1,0,-1,0,-2,-1
12.650644,2490,-2,-1,0,-3,-1,-1,-2,1
12.650662,2491,-2,-2,-2,1,-1,0,-1,0
12.657609,2492,-2,0,0,-2,-2,-1,-2,-3
12.657627,2493,-2,-1,-1,-1,-1,0,-1,0
12.673659,2494,0,0,-2,-1,-2,-2,-1,0
12.673676,2495,0,-1,-2,-1,-1,-1,-1,-2
12.675819,2496,1,0,-2,-1,0,0,-1,0
12.675835,2497,-1,-1,-1,-1,-2,-1,-1,-1
12.696333,2498,-1,-3,-2,0,-1,-1,0,0
12.696366,2499,-2,-2,-1,-1,0,-2,-1,-2
12.699011,2500,1,-1,-1,0,-2,-3,-1,-1
12.699063,2501,-1,-1,0,-1,-2,-1,0,-2
12.710055,2502,-1,0,0,-1,-1,0,0,-1
12.710073,2503,-2,0,0,-1,-3,-2,0,0
12.719540,2504,-1,-1,0,0,0,0,-1,-2
12.719551,2505,-1,1,-1,-1,-1,-1,-1,0
12.734041,2506,-1,2,0,-1,-1,-1,-2,-1
12.734073,2507,0,-1,1,-2,-2,-1,-1,-2
12.736231,2508,-1,0,-2,-1,-2,-1,-1,-1
12.736246,2509,0,-1,-1,1,-1,-3,-2,-1
12.756116,2510,-2,-1,-2,-1,-2,-2,-1,-1
12.756130,2511,-2,-1,-2,-1,-1,0,-2,0
12.757802,2512,0,-1,-1,-1,-2,0,-1,-2
12.757823,2513,-1,-1,0,0,0,-1,-1,0
12.769845,2514,0,-1,1,0,-3,-3,-1,-3
12.769888,2515,0,0,0,0,-1,-1,-2,0
12.779946,2516,-1,-2,0,-1,-1,-1,0,-1
12.779959,2517,-1,0,0,-1,0,-1,-3,-2
12.793696,2518,-1,1,0,0,-1,0,-1,-2
12.793714,2519,1,-1,-1,0,-1,-1,0,-1
12.795217,2520,-3,0,-2,1,-2,-1,-1,-1
12.795265,2521,-2,-2,-1,-2,-1,-1,-1,-1
12.816205,2522,0,-2,-1,1,0,-2,0,0
12.816223,2523,-2,-1,0,0,-1,-1,-2,1
12.822842,2524,-1,0,0,-3,-1,0,0,-1
12.824103,2525,0,0,-1,0,0,-2,-1,0
12.830172,2526,1,-1,-1,-1,-1,-1,1,-1
12.830195,2527,-2,1,-2,0,0,-3,-1,-1
12.839215,2528,-1,-2,-1,0,0,-3,-1,-1
12.839226,2529,-2,0,0,0,1,0,-2,-2
12.854092,2530,0,-3,0,-2,0,-1,-1,0
12.855642,2531,-1,0,-2,-1,-2,0,0,0
12.855653,2532,0,0,-1,1,0,-1,-1,0
12.855655,2533,-2,-1,-2,-2,-1,-1,-1,-2
12.876570,2534,-2,0,-2,-1,-1,-1,-2,0
12.876602,2535,-3,-1,0,0,0,-1,-1,-2
12.878905,2536,0,0,-1,-1,-1,-1,-2,-1
12.878922,2537,-2,-1,-1,0,0,-2,0,-1
12.889939,2538,-1,0,-2,-2,-3,-2,-1,-1
12.889969,2539,0,-2,1,-3,-2,-2,-1,-2
12.899399,2540,0,0,0,-1,-1,-2,-1,0
12.899410,2541,-1,-2,-2,-1,-3,-1,0,-1
12.913632,2542,0,0,-3,-1,0,-1,-1,-2
12.913649,2543,0,-1,0,-2,0,0,-2,-1
12.915103,2544,-2,-1,0,0,-1,-2,-1,0
12.915116,2545,0,-1,-2,-1,-1,-1,-2,0
12.936222,2546,-3,0,0,0,1,-1,0,0
12.936240,2547,0,-2,-1,-1,-1,-1,-2,0
12.938094,2548,-1,-1,-1,-3,-1,0,-2,-1
12.938208,2549,-1,-2,-2,-2,-1,-1,0,-2
12.950141,2550,-1,0,-1,-2,-3,1,-2,-1
12.951263,2551,0,-1,-1,0,-1,-2,-1,0
12.958856,2552,-1,-1,0,-2,0,-1,0,1
12.958871,2553,0,-1,1,-1,-2,-1,1,1
12.975189,2554,-1,-1,-1,0,1,0,-1,-1
12.975205,2555,-1,-1,-2,-1,-2,-1,0,0
12.975209,2556,0,0,-2,0,-1,-1,0,-3
12.975266,2557,1,1,-1,-2,-1,-1,0,-1
12.996555,2558,-1,-2,-1,-1,-2,-1,0,0
12.996588,2559,-3,0,0,-1,0,-1,0,-1
12.998300,2560,-2,-1,-1,-2,-1,-1,-1,-1
12.998312,2561,-3,-2,-1,-2,-1,2,-1,0
13.009889,2562,-1,-2,0,0,0,-1,-2,-2
13.009918,2563,-2,-1,-2,0,1,-2,-1,0
13.019491,2564,-1,-1,-1,0,0,-1,-2,-1
13.019506,2565,-2,-1,0,-1,-1,-1,-1,0
13.033733,2566,0,-1,0,-3,-1,-1,-2,-1
13.033750,2567,-2,-2,0,-1,0,-1,-2,-3
13.035668,2568,0,-1,0,-1,-1,-1,0,1
13.035681,2569,0,-1,-1,-1,-1,-1,-2,-1
13.056240,2570,-1,-2,-1,0,-2,-1,-1,-1
13.056266,2571,-2,-2,0,-1,-2,-1,0,-2
13.058153,2572,-1,-2,0,0,-2,-2,-1,0
13.058166,2573,-2,0,-1,-1,-2,-1,1,0
13.069878,2574,0,-1,-1,-1,-1,-1,-3,-1
13.069895,2575,-1,-1,-2,-2,-2,0,-1,-2
13.079790,2576,-2,-1,-2,-3,-2,-1,-1,-2
13.079802,2577,0,-1,0,0,0,-2,-1,-3
13.094337,2578,0,-1,-2,0,-1,-1,2,-1
13.094369,2579,-1,-1,-3,0,-1,0,0,0
13.095914,2580,-2,-1,-1,-2,-1,-1,0,-2
13.095929,2581,0,1,0,0,-1,-1,-1,1
13.116105,2582,0,1,-3,-2,0,-2,-2,-2
13.116121,2583,0,-2,-1,0,-1,-1,-2,-1
13.117853,2584,-1,-1,-1,0,2,0,-1,-1
13.117874,2585,-1,0,-2,-1,-1,0,-1,-2
13.138852,2586,0,1,0,0,-2,-1,-1,-1
13.138871,2587,-1,1,-1,-1,-2,-1,-1,0
13.140170,2588,-1,0,-1,-1,-2,-2,-2,-2
13.140192,2589,-2,0,0,0,-1,-1,-1,0
13.153730,2590,-1,0,-2,-2,0,-1,-1,-1
13.153752,2591,-1,-1,-1,-1,-2,0,-1,-2
13.155211,2592,0,0,0,1,-2,-2,-1,-2
13.155226,2593,0,-1,-2,-2,-1,-1,-1,-1
13.176254,2594,0,-1,-1,-1,-1,-1,-1,1
13.176294,2595,-1,-1,0,-1,0,-2,-1,-1
13.177703,2596,-1,-1,-1,-1,-2,1,-2,-3
13.177722,2597,-1,-1,0,-1,1,-2,-2,-3
13.190011,2598,-1,-1,0,0,0,-2,0,-1
13.190032,2599,0,-1,-1,-3,0,0,-2,-3
13.199632,2600,0,-1,0,-1,-1,-1,0,1
13.199711,2601,-1,-2,-3,-1,-1,-1,0,-1
13.213894,2602,-2,-1,-1,-1,-2,0,-2,0
13.213923,2603,0,-1,-2,0,0,-1,0,0
13.215364,2604,-1,-2,-2,-1,1,-1,0,-1
13.215385,2605,-1,-3,-1,0,-2,-1,-1,-2
13.236504,2606,-2,0,0,-1,-1,0,-1,0
13.236531,2607,-1,-1,-1,-2,0,-2,-1,-1
13.238405,2608,-2,-1,-1,0,-1,1,-2,0
13.238427,2609,0,0,0,-1,-1,-1,-1,-1
13.249943,2610,-2,-1,0,-1,0,-1,0,-3
13.249969,2611,-1,-1,-1,-1,-3,-2,0,0
13.259417,2612,0,-1,1,-1,-2,-1,0,0
13.259436,2613,-1,-1,0,0,-1,-1,-1,-1
13.273801,2614,-1,0,-2,1,-1,-1,-2,-2
13.273847,2615,0,-1,0,-2,-2,0,-2,-1
13.275419,2616,-2,-1,0,-2,0,-1,-2,0
13.275452,2617,0,0,0,0,0,0,-1,0
13.296365,2618,-2,-3,-1,-1,-2,-3,-1,0
13.296389,2619,-1,-1,-2,-1,-1,-1,-1,-2
13.297843,2620,-1,0,-1,1,-1,1,0,0
13.297862,2621,-1,0,-1,-2,-2,-2,-1,-3
13.309970,2622,0,0,-1,-2,-2,-3,0,0
13.309995,2623,-1,0,-1,0,-1,0,-1,-2
13.319219,2624,-2,1,0,-1,-2,-4,-1,-3
13.319238,2625,-2,-1,-2,-1,0,-1,-2,-2
13.333193,2626,0,-1,-1,-2,-1,-4,-2,0
13.333214,2627,-1,-1,-1,-3,0,0,-1,-1
13.340271,2628,1,-2,0,-3,0,1,-1,-1
13.340304,2629,-2,-2,-1,-1,-2,-1,-1,-2
13.356646,2630,1,0,-1,-2,-1,0,-1,-2
13.358014,2631,-1,0,0,0,-1,-2,0,0
13.358029,2632,-1,-2,-1,0,-2,0,-1,0
13.358032,2633,-2,-1,-1,-1,-1,-1,-1,0
13.370078,2634,-1,-1,-1,-1,0,0,-1,-2
13.370105,2635,-2,-1,-1,0,-1,-2,-3,-1
13.380287,2636,0,1,-2,-1,-2,0,1,-2
13.380306,2637,-1,0,-2,-2,-1,-1,-1,0
13.393349,2638,-2,-1,-2,-2,-1,0,-2,-2
13.393389,2639,-1,-1,0,-2,-1,-1,0,-1
13.400051,2640,-1,-1,-1,-1,-2,-3,0,0
13.400073,2641,0,0,0,-2,-1,-2,-3,0
13.416383,2642,0,0,0,0,-2,-1,-1,0
13.416412,2643,0,-1,0,-2,-2,-2,-1,-1
13.417771,2644,-1,-1,-1,-1,-2,-1,-3,-1
13.417874,2645,1,-2,1,-2,-2,0,-1,0
13.438787,2646,-2,-2,-1,0,-2,0,0,-2
13.438819,2647,0,-1,-2,-1,-2,0,0,0
13.440487,2648,-2,-1,0,-1,-3,-3,-1,-1
13.440505,2649,-2,-1,0,0,-1,-2,-2,0
13.453030,2650,-1,-1,-1,0,-2,-2,0,-1
13.454225,2651,-1,-2,0,-2,0,-2,-2,0
13.460658,2652,0,0,-1,-1,-1,0,-1,-1
13.460670,2653,0,-1,-1,-1,-1,-1,0,-2
13.476702,2654,-1,0,-1,-1,-2,-1,-1,-1
13.476727,2655,-1,-1,0,0,-1,0,-3,-2
13.477782,2656,-2,1,-2,-1,-1,-2,-2,1
13.477821,2657,0,1,-2,1,-1,-1,-1,-1
13.498828,2658,-1,-1,-3,0,-2,-1,-1,-2
13.498850,2659,0,-1,-2,-1,-4,-1,-1,-2
13.500308,2660,-1,-2,-1,-2,0,-1,-1,-1
13.500329,2661,-1,-1,-2,-1,-1,-1,-2,-1
13.513082,2662,-1,0,0,-1,-2,-2,-2,-1
13.514274,2663,0,1,-1,0,-1,-1,-1,1
13.519864,2664,-1,-3,-2,-2,-1,-1,-2,0
13.519886,2665,-1,-1,-2,-1,0,-1,-2,-1
13.536362,2666,-1,-1,0,-1,1,1,-1,0
13.536391,2667,-1,-1,0,1,-2,-2,-3,-1
13.538790,2668,-2,0,0,-1,-1,-1,-1,0
13.538810,2669,0,-2,-1,0,-1,0,-1,-1
13.558844,2670,2,-2,0,-1,-2,-2,-2,0
13.558869,2671,-1,0,-1,-2,1,-1,1,-1
13.560446,2672,0,1,-1,0,-1,-3,-1,-2
13.560467,2673,0,-1,0,-1,-2,-1,-1,-2
13.573090,2674,-1,-1,-2,-1,-2,0,-2,-2
13.573112,2675,-1,-2,-1,0,-2,-1,1,-1
13.579959,2676,0,-2,-1,0,-2,0,-2,-1
13.579985,2677,-1,0,-1,-2,-1,-1,-1,0
13.596231,2678,-1,-1,-2,-3,0,-2,1,-1
13.597616,2679,-1,-1,0,-1,-2,-2,0,-1
13.597772,2680,0,0,-2,-1,-1,1,-3,0
13.597818,2681,-2,-2,-1,-2,-2,0,-1,-1
13.619065,2682,-3,-1,-1,-2,-2,-1,-1,-1
13.619077,2683,-2,-3,-2,-1,-1,0,-1,-1
13.620204,2684,0,0,-1,-1,-1,0,1,-2
13.620252,2685,-2,1,-1,0,-1,-1,0,2
13.632359,2686,-1,0,0,-1,1,-1,0,-1
13.632376,2687,-2,-2,0,-1,-1,-1,-1,-1
13.641948,2688,-2,-1,0,-1,-1,-3,-2,-2
13.641959,2689,-1,-1,0,-1,-2,-1,-2,-1
13.656304,2690,-2,0,-1,-1,-1,-1,-1,-2
13.656325,2691,0,-1,-2,0,-2,-1,-1,0
13.657842,2692,0,-1,-1,0,1,0,-1,-1
13.657859,2693,1,1,0,-2,0,0,0,0
13.678862,2694,0,-1,-1,0,-1,0,-1,0
13.678890,2695,-1,1,-1,-2,-1,0,-2,-3
13.681096,2696,-1,-2,-1,-1,-1,-2,0,0
13.681108,2697,-1,0,-2,-2,-2,-1,-1,1
13.692372,2698,-2,0,1,-1,0,-1,0,-1
13.692403,2699,-1,0,-1,0,-1,-1,-2,-1
13.702046,2700,0,-2,-1,-2,-1,-1,0,-1
13.702108,2701,-1,-2,0,0,-1,-1,-1,-3
13.716265,2702,0,-1,-3,-2,-3,-2,-1,-1
13.716318,2703,-1,0,-1,-2,0,0,-1,-1
13.717737,2704,1,0,-1,-1,-3,0,0,0
13.717753,2705,-2,0,-2,-1,-1,-1,-1,0
13.746396,2706,0,-1,-1,-1,-2,-1,-1,0
13.746416,2707,-2,-1,0,0,-1,-1,0,-1
13.747745,2708,-2,-1,-2,-1,1,0,-2,-1
13.747762,2709,0,-2,0,0,-1,-2,-1,-1
13.752527,2710,-1,1,-1,1,0,-1,-2,0
13.752557,2711,-1,0,1,-1,-1,-1,0,0
13.761161,2712,-1,-1,1,-2,-2,1,0,0
13.761180,2713,0,-4,-2,0,0,-2,0,-2
13.776839,2714,-1,-2,-1,0,0,-1,-1,-3
13.776855,2715,-1,-1,-1,-1,-1,-1,-1,-2
13.778512,2716,-1,0,0,-1,-1,0,0,-2
13.778613,2717,-3,0,0,-2,-1,-1,-1,-1
13.798783,2718,-1,0,1,-1,-1,0,-1,-1
13.798812,2719,-2,0,-2,0,-1,-2,-3,0
13.800819,2720,0,-2,-2,0,-2,-2,-1,-1
13.800830,2721,-1,-1,-1,-1,-1,0,-1,1
13.812634,2722,-2,-2,-1,0,-1,-1,-1,1
13.812753,2723,0,-1,0,-1,0,-2,-1,-1
13.821473,2724,-1,0,-2,0,-1,-2,-1,-2
13.821487,2725,-1,0,0,0,-3,0,-1,-2
13.836165,2726,-1,-1,-1,0,-2,-1,-2,-1
13.836194,2727,-2,1,-1,0,-2,-2,-1,0
13.837729,2728,1,-1,0,-1,-1,-1,0,0
13.837746,2729,-1,-1,-3,-2,-2,0,0,0
13.858729,2730,0,-1,-2,-2,-1,-2,-1,-2
13.858750,2731,-1,-1,-1,-2,-2,0,-1,0
13.860334,2732,0,-1,-1,0,-1,-1,-3,-1
13.860352,2733,-2,0,0,-2,1,-2,-1,-1
13.872341,2734,-1,-2,0,-2,-1,0,-1,0
13.872539,2735,-1,0,-1,-2,-1,0,0,-1
13.881604,2736,-3,0,-2,0,-2,-1,-1,-1
13.881616,2737,-3,-1,1,-2,-1,-1,-1,-1
13.896114,2738,1,-1,0,0,-2,-1,-2,1
13.896131,2739,-1,-1,-1,-1,1,0,-2,-2
13.897865,2740,-3,-1,0,-1,-1,0,0,-1
13.897876,2741,-2,-1,-2,-1,-1,-2,0,-4
13.918732,2742,-2,1,-1,-2,1,-1,-1,-2
13.918751,2743,0,-1,-1,-1,-2,-3,-3,0
13.920284,2744,0,-1,-2,-1,0,-1,0,-1
13.920314,2745,0,-1,-1,0,1,-1,-1,-1
13.932273,2746,-2,-1,-1,-3,-2,-2,-1,-1
13.932298,2747,-2,-2,-1,0,-2,0,-2,-1
13.942048,2748,-2,1,-2,-2,-2,-1,-2,-1
13.942060,2749,0,-1,-1,-1,-1,0,0,-1
13.956477,2750,-1,-1,-2,-1,-1,0,-2,1
13.958066,2751,0,-1,-2,-2,0,-1,0,0
13.958077,2752,-1,1,-1,-1,-1,-2,-1,-1
13.958079,2753,0,0,-1,-1,0,0,1,0
13.978813,2754,-2,0,-1,-2,1,-1,-2,-2
13.978831,2755,-1,0,1,0,-2,0,-1,-2
13.980117,2756,-1,-2,0,0,1,1,1,0
13.980134,2757,-1,-2,-1,-2,0,0,-2,0
13.994245,2758,0,-1,-2,0,-2,0,-1,-1
13.994256,2759,0,0,-3,-2,-3,-2,0,-2
14.002222,2760,-1,-2,-1,-2,-2,-1,-3,-1
14.002232,2761,0,-2,-1,-2,-1,-2,-3,-2
14.016238,2762,-1,0,-1,1,-2,1,1,0
14.016260,2763,-2,-1,-1,0,1,-2,0,0
14.017751,2764,0,1,-1,-1,-3,0,0,-2
14.017793,2765,-2,0,-1,-1,0,-2,-1,-1
14.038597,2766,-1,-1,-1,-2,-1,-2,-2,-1
14.038614,2767,-1,-1,-2,-3,-1,1,0,-1
14.040275,2768,0,-1,0,1,0,-2,0,-2
14.040288,2769,-1,-2,-2,-1,-3,-1,0,0
14.052734,2770,0,0,0,-1,0,1,0,-2
14.052765,2771,-1,-1,-1,-1,-1,-1,-1,0
14.062243,2772,-2,-1,-2,-3,-1,-1,-1,-1
14.062255,2773,0,-3,0,0,-2,-1,-2,-2
14.076410,2774,-1,0,-2,0,0,-2,0,0
14.076433,2775,-1,-1,-1,0,-1,0,-1,-2
14.077602,2776,0,-1,1,-1,0,-1,-1,0
14.077626,2777,-1,-1,-1,0,-1,0,0,-1
14.098676,2778,-1,-2,-1,-2,-1,-1,-2,-3
14.098693,2779,-1,-1,-1,-1,-1,-2,-1,0
14.100338,2780,-2,0,-2,-1,-1,-1,-1,1
14.100350,2781,0,0,-2,-1,-1,-2,-2,-2
14.112847,2782,0,-1,-1,0,-2,-2,-1,-1
14.115035,2783,0,0,0,-1,1,-1,-1,-1
14.121797,2784,0,-1,-3,-1,-2,-1,-1,-2
14.121815,2785,-1,0,-1,-3,-1,-2,-1,0
14.136063,2786,-2,-1,-1,-2,-1,0,-1,1
14.136152,2787,1,-1,0,-1,-1,-1,-2,-1
14.137830,2788,-1,-1,1,-1,-3,-1,-2,0
14.137876,2789,-3,0,-2,0,0,-1,-1,-2
14.158811,2790,0,-1,-1,-1,0,-1,0,-2
14.158828,2791,-3,0,-1,-1,-2,0,1,-3
14.160161,2792,0,-1,1,0,-1,-1,-2,-2
14.160182,2793,-1,-1,-2,-1,-1,-1,0,-1
14.172381,2794,-2,-1,-2,-1,0,-1,-3,0
14.172398,2795,0,-1,-1,-2,0,-3,0,0
14.181186,2796,0,-1,-1,-2,1,0,-1,0
14.181238,2797,-2,-1,-1,0,-1,-2,-2,1
14.196304,2798,-1,-2,-1,1,-3,-2,-1,-2
14.196326,2799,1,-2,-2,-2,0,-1,-2,-1
14.197749,2800,-3,-1,0,-1,-2,-1,0,-1
14.197811,2801,0,-2,1,0,-1,0,0,-2
14.218623,2802,0,-1,-1,-2,-2,-1,-1,-1
14.218640,2803,-1,-1,-2,-1,-3,-1,-3,0
14.220415,2804,-1,-2,-3,-3,-1,-2,0,-1
14.220470,2805,-1,1,-1,1,-1,-1,1,-1
14.232580,2806,-1,-1,0,-1,-1,-1,-1,-1
14.234318,2807,0,0,-2,0,-1,-1,0,0
14.242602,2808,-1,-2,-2,0,-1,0,-1,-1
14.242614,2809,0,-1,0,-1,-2,0,0,-2
14.256150,2810,-1,1,-1,-3,-1,0,-1,0
14.256168,2811,-1,-2,-1,0,-2,0,-2,0
14.258485,2812,-1,0,-1,-1,0,0,-1,0
14.258500,2813,-1,0,-2,-2,-3,-1,-1,0
14.278642,2814,-1,-1,-1,-1,-1,-1,-1,0
14.278662,2815,0,0,0,-2,-1,0,0,-2
14.280284,2816,0,0,-1,1,0,-1,-1,0
14.280314,2817,-2,0,-1,0,0,-1,0,-1
14.292272,2818,0,0,0,1,0,-1,-2,0
14.292290,2819,-1,-3,-1,1,1,-1,1,-1
14.302743,2820,-1,-1,-1,-1,-1,0,1,-1
14.302754,2821,-2,-1,-2,0,-1,-1,-2,0
14.316680,2822,-1,-1,0,-2,-1,-1,0,-2
14.316699,2823,-3,-1,-2,-1,-3,0,0,0
14.317889,2824,-2,-1,0,-1,-2,-1,0,-1
14.317982,2825,-1,-1,-1,0,0,1,-2,1
14.346453,2826,-1,-1,-2,-3,-1,-2,-1,-1
14.348154,2827,-1,-1,0,0,-2,-1,-1,-1
14.348167,2828,0,-1,0,0,-1,-3,0,-1
14.348169,2829,0,0,-1,0,0,-2,-1,-1
14.362354,2830,-1,-1,0,0,0,0,-1,0
14.362398,2831,-1,1,-1,-1,-1,-1,-1,-2
14.364244,2832,0,-2,-1,-1,-2,-2,-2,-1
14.364254,2833,-2,-3,2,-3,0,-1,-1,0
14.376169,2834,0,-1,-1,0,-1,0,0,0
14.376186,2835,-1,-1,-1,-1,-2,0,-1,-3
14.377726,2836,-2,-1,-1,-1,-3,-1,-2,-2
14.377745,2837,0,0,-1,1,-2,0,0,0
14.399442,2838,-2,-1,-2,0,-1,-2,0,-2
14.399457,2839,-2,-1,-2,-1,-1,-2,-1,0
14.400199,2840,0,-1,-1,-2,-1,-1,-1,-1
14.400217,2841,0,-2,-2,-2,-1,-1,-1,0
14.421216,2842,-2,-2,1,-2,-2,-1,0,0
14.421240,2843,-2,-1,-1,-1,-1,-1,-1,-2
14.422807,2844,-2,-1,-1,-1,0,-1,-2,-1
14.422822,2845,-1,0,1,1,-1,-1,-1,-2
14.436413,2846,-2,-1,-1,0,-1,-1,-1,0
14.436431,2847,-1,-2,-1,-1,0,-2,-3,0
14.438065,2848,-1,0,-1,-1,0,-2,0,-2
14.438080,2849,-1,0,-1,-2,-1,-2,-1,-2
14.458695,2850,1,-1,-2,0,0,0,-2,-1
14.458725,2851,0,-2,-1,0,-1,-1,-2,-1
14.461303,2852,-1,-2,-3,0,-2,-1,-1,1
14.461319,2853,-2,-1,-1,-2,0,-1,-1,0
14.482044,2854,-2,0,-3,-1,-1,-1,1,-2
14.482080,2855,-2,0,-2,0,-1,-2,0,-2
14.483667,2856,1,-2,-2,-2,-1,-1,0,-1
14.483678,2857,-1,-2,-2,-2,-1,0,-1,-2
14.495262,2858,-1,-1,-1,0,-1,0,-2,0
14.495290,2859,-2,-2,0,0,-2,0,1,-1
14.504535,2860,-3,1,-1,-1,-2,1,-1,-1
14.504546,2861,0,1,-1,-2,-1,1,-2,-3
14.518978,2862,-1,-1,0,-1,-1,-2,-1,0
14.518995,2863,-3,-1,-1,-2,0,1,-1,1
14.520117,2864,0,-1,-1,-2,-1,0,-2,0
14.520134,2865,-2,-1,0,-1,-3,-1,-1,0
14.541599,2866,0,-2,0,0,-1,-1,-3,-2
14.541635,2867,-1,0,-2,0,0,-2,-2,-1
14.542717,2868,-2,-2,-1,1,0,-2,0,-1
14.542725,2869,0,-1,-3,-1,-2,-1,-1,1
14.555474,2870,-1,-2,-2,-2,-2,-1,-1,-1
14.555493,2871,1,0,0,-2,-3,0,-1,0
14.562314,2872,-2,-2,-1,0,-1,0,-2,-1
14.562332,2873,-1,-1,-2,-1,-2,-1,0,0
14.579091,2874,-2,0,-1,-1,0,0,-1,-2
14.579107,2875,-1,-2,0,-1,-1,-1,0,0
14.580846,2876,-2,0,0,-1,-1,-1,-2,-1
14.580929,2877,1,-1,0,-1,-2,-2,-2,1
14.601613,2878,1,0,0,-1,-2,-3,-1,-1
14.601627,2879,-1,-1,-1,-1,-1,-2,0,-1
14.602636,2880,0,-1,0,-1,-1,1,-1,-2
14.602652,2881,-1,-1,-1,-1,0,0,-1,-1
14.616618,2882,-2,-1,-1,-1,-2,-1,1,0
14.616640,2883,1,0,-1,0,-2,-1,0,-2
14.622289,2884,-2,-1,0,-1,1,-1,0,1
14.622306,2885,-1,-1,-2,-2,-1,-2,-1,-2
14.639152,2886,-1,-1,0,-1,-2,0,-1,-2
14.639177,2887,0,-2,-1,-1,-1,-2,-1,-1
14.640334,2888,0,-1,-1,-2,-1,-2,0,0
14.640344,2889,-1,-2,0,-1,-3,0,0,-1
14.661580,2890,0,-2,-2,-1,-1,-1,0,-1
14.661610,2891,-1,-1,0,-1,1,-2,0,0
14.663553,2892,-1,-1,0,0,-1,-2,-2,-2
14.663566,2893,-1,-2,0,1,-1,-1,-1,0
14.676144,2894,0,0,-2,0,-2,-1,-1,-3
14.676179,2895,-2,1,-1,-1,-1,0,-1,-2
14.683000,2896,0,-2,-1,-1,-1,0,-1,-2
14.683044,2897,-2,-2,-1,-2,-2,-1,0,-1
14.698584,2898,0,-1,0,0,-1,-2,-2,0
14.698605,2899,-1,-1,-1,1,-3,-1,-1,-1
14.700207,2900,-1,-1,-2,-2,-1,0,-1,-2
14.700298,2901,-1,-2,0,1,-1,-1,-2,0
14.721164,2902,1,0,0,0,0,-1,-2,-1
14.722720,2903,-2,-3,-1,-1,-1,-2,-2,1
14.722731,2904,-1,-1,-1,-1,-2,-1,-1,1
14.722732,2905,0,0,-1,-1,-1,0,0,-1
14.735558,2906,-1,0,2,-1,0,1,0,-1
14.735580,2907,0,-1,0,-1,-1,0,-1,0
14.742387,2908,-1,0,-1,-1,-1,-2,-1,-3
14.742405,2909,-1,0,-1,-1,1,0,0,-1
14.758620,2910,-1,-2,-1,-1,-2,-2,0,-1
14.758642,2911,1,-2,-2,1,-2,0,0,0
14.760216,2912,-1,0,-1,-2,-1,-2,-1,0
14.760307,2913,-1,0,-2,-1,-2,-1,-1,-1
14.781980,2914,0,-2,-1,-2,-1,-1,-1,1
14.781999,2915,-1,-1,-2,-1,-2,0,-1,-1
14.783338,2916,1,-1,0,-2,0,-1,-1,-1
14.783358,2917,0,0,-1,-1,0,-2,-2,-1
14.795934,2918,-2,-1,-1,1,0,-1,-1,-1
14.795951,2919,-3,0,-2,-1,-2,-2,0,1
14.803424,2920,-1,0,-1,0,0,0,-1,-1
14.803435,2921,-1,0,-2,-3,-2,-1,1,-2
14.819443,2922,-2,0,-1,0,-3,-1,-2,-1
14.819455,2923,-1,-1,0,-2,0,0,-1,-2
14.820123,2924,-1,0,-1,0,-2,-2,-1,0
14.820134,2925,0,-1,1,0,-1,1,-2,-1
14.841238,2926,0,-1,-1,-1,0,-1,0,-1
14.841264,2927,0,-1,-1,-2,-1,-3,0,0
14.842899,2928,-1,-2,-1,0,-2,0,0,-1
14.842911,2929,0,0,-1,-1,-2,1,-1,-1
14.854796,2930,-1,-1,0,0,-1,0,-1,-1
14.854824,2931,1,-1,0,-2,1,0,-2,-2
14.864568,2932,-2,-1,-2,0,0,0,0,-1
14.864580,2933,0,-2,-1,0,-1,-2,-2,0
14.878795,2934,-1,-1,-2,-1,-1,0,0,-2
14.878812,2935,0,0,0,-1,-1,-2,-1,-2
14.880332,2936,-1,1,-1,0,0,-1,1,0
14.880385,2937,-1,-2,-1,-1,-2,0,-2,0
14.901174,2938,0,-1,-2,-2,-1,-1,-1,0
14.901191,2939,-1,-2,-1,-1,-1,-1,0,0
14.902793,2940,0,0,-1,-1,-1,-1,0,-1
14.902813,2941,0,-1,0,-2,0,-3,-1,-1
14.914801,2942,0,0,-1,-1,-1,-1,-2,0
14.914815,2943,0,1,-2,-2,-1,-1,-2,-2
14.924390,2944,-1,-1,-2,-3,-2,-2,-1,0
14.924406,2945,-1,-2,0,-1,-1,-1,1,0
14.938703,2946,0,-2,-1,-1,1,-1,-1,-1
14.938722,2947,-1,-2,0,0,-2,-1,-2,0
14.940210,2948,-2,-1,-1,0,-1,0,0,0
14.940231,2949,-1,-1,-2,1,0,-1,0,-1
14.961922,2950,-1,0,-2,-1,0,0,-1,0
14.961934,2951,0,-1,0,0,-1,-2,0,0
14.962734,2952,1,-1,-1,-1,0,-1,-1,-2
14.962785,2953,-1,0,0,0,-3,0,1,-2
14.974930,2954,-2,0,-2,-1,-2,0,0,0
14.976942,2955,-1,-2,-1,-2,-1,-1,0,-1
14.984236,2956,-1,-1,-1,-1,-1,-2,0,0
14.984247,2957,-1,-1,-1,-2,-2,-1,-1,-2
14.998712,2958,0,0,0,0,-1,-1,-2,-1
14.998746,2959,-1,-2,-1,-1,1,-1,-1,0
15.000315,2960,-1,-1,-2,0,-2,0,-2,-1
15.000374,2961,-1,-2,-1,-1,0,-2,-1,-1
15.021558,2962,-1,-1,0,-1,-1,-1,-1,-1
15.021587,2963,0,0,-1,-1,0,-1,0,-2
15.023168,2964,-1,-1,1,-1,0,-2,1,-1
15.023179,2965,1,0,-3,-1,0,-1,-1,-2
15.035068,2966,-1,-2,0,-1,-1,-1,-2,-1
15.035085,2967,0,0,-1,-1,-2,0,-2,0
15.044015,2968,0,0,-1,-2,0,-1,-2,-3
15.044028,2969,0,0,-1,-1,-1,-2,-1,-1
15.058711,2970,-2,-3,-1,0,0,-1,-1,-1
15.058728,2971,-1,-1,0,0,-2,0,-2,0
15.060151,2972,0,-1,0,-3,0,1,0,0
15.060209,2973,-1,0,-1,-1,-1,1,-2,-2
15.081204,2974,-2,1,-2,-2,0,-1,0,-1
15.081221,2975,0,-1,-1,-1,-1,-2,-1,-1
15.083085,2976,-1,-2,0,-2,-1,-1,-1,1
15.083097,2977,-1,-2,-1,-2,-1,0,0,1
15.095135,2978,-1,0,-1,-1,-2,-1,-2,0
15.095169,2979,-1,-1,-2,-1,-1,-1,0,0
15.104471,2980,0,0,0,-1,-2,-1,0,-2
15.104484,2981,-1,0,0,-1,-3,0,-1,-2
15.120627,2982,0,-1,0,0,-1,-1,0,-1
15.120642,2983,-2,1,0,-2,0,-2,-2,-1
15.120646,2984,0,0,-2,0,-3,-1,-2,-1
15.120649,2985,-2,1,-1,0,-1,-3,-1,-1
15.141665,2986,-2,0,-1,0,-2,-1,-1,-1
15.141699,2987,-1,-1,1,-2,-2,0,-1,0
15.143470,2988,-1,-1,-2,-1,-1,-1,-1,0
15.143481,2989,-1,0,-1,0,0,-1,-2,0
15.154910,2990,-1,-1,-1,-1,-2,0,0,-2
15.154927,2991,0,-2,-2,-1,-1,-1,-2,-2
15.164694,2992,-1,-1,-1,-2,0,-1,-2,-1
15.164705,2993,0,0,1,0,0,1,-1,0
15.178588,2994,0,0,0,-1,-1,-2,0,0
15.178609,2995,-2,0,-2,0,0,-1,0,0
15.180183,2996,-1,-1,-1,0,0,-3,-2,-2
15.180200,2997,-1,-2,-1,-1,0,-1,0,0
15.201086,2998,0,-1,0,-2,-2,0,-1,-1
15.201109,2999,0,-1,0,0,-3,0,0,0
15.202849,3000,1,-2,-1,0,-2,0,-1,0
15.202929,3001,-1,-1,-2,-2,0,-1,-3,0
15.214747,3002,-1,0,-2,-1,-1,-2,-1,-1
15.214760,3003,-2,-1,-1,0,0,-1,0,-1
15.224085,3004,-2,1,-2,1,0,-3,0,-2
15.224097,3005,0,-2,-1,-3,-2,-1,-1,-1
15.238734,3006,-1,-2,0,-2,-1,0,-1,-1
15.238753,3007,-2,-1,0,0,-2,-2,-1,-1
15.240199,3008,-2,-1,1,0,-1,-2,-1,-1
15.240221,3009,0,0,-3,0,-2,-1,-3,-2
15.262126,3010,1,-1,-2,0,1,0,-1,1
15.262143,3011,1,-1,0,-1,-1,0,-2,-1
15.262646,3012,-1,-1,-1,0,-1,0,-2,0
15.262660,3013,-2,0,-2,-1,-1,-1,-2,0
15.283806,3014,-1,-2,-1,-1,0,-3,0,-1
15.283829,3015,-1,-1,-1,-2,-1,-1,-1,-2
15.285364,3016,-2,-1,-1,-2,-1,0,0,-2
15.285376,3017,0,-1,-1,-3,-2,-2,-1,-2
15.298634,3018,-2,-1,0,0,-2,-1,-1,-1
15.298653,3019,0,-3,1,0,-1,1,-3,0
15.300157,3020,-1,-1,-2,-2,-1,0,-2,0
15.300171,3021,0,0,-2,-1,0,-1,0,-2
15.321758,3022,-1,-1,-1,-1,-1,-1,-1,-1
15.321806,3023,-1,-1,-3,-2,-2,-1,1,-2
15.324133,3024,0,0,0,-2,-1,-1,-2,-2
15.324145,3025,-2,-2,0,-1,-1,1,-1,1
15.344137,3026,-1,-2,-1,-2,1,-1,-1,0
15.344166,3027,0,0,0,-1,0,-1,0,0
15.345175,3028,-1,-1,-2,-1,-2,-2,0,0
15.345192,3029,1,-1,-1,-2,-1,-1,1,-1
15.358776,3030,-1,-1,-1,0,0,-2,0,-1
15.358800,3031,-1,-2,-1,0,-2,-1,-2,-1
15.360342,3032,-1,1,-1,0,-1,-1,-2,-2
15.360367,3033,-2,0,0,0,-1,-1,0,-1
15.381542,3034,-1,-1,-2,-2,-1,0,-1,0
15.381564,3035,0,-1,-1,-2,0,-1,-1,-1
15.382735,3036,-1,-2,-2,-1,0,0,-2,-1
15.382746,3037,-2,-1,-1,1,-2,-1,1,0
15.411128,3038,-2,-2,-1,0,-1,-1,-2,-1
15.411149,3039,0,0,0,-1,-2,-2,0,0
15.412837,3040,0,0,1,-2,0,0,0,0
15.412878,3041,-1,-1,-1,0,0,-1,-1,-1
15.417584,3042,0,-1,0,0,-1,-1,1,-1
15.417656,3043,-2,0,-1,0,0,-1,-1,0
15.427304,3044,0,-1,-2,-1,-3,-2,1,-1
15.427316,3045,0,-2,0,0,-2,-1,-2,0
15.441498,3046,0,1,1,-1,-2,-3,0,-2
15.442510,3047,-1,-1,-1,-1,1,-1,-3,0
15.442664,3048,-2,0,0,0,0,-1,-1,-1
15.442698,3049,-1,0,-1,-1,0,-2,-2,-1
15.464667,3050,-1,-1,-2,-1,-2,0,-1,0
15.464678,3051,-2,-1,-2,0,0,0,0,-1
15.465172,3052,0,-2,-1,-2,-2,-1,-2,1
15.465190,3053,-2,-1,-2,-2,-1,-1,-1,-1
15.478201,3054,-2,0,1,0,-2,-1,-3,-1
15.480185,3055,0,-1,-1,-2,-1,-3,-2,-2
15.484902,3056,-2,-1,0,0,-2,-1,-1,-3
15.484931,3057,-2,-2,0,-2,-1,0,-1,-1
15.501366,3058,-1,0,-2,-1,-2,0,-1,1
15.502808,3059,-1,-1,-2,-1,-1,0,-2,-2
15.502821,3060,-1,-2,-2,0,-3,-2,1,0
15.502871,3061,-1,0,-2,0,-1,-1,-1,-1
15.524240,3062,-1,0,0,-1,-1,0,0,-1
15.524262,3063,-1,-1,0,-1,-1,-1,0,-1
15.525855,3064,-1,1,-1,-1,-1,-2,-2,-1
15.525966,3065,-1,1,-2,0,-1,-1,-2,-1
15.537312,3066,-1,0,-2,-1,0,-1,-2,0
15.537330,3067,-1,-1,0,-2,-1,-1,0,-1
15.546653,3068,-1,-1,-1,0,-1,-1,-1,-1
15.546664,3069,1,-2,-1,0,-1,-1,-1,0
15.561392,3070,1,0,0,-1,-1,-1,-1,-2
15.561407,3071,-1,-1,1,0,-1,0,-1,-1
15.562696,3072,-1,-1,1,0,-1,0,-1,-1
15.562721,3073,-1,0,0,0,-2,-1,-1,-2
15.583677,3074,-3,-1,-1,-1,-3,-3,0,-1
15.583699,3075,0,0,-1,-2,-2,-1,-1,-1
15.585211,3076,1,-2,-1,0,-1,0,-1,-1
15.585229,3077,0,-3,0,-1,-1,-2,1,-1
15.597289,3078,0,-2,1,0,0,-1,-1,-1
15.597307,3079,-2,0,-1,-2,-4,-1,-2,1
15.614995,3080,-1,-1,0,1,0,-1,-1,0
15.615008,3081,1,-1,1,-1,-2,0,0,0
15.622964,3082,-1,0,-2,1,-1,0,0,-1
15.622986,3083,0,-1,-1,1,0,-4,-1,0
15.622990,3084,-2,-1,-1,-2,-1,-1,-2,-1
15.622992,3085,-2,1,-3,-2,0,-1,-1,-1
15.643609,3086,0,-3,-1,-2,-1,0,-3,-2
15.643626,3087,1,-1,-2,0,0,-2,-1,-1
15.645345,3088,-1,-2,-1,-1,0,-1,-2,-1
15.645493,3089,-2,0,1,1,0,-2,-2,-1
15.657550,3090,-1,0,-1,0,-1,0,0,-3
15.657572,3091,0,-1,0,0,0,0,-1,-2
15.672660,3092,-2,-2,-1,-1,-1,-2,-1,-1
15.672701,3093,1,-2,-1,-2,-2,-2,-2,-2
15.681900,3094,0,0,-1,-1,0,-4,-1,0
15.681937,3095,-2,-1,-2,-1,0,-1,-2,-1
15.683979,3096,0,-2,0,0,-1,-2,-1,-1
15.683996,3097,-1,-3,0,0,-1,-1,0,-1
15.703615,3098,-1,-1,0,-1,0,1,-1,-3
15.703633,3099,0,-2,-1,-1,0,0,-1,-2
15.705357,3100,0,0,-1,-1,0,-1,-2,0
15.705423,3101,-2,0,-1,-1,0,0,-2,0
15.717268,3102,-1,0,1,-2,-1,-2,-3,0
15.717285,3103,-2,-2,0,-2,-1,0,1,0
15.727064,3104,-1,-1,0,-1,0,-1,-1,-1
15.727078,3105,-2,-2,-1,1,-2,-1,-1,-2
15.741705,3106,0,-1,-2,-2,-1,-1,-2,-1
15.741724,3107,-1,0,0,0,0,-2,0,-1
15.743702,3108,0,-1,-1,0,-1,-2,0,-2
15.743720,3109,0,0,-4,-2,1,-2,-1,1
15.764403,3110,-1,-3,-1,-2,-2,0,-1,-1
15.764415,3111,2,-1,-2,-2,-2,-1,-1,1
15.765113,3112,-2,-1,0,-1,0,0,0,-1
15.765128,3113,-1,-1,1,-2,-1,-1,-1,-2
15.777583,3114,-2,0,-1,-1,-1,-1,-2,1
15.777613,3115,-1,-1,0,-1,0,0,-1,-1
15.787622,3116,-2,0,-1,-2,-2,-1,-1,-1
15.787633,3117,-1,-1,1,-1,-1,0,-1,-1
15.801555,3118,-2,-2,-2,-3,0,0,-1,0
15.803523,3119,-1,-3,-2,-1,0,-2,-1,-1
15.803534,3120,1,-1,-2,-1,-1,-2,-1,-1
15.803536,3121,1,0,-2,-1,-2,0,-2,-2
15.823698,3122,1,-1,-1,0,-1,0,-1,-3
15.823714,3123,-3,1,-1,0,-1,-1,0,-2
15.825744,3124,-1,0,0,0,-2,-1,0,0
15.825757,3125,-1,-1,-1,-1,0,-1,0,1
15.837470,3126,-1,-2,0,0,-1,-1,0,-1
15.837487,3127,-1,-1,-1,-3,0,0,-2,-1
15.847023,3128,-1,-1,-2,1,0,-1,0,-1
15.847034,3129,0,1,1,-1,0,-2,-1,-1
15.861192,3130,0,0,0,-3,-2,-2,-1,-2
15.861214,3131,1,-2,-1,-2,-2,-1,-1,0
15.862615,3132,1,-1,-1,-2,-3,0,0,-1
15.862635,3133,-2,0,-2,-1,-1,0,-3,0
15.891184,3134,-1,0,-2,0,-1,0,0,-2
15.891202,3135,-2,-1,-2,0,-1,1,-1,-1
15.892623,3136,-1,-1,-2,0,0,1,-2,0
15.892640,3137,0,-1,-1,0,-1,0,-1,-2
15.897799,3138,0,-1,-1,-1,-2,-2,-1,-1
15.897816,3139,-1,-1,0,-1,-2,0,-1,-1
15.906227,3140,0,0,0,-2,0,0,-1,0
15.906243,3141,-1,0,-2,0,-2,-1,-1,-3
15.921064,3142,-1,0,-2,-1,0,-1,-1,-1
15.921079,3143,0,1,-1,-1,-2,-3,-2,-1
15.922591,3144,-2,-1,-1,-1,-1,-1,-1,-1
15.922635,3145,-1,-3,0,-3,-3,-1,-1,-1
15.942632,3146,-3,0,0,-2,0,-1,0,1
15.942649,3147,0,0,0,-2,-1,-1,-1,0
15.951413,3148,0,-1,0,-2,-1,0,1,-1
15.951504,3149,0,-2,-1,0,0,0,0,0
15.966527,3150,-2,-1,-2,-1,-2,-1,-1,0
15.966538,3151,-2,-1,0,0,-1,-1,-2,-1
15.967799,3152,-1,0,-2,-1,-1,-1,-4,-2
15.967814,3153,-1,-1,-2,0,0,0,1,-1
15.982195,3154,0,-2,0,1,-1,-1,-1,1
15.982214,3155,-1,-1,0,-2,-1,-2,-1,0
15.982837,3156,-1,-1,-2,0,-2,-1,0,-2
15.982858,3157,-2,-1,-2,-1,-1,-1,-2,0
16.003678,3158,-2,0,-1,-1,-2,0,-1,-1
16.003695,3159,1,0,-1,0,-1,-1,0,-1
16.005129,3160,-2,-2,0,-1,1,-1,0,-2
16.005144,3161,-1,-2,0,-1,0,-2,-2,-1
16.017422,3162,0,1,-1,-1,-2,-1,-1,-2
16.017446,3163,-2,-1,-2,-2,-3,-2,-1,-1
16.032670,3164,0,-2,-1,-1,-1,-1,0,-1
16.033593,3165,-1,-2,-2,0,0,1,1,1
16.041582,3166,-2,-3,-1,-1,1,0,-2,-1
16.041615,3167,-1,-2,-2,-1,-1,-1,-1,-1
16.043339,3168,0,-2,-2,-3,0,-1,-2,0
16.043351,3169,0,2,-2,-1,-2,-1,0,-1
16.063591,3170,-2,-1,1,-2,-1,-1,0,0
16.063606,3171,-2,-2,-2,-1,-1,0,-1,-2
16.065325,3172,-2,-1,-1,0,-3,-1,-1,-1
16.065380,3173,0,0,0,-1,-3,-1,-1,-1
16.077202,3174,1,0,-2,-2,1,2,0,-2
16.077215,3175,0,-1,-1,0,-1,1,-1,-1
16.087568,3176,-2,-1,0,0,-1,-1,-1,0
16.087585,3177,-1,-1,-1,-1,-2,-1,-1,0
16.101090,3178,1,1,-1,0,-4,-3,-2,1
16.101108,3179,0,0,0,-1,1,-1,1,0
16.102827,3180,-1,0,0,-1,-1,-1,-1,-1
16.102843,3181,0,-1,-1,-2,0,-2,-1,-1
16.123883,3182,-2,-1,-1,-1,-1,-2,0,-1
16.123896,3183,-2,0,-1,0,-1,-2,-1,-1
16.125251,3184,0,-1,-1,0,-2,-1,0,0
16.125264,3185,-1,0,1,-1,-1,-3,0,-1
16.138791,3186,-1,-3,-1,0,-1,-3,-2,-2
16.138809,3187,-1,-1,-1,-2,-2,-1,-1,-1
16.152556,3188,-1,0,-1,-2,0,-1,0,-1
16.154876,3189,-3,-1,-2,-2,-1,-1,-1,-2
16.160678,3190,1,-4,0,0,-1,-1,-1,0
16.160697,3191,-2,-3,0,1,-1,1,0,-1
16.170502,3192,-1,-2,-1,-2,-2,-1,-3,0
16.170526,3193,0,-1,0,0,-2,0,-3,-2
16.185686,3194,-1,-1,-2,0,-3,-1,-3,-3
16.185699,3195,-1,0,-2,-1,-1,-1,0,-1
16.185702,3196,-1,-1,-2,0,-2,-2,0,-1
16.185704,3197,0,0,0,-1,-1,-2,0,-1
16.206227,3198,0,0,-1,-1,-1,0,0,-1
16.208219,3199,-1,0,-1,0,0,-1,-1,0
16.208232,3200,-3,0,-2,-1,-2,-1,0,-1
16.208274,3201,-2,-1,-2,-2,-1,1,-1,-1
16.220437,3202,0,-1,0,-1,-1,-2,-1,-1
16.220459,3203,0,0,-1,-1,-1,-1,-1,-1
16.227577,3204,-1,-2,0,-1,0,-1,0,1
16.227612,3205,-1,1,-2,-2,-1,-1,-2,0
16.243681,3206,-2,1,0,-3,-1,-1,0,0
16.244785,3207,-1,-1,0,-1,-2,-1,-1,-2
16.245266,3208,-1,-1,-1,-1,0,-2,-2,-1
16.245279,3209,0,0,-1,0,-2,1,-2,0
16.266426,3210,-1,-3,-2,1,-2,-1,-1,0
16.266538,3211,-1,0,0,-1,0,-1,0,-1
16.267864,3212,-2,0,-1,0,0,-1,-2,-2
16.267885,3213,0,0,-1,0,-1,-1,-1,-1
16.280446,3214,-2,1,0,0,-1,-1,-1,0
16.280465,3215,-2,-2,-2,-1,-1,-1,-2,-1
16.287506,3216,0,-2,-1,-1,0,0,-1,0
16.287531,3217,-1,-4,-2,0,-1,-1,-1,0
16.304226,3218,0,0,0,-1,0,-1,0,-2
16.304260,3219,1,-1,-1,0,-2,0,-1,0
16.305977,3220,-1,0,-1,-1,-1,0,-2,0
16.305988,3221,-1,-1,-1,-2,-1,0,-1,-1
16.327020,3222,-1,-1,-1,0,-1,0,0,-1
16.327033,3223,-1,-1,-1,0,0,-2,-1,-1
16.327687,3224,0,-1,-1,-2,-2,-1,-1,-1
16.327707,3225,1,-2,-1,-1,-1,-2,-1,0
16.342596,3226,0,0,0,-2,-1,0,-1,-1
16.342608,3227,-3,0,-1,-2,-2,0,-1,-1
16.347682,3228,0,0,-1,-2,-3,-1,0,0
16.347717,3229,-1,-1,-1,-1,-2,-1,0,-2
16.363624,3230,0,1,-1,0,-1,0,-2,1
16.363645,3231,0,-1,-1,-1,-2,0,0,1
16.365232,3232,-1,-1,0,0,-1,-2,-2,-2
16.365247,3233,-2,-1,-1,-2,-1,-1,-2,0
16.386260,3234,-1,-1,-1,0,-2,-1,-1,-1
16.386296,3235,-2,-1,-2,-1,-1,0,-1,0
16.387816,3236,0,0,-1,-1,-1,0,-1,-1
16.387942,3237,-2,0,-1,0,0,-2,-2,1
16.400809,3238,-2,0,-2,0,-1,-2,-3,-1
16.400827,3239,-1,-2,-1,-1,-2,-1,-1,0
16.407208,3240,-1,0,0,-1,-2,-1,0,-1
16.407225,3241,-2,-1,0,-1,0,-1,0,0
16.423666,3242,1,-1,0,-2,0,-2,-1,-3
16.423767,3243,0,-2,-1,-2,-2,-2,-2,1
16.425836,3244,1,-1,-1,0,0,0,-1,-2
16.425848,3245,-1,-1,0,0,-2,-3,-1,-2
16.446466,3246,-2,-1,-2,-3,-3,-2,-1,-1
16.447958,3247,-1,1,-1,0,1,-1,-1,-1
16.447969,3248,1,0,-1,-2,0,-2,0,-1
16.447971,3249,0,-1,-2,0,-1,-1,0,-2
16.460890,3250,-2,-2,-1,-1,-1,0,-1,0
16.462746,3251,1,-1,0,-1,-1,-1,-1,-2
16.467366,3252,-2,-1,-1,-1,-1,1,-1,0
16.467384,3253,-2,0,-1,0,1,0,-2,-1
16.484215,3254,0,0,-1,-2,0,-1,0,-1
16.484302,3255,-2,-1,-1,0,0,-1,1,-1
16.489935,3256,-1,1,-1,0,-1,-2,-2,0
16.489953,3257,0,-2,-2,-1,0,0,-1,0
16.506196,3258,-1,1,-1,0,-1,-1,-1,-2
16.507096,3259,-2,1,0,-1,1,0,-2,-2
16.507610,3260,-2,-2,1,-1,-2,-1,-1,0
16.507650,3261,-1,1,-1,-2,0,-1,1,1
16.519828,3262,-1,-1,0,0,-1,-1,-1,-1
16.519850,3263,0,-1,0,-1,-1,-2,0,0
16.530158,3264,-1,0,-1,-1,-1,-1,0,-2
16.530171,3265,1,-1,-1,-1,-1,0,-1,-2
16.543707,3266,1,-2,-2,1,0,0,0,1
16.545292,3267,-1,-1,0,-2,-1,-1,0,-1
16.545303,3268,-1,-2,-1,0,-2,-2,-1,-1
16.545305,3269,-1,-1,-1,0,-1,-2,0,-1
16.566125,3270,-1,0,-1,-1,0,-1,-2,-1
16.566148,3271,-2,-2,-1,-1,0,-2,-1,-1
16.567786,3272,0,-2,-2,0,-1,-1,-2,-1
16.567804,3273,0,0,1,-2,-1,0,-1,-1
16.579718,3274,-1,-1,0,-1,-2,-2,0,-1
16.579734,3275,-1,0,-1,-1,-1,0,-1,0
16.588879,3276,-1,0,-1,-3,-1,-2,-1,0
16.588898,3277,1,-1,-1,-1,-1,-2,-1,-2
16.603796,3278,-2,-1,-1,-2,-1,0,-1,0
16.603824,3279,-1,0,-1,-1,-2,-2,-1,-2
16.605209,3280,-2,-2,-1,0,-1,-1,0,1
16.605265,3281,0,-2,-2,0,-2,-1,-4,0
16.626218,3282,-2,-1,-3,-1,-1,1,-1,-3
16.626242,3283,1,-1,-1,0,0,-1,-1,-1
16.627804,3284,0,0,-1,-1,-2,-1,-1,-4
16.627828,3285,-2,0,-2,-2,0,-1,0,0
16.641093,3286,-2,-1,-2,-1,-2,-2,-1,0
16.641110,3287,-3,-1,-1,-2,-1,-2,-1,-2
16.647395,3288,1,0,-1,-1,-3,-1,0,-2
16.647416,3289,0,-1,1,-1,-1,-1,0,-1
16.663861,3290,1,-1,-1,-1,-1,-3,0,-2
16.663885,3291,-2,0,-2,-1,0,-1,0,-1
16.665329,3292,-2,0,-1,-1,0,0,-2,0
16.665348,3293,-3,-1,-2,-1,-2,-1,-2,-2
16.686118,3294,-1,1,-1,-2,-1,1,-1,-1
16.686141,3295,1,-2,0,0,1,-2,-1,0
16.687660,3296,0,-2,-1,-1,0,0,1,-2
16.687677,3297,-1,-1,0,0,-2,0,0,0
16.700589,3298,-3,-2,0,-3,-2,-4,0,-1
16.700610,3299,-1,-2,-1,-2,-2,-1,0,-2
16.707296,3300,-1,0,-1,-1,0,-2,0,-2
16.707359,3301,-3,0,-1,-3,0,-1,-1,-1
16.723544,3302,-1,-1,-1,-2,-1,-1,-2,-2
16.723561,3303,-1,0,0,0,-2,-1,0,0
16.725041,3304,0,-1,-1,0,-1,0,0,0
16.725054,3305,0,-2,0,0,0,-1,-2,1
16.746332,3306,-1,-1,-1,0,-2,-1,0,-1
16.748433,3307,0,1,-1,-1,0,0,-1,-1
16.748444,3308,-1,-1,0,0,-1,0,-1,0
16.748445,3309,-2,-1,0,-1,-1,-1,0,-1
16.760289,3310,1,-3,-1,-1,0,-1,1,-1
16.760319,3311,0,-2,-1,0,-1,-1,-1,-2
16.768641,3312,-1,0,-1,-1,-3,-3,-1,-1
16.768742,3313,-1,-1,1,0,-1,-2,0,0
16.783542,3314,-2,0,-2,-1,-1,-1,-2,-1
16.783554,3315,-1,0,-2,-2,-1,-1,-1,-2
16.785159,3316,-1,0,-3,-1,2,-1,-2,-2
16.785178,3317,-2,0,-1,-1,0,-1,-1,-1
16.806157,3318,0,1,-1,0,-2,-1,0,1
16.806174,3319,-2,-2,0,-2,-2,-1,-1,-1
16.807878,3320,-1,-1,1,-2,-1,0,0,-1
16.808049,3321,1,-1,-1,-2,-2,-1,-1,-2
16.819981,3322,-1,0,1,0,0,0,-1,0
16.819998,3323,-2,0,-1,-1,-1,0,-1,0
16.829961,3324,0,-1,-1,-3,-2,-1,-1,-1
16.829978,3325,0,-1,-1,0,0,1,-1,-1
16.843846,3326,0,-2,-1,-3,0,-1,0,-1
16.843864,3327,-1,-2,-2,0,-1,-2,-1,0
16.845383,3328,0,-1,-2,-2,-1,-1,-1,-1
16.845398,3329,-2,-2,-3,-1,-1,0,-1,-2
16.866086,3330,0,-2,-1,0,-2,-2,-1,-3
16.866103,3331,-1,1,-1,0,-1,-2,-2,-1
16.867590,3332,-1,-2,0,-2,0,-2,-1,-1
16.867611,3333,-2,0,-1,-3,-2,-1,-2,-2
16.880193,3334,-1,0,-1,0,1,0,-2,-1
16.880211,3335,-1,-2,-2,0,-3,-1,-1,-2
16.889329,3336,-1,1,-2,0,-3,-2,-1,-2
16.889340,3337,0,-2,-2,-1,0,-1,-1,-3
16.904153,3338,-1,-1,-1,0,-1,-1,-1,0
16.905419,3339,0,-1,-2,-2,-1,0,-1,-2
16.905431,3340,0,0,0,-1,-1,-1,-2,0
16.905433,3341,0,0,-2,-1,-1,-2,0,-1
16.926063,3342,1,0,-1,0,-3,-2,-2,-2
16.926080,3343,-2,-2,0,-1,-1,-1,-1,0
16.927628,3344,-2,-1,-1,1,0,0,0,-1
16.927647,3345,-1,0,-1,0,-1,-2,-2,-3
16.939915,3346,0,-1,-1,-1,-1,-1,-1,0
16.939975,3347,-2,0,2,1,-1,-1,0,-1
16.948770,3348,-1,-2,-1,1,-2,-1,-1,1
16.948782,3349,-2,-4,0,-1,-2,-2,0,1
16.963665,3350,0,0,-1,0,-2,-1,-2,0
16.963682,3351,0,1,-1,-1,0,-3,0,-2
16.965549,3352,-1,0,-1,-1,-1,-1,-1,1
16.965576,3353,1,-1,0,1,-1,1,-1,0
16.986120,3354,-2,1,-1,0,-1,1,-1,-1
16.986140,3355,1,-1,-1,1,-1,0,-2,-1
16.987647,3356,-2,-1,-1,0,0,-1,-2,-1
16.987665,3357,-1,-1,-2,-1,-1,0,0,-2
17.000666,3358,-1,0,0,-2,0,-3,0,0
17.000679,3359,0,0,0,-1,0,0,-1,0
17.009058,3360,0,-1,0,-2,-1,-2,-2,-2
17.009071,3361,-2,-2,-1,-1,-1,-3,-2,-2
17.023584,3362,-1,-2,-1,-2,0,0,-1,-3
17.023603,3363,0,-1,-1,-2,-1,0,1,0
17.025221,3364,-1,-1,-1,0,-1,0,-1,-2
17.025312,3365,1,0,0,-1,-1,-1,-1,0
17.046513,3366,-2,-2,-2,-1,-1,-1,-1,-2
17.046524,3367,0,0,0,-1,-2,0,-1,-2
17.047585,3368,-1,0,-2,-3,-1,1,-2,-1
17.047625,3369,0,-2,-1,-1,-1,-1,-2,0
17.059714,3370,-2,-1,-1,0,-1,0,0,-2
17.061815,3371,-1,-2,0,0,-1,-2,-3,-2
17.074729,3372,0,-1,1,1,-1,-2,1,-2
17.074757,3373,-1,2,0,-3,-2,-1,-2,-1
17.083465,3374,-1,0,-2,-2,-1,-2,-1,0
17.084671,3375,0,0,-2,-1,0,-1,-1,-2
17.090024,3376,-1,-2,-2,1,-1,-2,0,0
17.090041,3377,-1,-1,-1,0,-2,-2,0,-1
17.106257,3378,-2,-2,-1,0,0,0,-1,-1
17.106279,3379,-1,-1,-1,-2,0,1,-1,0
17.108076,3380,0,-1,-1,0,0,-1,-2,-1
17.108089,3381,-1,0,-2,0,-1,-1,-1,-2
17.120256,3382,0,1,1,0,1,-1,-2,1
