timestamp,emg1,emg2,emg3,emg4,emg5,emg6,emg7,emg8,label
2.007274,62,-5,-4,-5,-7,-1,12,-27,2
2.007792,-8,9,3,0,-7,-13,-7,4,2
2.009461,-34,-1,0,0,4,26,-3,2,2
2.009466,14,18,-3,-2,-6,-39,0,8,2
2.029483,10,-8,-8,-4,-6,0,-7,4,2
2.029498,7,-1,-1,-2,4,-8,15,8,2
2.030930,39,-8,0,-2,2,6,-4,-2,2
2.030943,-4,28,2,0,-2,10,-4,1,2
2.043213,-26,-29,-3,-6,-1,-3,-2,-10,2
2.043238,-91,-18,0,-2,4,5,-1,19,2
2.053634,17,-32,3,1,-2,-14,2,-2,2
2.053638,-21,44,-4,-1,12,23,-11,-11,2
2.067484,29,-15,-3,-6,-7,-26,-4,7,2
2.067511,-12,-14,-4,-1,0,7,1,-4,2
2.068938,17,25,4,2,-3,1,11,30,2
2.068941,-15,-29,0,-1,0,-2,4,-34,2
2.091031,-20,19,3,0,5,5,12,12,2
2.091040,0,20,-7,-5,-26,-13,-13,10,2
2.091400,-62,-9,-8,-2,-3,1,-5,-6,2
2.091406,16,-16,-12,-8,-4,0,-6,-1,2
2.103173,27,9,-3,2,-1,6,0,1,2
2.103193,21,-6,4,2,5,-8,7,-18,2
2.112125,18,24,5,-4,3,-1,-5,33,2
2.112145,-25,-14,-4,0,-5,1,-5,-13,2
2.127184,17,3,3,0,-1,5,1,1,2
2.127200,-70,11,6,2,7,19,-1,-5,2
2.128749,16,-13,-12,-6,-9,-31,-5,19,2
2.128753,-14,-12,2,3,1,7,-4,-35,2
2.150101,14,10,1,-2,-8,-12,15,13,2
2.150136,30,-21,4,-2,9,-8,-13,1,2
2.152469,15,29,1,2,-13,14,-2,6,2
2.152473,-62,-15,7,1,-5,-7,14,16,2
2.172050,-53,28,-15,-6,0,-11,-12,-22,2
2.172063,31,-19,-5,-1,-1,16,-10,-6,2
2.175247,-39,-11,-1,-1,3,0,1,-16,2
2.175253,70,13,7,1,3,-6,3,38,2
2.186567,-13,-1,8,5,1,10,0,-7,2
2.186579,11,-45,-9,-2,0,-9,-3,5,2
2.193223,-60,9,-6,-5,6,17,-6,-7,2
2.193240,39,-18,2,0,-7,-30,-3,5,2
2.209735,13,-6,0,0,2,7,-4,13,2
2.209765,56,18,4,0,0,-7,5,2,2
2.212619,44,-12,-8,-4,0,-13,0,-38,2
2.212626,-55,-19,-12,-4,2,2,-19,-2,2
2.232295,27,-6,3,2,-2,-3,2,-8,2
2.232313,-2,3,-3,0,2,-6,0,0,2
2.233489,-12,42,7,2,3,4,8,-10,2
2.233568,-16,7,-1,-1,14,5,2,-2,2
2.247080,19,-17,-5,-5,-20,-5,-4,-7,2
2.247101,-40,15,0,-3,-2,0,6,-3,2
2.248442,47,10,6,6,-3,-3,-3,20,2
2.248454,51,-11,0,-3,13,13,8,-19,2
2.269548,-18,-41,-3,1,3,11,-1,14,2
2.269568,-20,29,-12,-5,-7,-22,1,-3,2
2.271366,48,-31,0,3,-2,-1,-2,13,2
2.271377,-18,10,1,0,-8,-2,-2,-2,2
2.292170,15,8,9,2,5,4,0,-5,2
2.292177,-2,8,3,3,1,0,-1,3,2
2.293530,-10,-3,-5,-5,2,-4,-2,20,2
2.293536,17,23,7,4,0,7,-1,-19,2
2.307211,-62,-39,-13,-4,-3,2,-4,-25,2
2.307224,8,2,-9,-2,-2,6,-10,-11,2
2.308505,-20,4,4,1,17,-18,-3,1,2
2.308514,19,13,-1,-3,-16,10,5,8,2
2.329609,12,10,6,2,4,0,1,13,2
2.329624,22,2,2,-2,-1,-4,-5,-5,2
2.332137,3,-36,-5,-1,3,9,-24,-10,2
2.332142,0,51,6,0,-12,-8,2,9,2
2.355199,13,-43,-3,-3,7,-2,-2,0,2
2.355205,-33,-10,-4,1,0,-2,6,9,2
2.355207,38,19,5,3,-3,5,9,6,2
2.355209,-24,-19,-9,-7,-6,-6,-5,-3,2
2.366814,-2,3,1,-3,5,27,-1,-4,2
2.366845,11,-2,3,-1,-5,-45,10,-5,2
2.373551,-3,-11,-2,1,-4,9,-7,11,2
2.373738,-9,-8,-4,-2,-3,-5,-8,-4,2
2.389611,5,-2,1,-1,1,-1,4,7,2
2.389632,-2,29,2,1,3,15,5,-4,2
2.391455,31,-4,-3,-4,2,-6,5,-4,2
2.391477,-54,-12,-3,-1,-7,-4,-2,-2,2
2.412125,-37,5,-5,1,-4,-23,-5,-31,2
2.412145,20,-15,2,1,0,3,-11,1,2
2.413527,6,27,7,1,-5,7,11,-2,2
2.413533,61,5,1,-1,12,2,-7,13,2
2.426489,-10,-2,-4,-1,-3,-20,-9,5,2
2.426510,-36,-12,-6,-6,-12,32,6,0,2
2.433180,13,-1,3,1,9,5,2,-14,2
2.433201,-17,-3,0,2,-2,3,8,11,2
2.449530,-29,22,-1,-2,-4,-8,-4,1,2
2.449546,12,12,4,0,3,0,-4,4,2
2.451073,-13,-7,-4,-2,-7,-3,-2,12,2
2.451093,-15,-29,-1,1,4,8,7,16,2
2.472448,-2,13,-18,-9,-8,-1,-5,-61,2
2.472472,2,-11,-13,-1,-1,-7,-15,-17,2
2.474527,2,3,0,2,-4,2,10,-1,2
2.474533,6,5,2,-2,0,-2,0,0,2
2.486462,37,2,8,0,5,-10,8,23,2
2.486483,-8,-2,3,0,1,3,4,-6,2
2.493202,-35,-4,-6,-2,-6,-9,-8,-14,2
2.493222,2,0,-2,0,3,10,-1,-1,2
2.509602,18,7,2,-1,-9,6,-1,15,2
2.509806,46,18,8,4,8,-2,10,10,2
2.510975,-35,-30,3,1,-1,15,-6,28,2
2.510985,65,-30,-10,-3,-11,-43,-13,6,2
2.532663,-2,-43,-18,-5,1,7,16,-17,2
2.534663,-19,-11,3,2,2,8,7,16,2
2.534667,13,16,4,2,-1,2,-9,1,2
2.534669,-2,26,7,3,5,3,5,-1,2
2.546598,-2,12,4,0,0,0,-7,20,2
2.546614,7,-20,-3,-4,0,-4,-2,-9,2
2.553139,6,5,-1,0,-1,-6,10,-8,2
2.553160,-23,8,-1,1,-2,8,-1,-5,2
2.569827,-2,10,8,2,0,-6,-9,3,2
2.569856,29,27,-1,-2,-2,2,7,19,2
2.571902,-128,-20,-9,-2,-2,-5,-13,-43,2
2.571906,91,-12,3,1,0,0,-3,-12,2
2.591975,-30,-27,-7,-1,-1,7,-3,5,2
2.591997,20,1,5,0,8,-7,-1,-3,2
2.593833,21,-2,-3,-7,-6,-4,-6,9,2
2.593849,-14,-14,4,0,2,10,5,-5,2
2.606504,18,20,6,1,0,1,1,12,2
2.606532,-2,6,2,4,-6,12,6,-4,2
2.613418,20,-44,-10,-7,8,-31,-37,-43,2
2.614928,-7,12,-5,1,-3,2,-2,-2,2
2.630288,-5,29,1,0,2,51,-15,2,2
2.630316,-70,-22,-9,-3,-8,-46,-18,-21,2
2.632981,77,1,2,0,3,10,26,31,2
2.632986,-44,9,-2,-1,1,5,-3,-2,2
2.652060,10,14,1,0,-1,-25,0,-10,2
2.652072,-5,-17,0,-2,-1,16,4,5,2
2.653467,10,20,2,-1,8,0,4,7,2
2.653478,-29,-3,-3,-7,-17,-15,-20,-20,2
2.665668,56,25,7,-2,1,10,8,24,2
2.665680,28,-29,-4,0,-1,-3,-11,-4,2
2.675542,-7,27,-5,-3,-3,-2,12,-2,2
2.675548,28,-37,-10,-3,1,-1,-23,-23,2
2.689641,14,19,1,-1,1,-9,-12,7,2
2.689669,18,-2,4,-1,-2,0,1,4,2
2.691557,-2,-18,2,0,-2,3,3,-3,2
2.691561,-36,27,0,-3,0,2,9,8,2
2.712054,-2,-20,-4,-2,1,13,-2,-51,2
2.712060,6,12,-1,-2,-1,-34,3,8,2
2.713551,32,-15,1,-1,-5,2,-4,-8,2
2.713563,-80,-5,3,2,0,-3,6,8,2
2.727409,50,-15,-6,0,1,7,-12,37,2
2.727420,-31,12,5,-2,-5,-8,8,-1,2
2.734941,-26,-33,-3,-4,-3,4,-5,-4,2
2.734948,18,-3,-3,-3,15,3,4,-8,2
2.749952,20,3,7,-1,-20,-22,-2,20,2
2.750067,9,10,4,2,3,7,-2,-12,2
2.751667,31,10,-2,-2,-14,27,0,4,2
2.751671,37,28,2,2,19,13,8,15,2
2.774610,-36,-2,-9,-4,-4,-12,13,-12,2
2.774622,44,21,2,2,4,3,1,6,2
2.774625,-74,-36,-12,-3,-3,-14,2,-21,2
2.774626,28,-17,-1,-1,-7,1,9,-6,2
2.786003,-17,-13,3,-1,3,0,5,-15,2
2.786024,10,15,-4,-1,-8,7,-6,-2,2
2.796840,26,27,5,0,7,-11,2,1,2
2.796848,-76,-15,1,6,8,27,3,7,2
2.809626,26,12,4,0,-4,-14,3,16,2
2.809647,-48,-21,-9,-3,1,7,-3,3,2
2.811396,-23,17,1,-2,-3,-5,-16,2,2
2.811415,20,8,0,-1,1,-14,-4,-17,2
2.832635,-5,0,-1,-1,-3,3,10,15,2
2.832662,-45,-2,-6,-4,-5,3,-11,-23,2
2.834278,34,8,6,4,7,4,10,14,2
2.834283,4,37,-3,2,-8,21,3,20,2
2.846496,-12,-6,-3,-3,-4,-47,-9,-21,2
2.846533,-42,-28,-6,-6,0,9,12,-10,2
2.856487,-14,-24,-8,4,-2,-12,-14,1,2
2.856495,12,3,3,-4,-8,-1,3,4,2
2.869596,-16,8,-9,-4,0,6,-9,-7,2
2.869601,13,-3,5,-1,1,6,-1,-19,2
2.871110,34,-3,3,5,3,-3,2,-35,2
2.871123,-20,-19,-12,-7,-8,-10,2,-6,2
2.892114,11,25,4,2,7,6,-14,6,2
2.892137,-3,-5,0,-1,-12,4,1,7,2
2.893543,-15,-29,3,1,-8,-25,3,24,2
2.893558,71,23,4,1,-1,18,3,1,2
2.906094,-98,-13,-4,2,5,0,-13,-32,2
2.906115,41,-1,-9,1,3,13,0,12,2
2.916422,-29,7,1,-1,-3,2,0,2,2
2.916428,5,6,7,3,-7,-15,1,8,2
2.932185,18,-23,3,2,10,10,9,-1,2
2.932189,-14,-21,1,-2,-2,-31,-22,-7,2
2.932192,68,49,-5,-6,-2,13,9,17,2
2.932194,-29,-35,-2,1,-4,-13,-14,-19,2
2.952574,-47,1,-4,-2,14,-6,-2,3,2
2.952590,-9,12,3,-1,-14,5,0,-2,2
2.953926,-17,53,-4,-2,1,-2,-1,0,2
2.953929,21,-13,3,-3,0,-12,-1,5,2
2.966136,12,10,-1,-2,-3,10,4,0,2
2.966156,-41,-13,-2,-1,5,-1,-5,3,2
2.975602,-22,-13,0,-5,0,0,-2,-10,2
2.975606,-21,-25,-6,-4,-16,-4,-19,-1,2
2.989961,33,4,0,-5,11,16,4,-3,2
2.989991,31,-3,3,0,2,2,6,-3,2
2.992565,4,12,1,-3,-3,-1,1,16,2
2.992570,-39,-20,-5,-4,-1,-7,10,-20,2
3.012018,6,-22,3,3,-2,-2,-5,12,2
3.012125,28,27,0,-3,1,-14,0,11,2
3.013528,-30,-27,0,2,5,23,8,-9,2
3.013540,6,33,1,4,0,-3,5,20,2
3.025672,-27,6,-8,0,-5,-6,-7,-24,2
3.025694,27,15,4,0,9,4,4,6,2
3.035573,7,-4,0,0,-26,12,-4,-10,2
3.035577,5,19,1,-5,20,28,0,-6,2
3.050266,9,-2,-7,-3,-14,-34,0,25,2
3.050304,-24,-13,-3,2,1,4,-9,-42,2
3.052644,36,-4,-4,1,3,-3,14,-2,2
3.052647,-31,-21,-4,-1,2,-5,1,3,2
3.072088,9,-2,5,-1,-6,12,2,5,2
3.072110,10,11,0,-1,-2,-17,-13,6,2
3.073875,-6,25,1,-5,4,-14,-2,4,2
3.073900,15,2,5,0,-1,5,7,2,2
3.085609,7,-8,-3,-6,5,-6,7,-17,2
3.085622,-98,-26,-15,-2,-6,2,-19,-40,2
3.095853,115,0,7,4,4,1,3,21,2
3.095858,-11,9,-6,-1,-5,-5,-3,-3,2
3.109544,19,5,1,1,-1,0,-4,-8,2
3.109565,-15,14,3,-4,0,8,9,4,2
3.111271,-22,-2,0,-2,1,-4,-11,4,2
3.111302,-2,-26,-6,1,-1,-14,-2,-33,2
3.132238,10,-1,2,-1,-4,-10,-4,15,2
3.132243,39,33,4,0,1,8,8,15,2
3.133594,-60,-43,-11,-4,-7,-8,-13,-41,2
3.133606,-37,17,2,-2,9,0,4,18,2
3.154895,-35,-10,1,1,-10,-12,-5,1,2
3.154916,50,7,0,2,-5,2,-2,5,2
3.156954,-10,-14,-5,-4,7,-3,2,-2,2
3.156964,12,29,4,-2,-11,-2,5,7,2
3.169817,45,-5,8,3,1,32,8,-9,2
3.169839,-68,-16,-17,-4,-5,-60,-46,1,2
3.171978,-13,15,4,3,1,22,11,8,2
3.171981,34,-19,1,-2,-7,-10,-1,5,2
3.192211,28,12,3,3,5,10,12,9,2
3.192233,13,-4,4,9,4,9,11,-11,2
3.193967,-29,-22,-3,-2,-1,-7,-10,10,2
3.193971,-30,17,-4,-4,-1,-3,-9,-23,2
3.214525,-25,10,1,0,-5,-9,-18,8,2
3.214542,30,-20,-3,-4,1,13,16,13,2
3.216119,20,6,-6,-3,-5,-9,-12,-10,2
3.216157,40,1,2,5,3,9,6,14,2
3.229507,6,-2,-5,-2,-3,-5,-5,-14,2
3.229523,-20,-2,4,-1,12,14,8,19,2
3.230933,-13,-1,-5,1,-21,-1,-5,-7,2
3.230945,-21,-24,-5,-3,-12,-12,-8,-10,2
3.252075,-7,-1,-1,-2,2,3,-2,-2,2
3.252095,-8,-15,0,-3,2,1,4,8,2
3.254209,5,25,5,-2,9,0,4,-2,2
3.254213,3,-12,3,5,3,-6,-5,-15,2
3.274598,6,-25,-21,-5,-10,-11,-14,-14,2
3.274606,58,2,6,2,0,5,16,-1,2
3.276111,7,16,3,-1,6,-5,13,1,2
3.276174,44,7,4,0,-7,-6,-20,8,2
3.288956,-66,-13,-1,-2,12,8,9,7,2
3.288965,20,11,-2,-6,-3,3,-8,-11,2
3.295644,-43,-6,-2,-4,15,-20,-1,11,2
3.295659,-16,-14,-9,-1,-11,8,-3,-33,2
3.312046,24,5,5,1,-8,-1,3,20,2
3.312067,-11,-13,-3,-5,-4,-1,-4,8,2
3.313491,-21,9,2,4,2,-1,-8,-22,2
3.313497,-31,7,2,-2,9,13,1,9,2
3.336801,-23,2,-2,-5,-3,-15,-4,-2,2
3.336807,-14,17,5,2,0,13,4,5,2
3.336809,62,5,5,5,3,5,1,5,2
3.336810,-16,3,1,-2,0,-5,-1,2,2
3.349686,18,-4,-3,-3,-3,8,1,-8,2
3.349713,-37,10,7,3,-1,-6,0,5,2
3.356065,-10,-3,-1,-4,-5,2,5,6,2
3.356087,33,-9,7,4,-5,3,-6,10,2
3.372955,-6,14,-2,-3,5,-4,-1,7,2
3.372976,39,-4,-6,-4,-1,-9,-2,6,2
3.374828,-27,-7,5,2,-7,-2,0,0,2
3.374835,5,26,-2,-6,9,-8,1,8,2
3.394601,32,-9,4,6,-2,-5,5,-10,2
3.394617,-42,-14,-3,-1,-8,-2,-1,5,2
3.396108,34,-1,-2,-2,5,12,-2,5,2
3.396116,26,0,-3,-1,4,-23,7,8,2
3.409004,19,0,1,2,-3,-6,-2,-5,2
3.409037,-41,-20,-5,-1,-1,-4,-4,-10,2
3.416092,20,0,2,-1,-1,12,1,7,2
3.416120,-18,-9,3,3,0,0,4,-11,2
3.431946,-60,12,-9,-8,-8,-16,-6,12,2
3.431960,27,38,-4,-1,11,21,-4,-17,2
3.433807,-4,-6,-1,-2,-4,-7,6,-4,2
3.433824,-28,-3,1,2,-1,4,1,4,2
3.455087,-5,-6,4,-3,-3,5,11,-9,2
3.455114,-5,-27,-3,1,2,-5,-14,-3,2
3.457076,-52,-13,-5,-3,-17,-11,-2,-1,2
3.457081,-16,41,3,-3,4,0,-10,-3,2
3.468646,20,-5,-3,-2,2,11,1,12,2
3.468678,27,-11,2,3,-6,-4,0,1,2
3.477530,12,-8,-6,-5,7,1,-7,-5,2
3.477534,32,0,-3,-3,-4,-7,5,10,2
3.492537,9,20,5,5,-1,5,0,3,2
3.492543,-63,-41,-10,-5,0,12,-1,-18,2
3.493561,22,13,2,0,0,0,-1,12,2
3.493567,14,-1,-5,-5,-2,0,-3,-8,2
3.515301,-25,-16,-2,2,3,0,-3,0,2
3.515465,14,23,-3,-3,0,-8,3,-6,2
3.517590,28,-2,0,1,-3,5,-3,-3,2
3.517593,2,-22,-3,-1,-3,4,-2,1,2
3.529297,2,13,9,-2,-3,-6,2,6,2
3.529318,-13,34,13,1,0,4,-1,-4,2
3.535973,-66,-22,-21,-9,9,4,-37,-18,2
3.535993,20,-19,-4,4,-10,-10,6,12,2
3.552628,7,-1,-2,-2,7,1,-7,-30,2
3.552655,37,8,7,2,-7,-4,18,11,2
3.554610,23,2,1,3,6,3,5,5,2
3.554614,-10,1,-4,-3,1,4,-5,5,2
3.574777,35,7,12,11,2,-2,4,1,2
3.574794,-58,-38,-10,-4,1,5,3,-34,2
3.576324,-20,7,-5,-4,-7,-14,-11,1,2
3.576345,95,6,-2,-3,1,1,13,3,2
3.588906,-60,8,2,0,-8,-1,-2,4,2
3.588982,16,-27,-7,-4,19,-6,-10,-3,2
3.595654,-28,-4,2,-2,-33,2,-7,8,2
3.595670,-35,5,4,1,14,21,23,-10,2
3.612754,11,2,4,0,10,-4,-8,8,2
3.614679,127,5,-5,-4,-10,-24,3,18,2
3.614685,27,10,4,3,10,2,2,-8,2
3.614687,-24,-20,-3,2,0,-29,-14,-11,2
3.634581,5,-2,-10,-4,-18,12,-13,-23,2
3.634600,3,-6,-2,-3,-6,1,-1,30,2
3.636325,41,-9,4,2,3,-9,6,13,2
3.636346,45,-14,1,-1,-3,4,-4,-2,2
3.649287,-40,13,-9,-8,4,-6,-4,-5,2
3.649294,-11,-1,2,1,-6,-3,0,-3,2
3.658119,35,20,-5,0,-2,5,4,9,2
3.658129,-97,-28,-3,2,10,8,-2,-9,2
3.672302,26,-24,-14,-7,-9,-6,3,7,2
3.672331,-31,10,1,3,1,10,-12,-2,2
3.673879,-9,-23,6,2,-2,-17,0,4,2
3.673928,-13,21,-1,-2,-2,-2,-4,19,2
3.695128,13,-19,-1,1,1,-8,0,-1,2
3.695156,-30,13,-10,-6,-5,2,2,-13,2
3.697295,-12,1,4,2,8,-3,-2,-8,2
3.697302,11,7,-2,-4,-11,-5,-2,0,2
3.708227,-10,3,7,3,5,4,4,8,2
3.708244,4,-7,6,2,4,0,0,-1,2
3.719351,-45,24,-1,-4,-1,-4,4,3,2
3.719357,-14,-8,-11,-2,3,3,-7,-10,2
3.732353,14,-2,-1,-1,2,3,2,1,2
3.732373,-21,-11,1,0,-3,-1,-3,-8,2
3.733738,-18,16,14,7,5,4,8,-13,2
3.733750,-47,18,-13,-6,-5,0,-8,2,2
3.755545,-14,-7,-2,-2,-1,-3,-7,-19,2
3.755574,41,12,1,3,-1,-4,3,15,2
3.758109,32,-6,3,1,-6,0,17,0,2
3.758121,-51,-12,-5,-8,-3,-11,-15,-26,2
3.768340,22,0,-2,1,0,19,-6,-1,2
3.768360,34,16,1,0,-7,-4,-9,4,2
3.777033,2,-5,-10,-4,7,0,0,3,2
3.777041,29,-9,9,2,1,1,4,4,2
3.792194,45,6,14,9,4,-7,15,4,2
3.792199,-123,60,-23,-12,0,-12,-16,-10,2
3.793504,12,-22,-9,-4,-6,-2,0,-5,2
3.793510,21,-3,2,0,0,10,2,1,2
3.814724,9,-9,1,-1,0,-5,-2,-14,2
3.814744,9,1,9,2,3,10,7,12,2
3.816294,-7,-6,-5,-3,-4,-3,-12,-20,2
3.816298,12,21,1,-1,-3,-7,1,14,2
3.828377,-23,2,7,1,16,2,2,-3,2
3.828397,24,-1,-6,-8,-16,1,24,12,2
3.839746,-103,-18,-16,-3,-2,-6,-29,-23,2
3.839755,-13,-24,5,2,-4,0,7,-4,2
3.852504,3,7,-5,0,2,-2,-2,-8,2
3.852524,19,-18,8,2,-2,0,7,19,2
3.854900,16,10,12,3,9,1,11,10,2
3.854906,-13,12,4,-4,-4,-1,3,3,2
3.874726,-20,-3,-26,-9,-19,-4,-21,-40,2
3.874745,-2,2,-1,3,4,0,3,2,2
3.876146,19,6,4,-1,-2,1,-3,4,2
3.876161,16,10,6,0,6,2,4,9,2
3.888185,50,-9,-7,-8,3,-15,-12,10,2
3.888200,12,-12,3,3,-15,6,-1,5,2
3.898252,50,9,-5,-6,3,6,8,-5,2
3.898257,-13,-26,3,5,-4,7,-9,-16,2
3.913145,-23,6,-5,-3,-13,-29,-9,17,2
3.913166,18,-1,-1,-3,12,-9,9,-22,2
3.915900,-5,-17,0,0,-9,-5,1,2,2
3.915904,54,16,-2,4,3,4,4,3,2
3.934488,-20,-8,4,-1,-1,9,-1,9,2
3.934500,-50,-53,2,1,0,-1,-11,-10,2
3.936054,60,41,-4,-1,-2,-4,3,0,2
3.936071,-8,-13,-7,-3,1,-5,0,-1,2
3.948149,-16,6,3,-1,-1,7,7,18,2
3.948163,28,1,3,6,4,-3,0,3,2
3.958825,-10,-18,0,-1,10,-1,-1,9,2
3.958830,-16,0,-5,-2,-23,-2,-14,-7,2
3.971901,21,12,4,2,0,5,11,28,2
3.971930,14,-42,0,0,2,3,-14,-21,2
3.978420,-86,-14,-14,0,-7,-12,-17,-32,2
3.978437,45,16,-4,-2,2,-2,-3,6,2
3.994685,-22,-9,2,0,-4,3,12,2,2
3.994698,-12,4,3,-1,8,2,0,5,2
3.996035,15,-15,3,1,-7,-3,17,6,2
3.996052,-31,63,-8,-2,6,4,-11,-5,2
4.008274,1,-9,-1,2,3,-2,-7,-8,2
4.008337,11,12,-2,-4,4,6,0,-4,2
4.018574,12,17,5,0,-11,1,-7,6,2
4.018578,57,-33,-4,-3,-6,-6,11,3,2
4.032023,-8,3,5,1,7,2,2,8,2
4.032038,-24,14,-3,-1,-5,-5,-15,-19,2
4.033464,35,-40,6,3,6,1,5,8,2
4.033493,-47,11,-6,-1,3,2,-3,-10,2
4.055767,-71,-36,-15,-12,-10,-14,-17,-25,2
4.055773,40,-6,-1,1,4,-10,4,7,2
4.056115,-1,10,5,1,-3,-1,9,6,2
4.056133,3,-31,4,-1,6,-8,-8,6,2
4.077129,-12,46,0,3,3,17,19,-11,2
4.077145,-10,30,8,4,4,-6,-7,9,2
4.078519,-14,-40,-6,-6,6,7,-10,-10,2
4.078546,6,-7,-10,-6,-4,-9,-1,0,2
4.092095,34,4,3,3,-2,-1,0,-4,2
4.092111,1,17,7,-5,-4,0,16,8,2
4.093865,-54,23,0,-4,-8,-17,-23,-20,2
4.093872,49,-8,4,1,12,13,8,2,2
4.115891,6,-29,-3,2,0,0,-3,3,2
4.115897,55,4,1,1,-1,6,7,8,2
4.116010,-26,-8,-9,-8,-5,-5,-2,-8,2
4.116040,21,9,9,3,-2,-4,1,2,2
4.137395,15,-14,-9,-10,-1,2,-11,10,2
4.137418,-2,-4,-5,0,-6,-2,-3,-12,2
4.139362,39,23,3,2,4,6,6,6,2
4.139373,-29,10,12,3,6,-5,-6,6,2
4.152412,27,-10,-7,-1,-29,4,19,21,2
4.152436,-22,-18,-8,-3,-4,-9,-20,-11,2
4.154109,45,0,-1,0,2,25,-2,22,2
4.154116,-29,-4,3,-3,5,3,3,-18,2
4.174698,-54,-5,-1,-1,9,-5,4,-4,2
4.174723,1,-3,0,3,2,4,2,17,2
4.176191,-4,2,-2,-5,-8,-6,-3,-6,2
4.176209,17,-44,-7,-1,-4,-5,5,9,2
4.197127,23,8,-2,-1,2,-1,-17,-14,2
4.197146,-12,-5,-2,-2,-6,-1,-10,-14,2
4.198447,32,19,8,-1,16,-1,-9,21,2
4.198454,-29,-23,-3,3,-25,11,4,-15,2
4.211418,-44,-9,1,2,2,-5,-9,-26,2
4.211436,-51,-21,-15,-6,8,4,-5,-26,2
4.218537,16,8,3,1,-15,-20,15,10,2
4.218568,8,7,-7,-2,8,-3,-4,12,2
4.235246,24,3,8,2,-12,-5,-2,2,2
4.235273,17,17,2,-3,5,11,0,3,2
4.237373,-41,-21,-8,2,6,-14,-4,-27,2
4.237377,-52,-2,0,-4,4,12,-10,-1,2
4.257331,24,29,8,3,4,2,5,19,2
4.257355,-81,-32,-5,-3,-7,-9,-4,-27,2
4.259500,-12,8,-9,-3,0,2,-2,10,2
4.259504,20,-3,2,-2,-5,-9,2,0,2
4.271388,-29,-16,-5,-4,1,1,-2,-14,2
4.271404,12,21,7,1,3,-1,0,17,2
4.278234,10,-28,-4,-4,-24,3,9,-23,2
4.278250,9,36,-3,-1,3,-3,-33,-2,2
4.294861,-10,-15,-1,0,6,4,9,4,2
4.294881,3,24,-5,-4,-8,-9,-2,15,2
4.296953,-2,-21,7,6,18,-2,10,13,2
4.296956,-23,2,-15,-7,-13,-11,4,-39,2
4.317004,2,-16,-6,-6,-5,-9,-17,-10,2
4.317022,-24,10,2,0,-5,-6,3,1,2
4.318927,77,27,0,0,2,-4,-3,5,2
4.318945,1,-1,3,-1,10,59,13,19,2
4.331454,-2,8,2,0,0,-57,-3,-1,2
4.331460,-5,-41,-4,-2,-8,-1,-23,-18,2
4.338299,-38,34,-1,-2,2,5,5,3,2
4.338317,51,10,8,0,11,-7,3,11,2
4.355194,-9,-10,-1,-2,-7,22,20,-12,2
4.355215,-14,32,2,7,18,25,-27,15,2
4.357253,50,-40,-11,-5,-1,11,9,5,2
4.357260,-14,4,2,-2,-1,-10,-12,-14,2
4.378094,2,15,4,2,5,5,7,-5,2
4.378098,46,0,4,-1,-10,-22,7,9,2
4.378515,-73,16,1,-2,7,12,-8,-6,2
4.378526,-34,-9,-3,2,-5,-13,1,-8,2
4.391543,44,6,3,2,1,3,-7,19,2
4.391566,60,19,7,3,-8,-14,14,8,2
4.398822,-8,-74,-17,-4,10,74,-10,-4,2
4.398843,55,-3,-11,0,-11,-61,2,6,2
4.414486,-5,6,2,1,0,7,-12,-13,2
4.414502,24,-9,1,0,-1,4,13,2,2
4.416113,-13,7,5,-2,-4,-11,0,3,2
4.416128,-19,2,3,1,-3,-3,-3,-2,2
4.437682,-5,-12,-3,-1,4,9,-2,2,2
4.437719,-7,-4,-4,-3,0,-2,6,-6,2
4.440420,1,18,5,1,-3,-19,-6,-8,2
4.440432,1,-22,7,4,4,9,6,1,2
4.451759,106,25,-1,-6,-18,-17,9,39,2
4.451788,-32,-59,-16,-7,4,45,-26,-54,2
4.458300,6,33,1,1,-8,-43,-10,1,2
4.458316,24,-3,0,-1,-1,11,7,13,2
4.474756,23,6,4,-3,4,1,5,5,2
4.474780,25,9,5,3,1,-2,13,19,2
4.476145,-38,5,-3,-2,-3,-1,-7,-18,2
4.476162,20,-12,1,-1,-5,-3,2,2,2
4.496959,-3,8,-3,-2,10,-16,-12,-7,2
4.496974,-53,3,-10,-9,-7,54,-2,6,2
4.498645,-18,-13,0,1,-2,-17,-1,-15,2
4.498662,-23,14,1,2,0,-8,10,8,2
4.511304,5,-16,-4,0,4,20,-13,-7,2
4.511415,1,-5,-4,-4,-10,-31,0,-29,2
4.519319,36,39,7,3,7,8,6,10,2
4.519323,-11,-69,-12,-3,2,24,-3,-9,2
4.535740,-27,49,1,-1,-6,-9,0,11,2
4.535745,12,12,-5,-1,6,-13,2,9,2
4.535937,64,15,0,-4,-6,0,1,5,2
4.535943,-21,15,0,-2,0,-13,-3,-8,2
4.557524,-13,-10,-1,-1,5,6,2,8,2
4.557551,0,-19,2,0,-5,-11,0,-6,2
4.559427,-84,23,-3,-3,13,-4,2,4,2
4.559433,6,50,3,0,-24,-7,-14,13,2
4.581168,16,-32,-12,-3,-5,17,2,-35,2
4.581174,-118,-3,1,2,3,-35,-4,11,2
4.581176,41,-42,3,6,2,1,-13,11,2
4.581178,-35,5,-1,1,9,5,0,-9,2
4.595983,14,7,1,1,0,4,0,-2,2
4.595989,23,18,3,-2,-6,-7,16,10,2
4.596146,-7,3,-3,-4,-6,-3,-8,-2,2
4.596154,-3,-7,3,0,2,-1,-2,-1,2
4.617452,-90,3,-4,-5,-6,-6,-8,-3,2
4.617482,10,-5,0,4,3,-1,-3,-15,2
4.619822,33,18,2,-2,-6,0,1,13,2
4.619825,34,-40,-7,-4,0,-2,3,5,2
4.630674,9,-14,-5,-6,0,0,-18,-35,2
4.630695,-9,-21,-1,0,1,1,1,3,2
4.641688,-75,6,0,0,-4,3,13,-9,2
4.641694,20,16,7,-2,2,-4,-12,15,2
4.655395,-25,11,0,1,-1,-12,0,-15,2
4.655418,38,-23,-3,-3,15,-1,-5,4,2
4.657664,12,10,4,2,-17,-1,12,12,2
4.657671,-58,15,-9,-1,3,5,16,8,2
4.677100,18,-49,0,1,1,0,8,10,2
4.677112,-28,34,-3,-3,-5,-5,-16,7,2
4.678894,41,-6,-2,-2,2,24,8,11,2
4.678912,-19,32,1,-3,9,13,-5,-4,2
4.690837,20,5,1,4,-9,-32,16,17,2
4.690860,-9,-24,-6,-3,-1,4,1,-9,2
4.701125,-1,-41,-3,1,5,-4,-3,-6,2
4.701129,29,-8,-6,-2,-9,-9,-7,0,2
4.715005,-35,-6,-1,1,2,-2,-12,-23,2
4.715026,42,1,3,-1,-2,-12,4,10,2
4.717189,47,19,3,-7,-3,11,2,23,2
4.717193,-105,-18,-7,-2,4,-14,-18,-72,2
4.736960,-15,-14,-2,1,2,-5,-11,0,2
4.736966,88,25,-2,-1,-7,0,2,15,2
4.738662,-42,-24,-6,0,4,-8,-4,-24,2
4.738679,-18,7,1,-3,-4,5,2,10,2
4.752910,-10,-1,4,0,1,16,1,-2,2
4.752914,-42,44,8,1,-6,-1,2,3,2
4.761009,56,-29,-17,-4,-1,-10,-31,-55,2
4.761018,46,2,4,-2,-4,-9,-17,15,2
4.774738,-10,13,2,4,-1,5,3,5,2
4.774771,26,-12,3,0,9,8,13,11,2
4.776707,-37,29,6,-1,-15,-12,4,12,2
4.776712,14,6,-2,2,8,4,0,-9,2
4.799613,80,25,-5,-1,6,-12,-5,30,2
4.799617,-36,-34,-5,-6,-9,51,5,-38,2
4.799619,-14,3,1,2,2,-32,1,2,2
4.799621,-2,51,-7,-7,-19,-11,1,-10,2
4.810980,-92,-32,1,-3,1,9,-2,9,2
4.811001,-15,21,6,3,11,-4,21,14,2
4.821731,31,14,3,-2,-8,13,-27,20,2
4.821737,-94,-88,-15,-6,-11,13,15,-20,2
4.835050,5,28,-1,-3,-4,-23,12,-7,2
4.836123,9,37,4,6,-2,-8,-12,3,2
4.836220,25,-34,1,-1,4,1,11,-1,2
4.836289,-15,15,5,0,7,-1,-2,22,2
4.857382,20,6,4,-1,-1,16,8,9,2
4.857408,3,-42,-9,-4,-6,-15,-5,-22,2
4.859034,-7,18,3,1,3,-5,-2,-3,2
4.859038,44,-11,1,1,5,3,3,8,2
4.871218,-11,14,1,5,0,5,5,2,2
4.871246,64,-2,-7,-5,-4,-13,-25,-14,2
4.881114,-64,-33,-6,-3,2,2,8,-2,2
4.881118,15,6,2,0,3,8,2,2,2
4.894448,89,18,5,2,-1,10,5,14,2
4.894454,-59,4,-1,-2,-2,9,0,-2,2
4.896217,-81,-23,-7,1,-1,-18,-33,-8,2
4.896335,85,-11,4,2,-2,-5,9,11,2
4.917157,11,9,6,2,2,4,-9,-1,2
4.917179,39,24,1,-5,1,0,10,18,2
4.919304,-10,1,-3,0,0,3,4,-12,2
4.919308,-49,60,1,0,-4,-8,-6,-6,2
4.931029,-17,-35,-3,-2,3,16,1,4,2
4.931049,40,31,4,-3,-1,-7,3,38,2
4.941333,-78,-43,-14,-4,6,11,-3,-49,2
4.941339,29,4,1,0,-21,-56,-7,10,2
4.955031,-57,5,-1,-2,2,18,4,-20,2
4.955065,-49,-4,14,6,7,16,5,8,2
4.957783,67,-5,-20,-6,-7,-3,-19,-21,2
4.957789,13,-5,5,7,11,16,9,-2,2
4.977122,-1,-14,-7,-1,-3,-12,-4,0,2
4.977139,29,5,3,2,-4,-7,2,1,2
4.978658,-1,30,14,3,5,4,15,22,2
4.978673,-41,-57,-20,-13,-4,1,-12,-29,2
4.990991,40,-25,-2,1,-14,-19,-8,9,2
4.991030,-64,2,-5,-3,14,17,-6,-6,2
7.002578,-1,-2,-3,-2,-1,-2,-2,-3,0
7.002751,4,-3,-2,-1,-2,-2,-1,0,0
7.002753,-1,1,-1,-3,-1,-2,-1,1,0
7.002800,-3,-4,-1,-2,-1,0,-1,-2,0
7.024430,-2,-2,-2,0,0,1,-1,-2,0
7.024456,0,-1,-1,0,-2,0,-1,-1,0
7.026210,-6,-1,0,-1,-2,-4,0,1,0
7.026217,2,1,0,0,0,0,-1,0,0
7.039257,7,4,2,2,-3,-1,1,1,0
7.039287,-10,-4,-1,-1,-1,-3,-4,-2,0
7.041769,-2,-2,-1,-3,1,-1,-1,3,0
7.041777,3,-2,-2,0,0,0,0,-4,0
7.061925,-6,0,-1,-5,-3,0,0,1,0
7.061953,-1,-6,-3,2,3,-3,-2,-3,0
7.064460,3,1,0,0,-1,0,-1,-1,0
7.064466,0,3,-2,-3,0,-2,1,2,0
7.084619,1,-1,-1,-2,-1,0,-1,-1,0
7.084758,1,0,1,-3,-1,0,0,-3,0
7.086556,-1,0,-2,-1,-2,-1,0,-5,0
7.086561,-6,-2,-1,-1,-1,0,-1,-2,0
7.098793,-3,-3,-2,-1,-3,-1,0,0,0
7.098814,4,0,-2,-2,-2,-1,-2,-3,0
7.101075,-7,-7,-3,-1,-1,-1,-2,-4,0
7.101081,-5,-2,0,-1,-2,-1,0,-1,0
7.121747,1,-2,-2,-2,1,-2,-1,-1,0
7.121770,-1,0,0,-1,-2,-2,0,2,0
7.124489,-5,-1,-1,-2,-1,-1,1,-4,0
7.124510,3,-6,-3,-3,-2,-2,-3,-5,0
7.143860,0,-2,-2,0,1,0,0,-3,0
7.143874,-4,-2,-1,-2,-2,-2,-2,0,0
7.144512,6,3,2,1,1,0,0,1,0
7.144524,4,1,-4,1,-1,0,1,2,0
7.158815,-3,-4,-3,0,-1,-1,0,-2,0
7.158830,-5,-3,-2,-2,0,-2,-1,1,0
7.160115,3,-1,-2,-3,-2,-1,-1,-4,0
7.160121,-4,-3,-1,-2,-1,-1,-2,-1,0
7.181293,-3,1,-1,-1,-2,-3,-1,4,0
7.181314,1,-1,-1,-1,0,-1,-1,0,0
7.182396,5,2,0,-1,-2,1,0,4,0
7.182403,-2,-5,-2,1,2,0,-1,-5,0
7.205184,-5,-2,-2,-3,-1,-1,0,-4,0
7.205189,2,0,-1,0,0,0,-1,1,0
7.205191,-9,1,0,-2,-2,-2,0,2,0
7.205193,-3,0,0,-2,-1,-2,-3,0,0
7.221193,5,-2,-2,-2,0,0,-1,-2,0
7.221204,-3,-1,-1,3,1,-1,1,4,0
7.221208,-10,-2,-1,-2,-2,-2,-1,2,0
7.221211,2,0,1,0,-2,-1,1,0,0
7.241444,1,-3,-1,0,-2,0,0,-4,0
7.241472,-2,1,0,-3,-1,-3,-1,2,0
7.243239,4,0,-3,-5,-2,-3,0,3,0
7.243246,2,0,0,0,0,1,1,3,0
7.263765,-8,1,1,-1,-1,-1,-1,1,0
7.263785,-3,-2,-2,-3,-4,0,0,-2,0
7.265682,1,0,0,1,0,2,1,-3,0
7.265686,-2,0,0,-2,0,-1,-2,-1,0
7.278791,-7,-1,-1,-3,-3,-1,-3,1,0
7.278812,2,3,-1,-1,-1,0,1,-1,0
7.279746,-1,-2,1,1,-1,2,-1,-3,0
7.279750,-5,2,1,-2,1,0,-1,-1,0
7.301223,3,-2,0,0,0,-3,-1,0,0
7.301235,2,-3,-1,-1,0,1,0,-7,0
7.302255,-5,-4,-2,-1,-2,0,-1,1,0
7.302271,-2,-2,-1,-1,-2,-2,-1,-2,0
7.324016,3,-10,-9,-1,-2,-2,-1,0,0
7.324038,-6,2,1,0,-1,0,0,0,0
7.325503,-1,-2,-1,-2,-2,-2,-2,1,0
7.325508,2,-4,-1,0,-3,-1,-1,-1,0
7.339396,3,2,2,-1,-1,-2,0,-1,0
7.341156,-4,0,-1,-3,-2,-3,-2,-1,0
7.341166,-1,-4,-2,0,1,0,-2,-3,0
7.341168,5,3,0,-2,-1,1,1,4,0
7.361321,-8,1,1,-2,-1,-1,-2,-3,0
7.361336,-1,-3,-2,-3,-2,-3,-2,-3,0
7.362005,2,3,-2,0,0,-1,0,0,0
7.362017,-3,-4,-2,-3,-2,-3,-1,-3,0
7.384214,-5,1,-1,1,-1,-2,-2,0,0
7.384245,3,-2,-1,0,-1,0,-2,-5,0
7.386586,1,-3,-1,-1,-1,-1,-2,-3,0
7.386589,-5,1,-1,0,0,-2,-2,0,0
7.398822,-2,-3,-1,-2,-2,2,-3,-6,0
7.398842,6,0,0,-1,-1,0,0,4,0
7.400720,-3,2,-2,0,-3,-1,-1,-2,0
7.400730,-9,-3,0,-1,0,-3,-2,-1,0
7.423030,5,2,1,-2,0,1,2,0,0
7.423040,-4,2,1,-2,-1,-2,1,-1,0
7.423042,-8,-3,-3,-3,0,-1,-3,0,0
7.423043,0,-3,-2,-1,-3,-2,-2,-4,0
7.443879,2,1,-1,0,-2,1,1,4,0
7.443896,-7,-2,0,0,0,-1,-3,0,0
7.444635,1,-3,0,-1,1,-2,1,-2,0
7.444647,1,2,-2,0,0,2,-2,-2,0
7.458890,-7,-2,-1,0,0,-3,-2,-2,0
7.460474,-2,-3,-3,-5,-2,-2,-2,0,0
7.460481,5,4,1,-1,0,1,1,3,0
7.460484,-8,-3,0,-1,-2,-2,-2,-2,0
7.482163,-3,1,-1,-1,-1,-1,-1,-1,0
7.482190,0,-3,-3,0,-2,-1,-2,0,0
7.482195,1,2,-2,0,-1,-2,0,2,0
7.483892,-2,-2,-1,-3,-2,-1,0,1,0
7.504355,3,-1,1,-1,-1,-1,-1,-1,0
7.504373,3,-2,0,0,-2,0,0,-2,0
7.505017,-8,-2,0,-1,0,-2,-2,-2,0
7.505119,-1,-1,0,-2,0,0,0,1,0
7.518408,7,3,-3,-2,0,-1,1,-1,0
7.518435,-5,0,1,2,1,0,0,-1,0
7.526382,-4,-2,-1,-1,-1,-1,-1,-2,0
7.526400,4,-2,-3,-1,-3,0,-2,-3,0
7.541457,2,1,-2,-1,-1,0,0,1,0
7.541473,-3,1,-2,-3,-3,-2,-2,-1,0
7.543787,0,-4,-3,0,2,1,0,0,0
7.543799,0,1,2,2,-1,-1,1,0,0
7.563788,-5,-1,-1,0,-2,-1,-3,-2,0
7.563794,0,-3,-2,-2,-2,-3,-2,-1,0
7.564448,1,-1,1,0,-3,-2,-2,-1,0
7.564460,0,1,-1,-1,0,2,-1,3,0
7.578418,-12,-7,-4,-3,-3,-2,-5,-14,0
7.578433,3,-2,-1,-1,-1,-1,-2,-3,0
7.586301,4,1,1,0,0,0,-2,-2,0
7.586321,-5,1,0,-2,1,-3,-1,1,0
7.601457,5,-1,0,0,0,0,0,0,0
7.601478,0,1,-2,1,1,2,1,-1,0
7.603518,-6,-5,-2,-4,-2,-2,-1,-3,0
7.603521,3,0,-1,0,0,0,0,-3,0
7.625717,3,-6,-5,-2,1,-1,0,1,0
7.625723,-6,-1,0,1,0,-2,-1,-1,0
7.625725,-3,-2,-2,-1,0,-1,0,-3,0
7.625727,7,1,0,0,-1,-2,1,1,0
7.638670,0,2,3,-1,1,0,0,3,0
7.638698,-6,-2,0,-3,-2,-2,-3,0,0
7.646950,2,1,0,0,-2,-1,1,2,0
7.646987,7,1,-2,-2,-1,-1,0,-1,0
7.661307,-6,-1,-1,1,-1,-1,-2,0,0
7.661323,-2,-3,-3,-2,-2,-2,-2,0,0
7.662038,4,2,0,1,-2,1,-1,-2,0
7.662066,-7,-2,-1,-3,0,-1,-1,-1,0
7.683993,-3,1,1,0,-1,-1,0,3,0
7.684014,2,-2,-1,0,-1,-1,-2,-1,0
7.685661,0,-1,-3,-1,-2,-1,-1,-1,0
7.685664,-6,-5,-3,-2,-2,-2,-2,-1,0
7.698690,-2,-2,-3,-1,-2,-2,-1,-4,0
7.698726,4,3,0,0,0,0,1,0,0
7.706436,-6,0,1,-2,0,-1,-1,1,0
7.706455,-2,-2,-1,0,-1,-2,-1,2,0
7.721238,4,1,0,-2,-1,3,0,-4,0
7.721286,-1,-1,-1,-1,-1,-2,1,-1,0
7.722162,-2,0,-2,-1,-1,-1,-1,4,0
7.722182,3,1,-1,-1,-3,1,-2,-4,0
7.744318,-3,-1,0,0,0,-4,-1,2,0
7.744340,-8,-3,-1,-1,-2,-2,-2,-3,0
7.745671,5,-1,-1,-1,-1,1,-2,-3,0
7.745674,2,0,-1,0,1,-2,-1,-1,0
7.758493,-3,2,1,-2,-1,-1,0,3,0
7.758514,4,-2,-2,0,0,-1,-4,-5,0
7.768221,-2,-2,0,1,-1,0,-1,-1,0
7.768226,-5,-1,-1,-1,-2,1,-3,0,0
7.782127,-3,0,-1,-2,1,-3,-3,-1,0
7.782133,2,0,0,-2,1,1,0,-1,0
7.782135,-2,1,0,-1,0,-4,2,-1,0
7.782174,-3,-1,0,-2,2,-3,0,3,0
7.803747,-1,-1,1,0,-3,-1,-1,-1,0
7.803764,-7,-5,0,-1,-2,0,-1,-4,0
7.805788,-3,-3,-3,-1,0,-1,-1,0,0
7.805795,1,0,-1,-1,-1,0,0,-1,0
7.818209,3,-1,-1,1,1,1,0,1,0
7.818232,-1,2,-2,-1,1,-1,0,4,0
7.828314,-2,0,1,0,-1,0,0,2,0
7.828321,0,-1,-1,-3,-2,-1,-1,-4,0
7.841429,-3,-2,-1,-1,0,-1,-1,1,0
7.841450,-7,-1,1,-2,-1,-3,-2,-1,0
7.843033,5,3,0,-3,-1,-3,-1,0,0
7.843040,-3,-1,-2,0,-1,0,-2,-3,0
7.864435,-7,0,-3,-2,-2,-2,-2,0,0
7.864453,2,0,0,0,0,0,-2,-1,0
7.866797,2,-4,-2,-1,-1,0,-2,-4,0
7.866802,-4,-2,0,0,-1,0,-1,-3,0
7.887860,-4,-2,-1,-2,-3,1,-3,-1,0
7.887896,7,0,0,-2,-2,1,1,-3,0
7.890656,2,0,-2,0,-2,1,-1,-3,0
7.890662,-9,0,2,-3,-1,-3,0,-1,0
7.901483,4,2,1,-1,-1,-3,-2,-1,0
7.901504,2,0,-2,-2,-2,1,0,-2,0
7.902959,-5,0,-2,-3,-2,-3,-1,-2,0
7.902962,3,-1,0,-1,-1,0,0,-2,0
7.923919,2,-2,0,1,0,0,1,-4,0
7.923936,-5,0,-3,-2,-1,0,-2,0,0
7.924738,-3,-1,1,-2,-2,-1,-4,-1,0
7.924751,6,-1,-2,-1,0,0,0,-1,0
7.948196,-4,-3,-1,1,-2,-1,-1,-3,0
7.948233,-2,-2,0,-1,0,-2,-1,2,0
7.950331,-1,-2,-1,-2,1,-2,1,0,0
7.950337,2,0,-1,-2,-1,-1,-3,-2,0
7.962011,-3,1,-1,-1,-2,0,-1,-2,0
7.962038,4,2,-1,-1,1,-2,1,2,0
7.964248,-1,-5,0,2,-1,-2,-1,-3,0
7.964253,-6,-1,-3,-1,0,-3,-2,1,0
7.985324,2,2,0,-2,0,-2,-3,2,0
7.985329,-2,-2,0,1,1,1,-2,-5,0
7.985331,-5,-2,-2,-1,-1,-1,-1,-2,0
7.985332,-2,-1,-1,-1,-1,1,0,0,0
8.007213,4,-1,-1,-1,-1,0,-1,-1,0
8.007233,2,2,-1,-4,-3,-1,0,4,0
8.009237,-6,-1,2,-1,0,-1,-1,-1,0
8.009283,4,1,0,-1,-2,0,0,0,0
8.021833,6,1,0,0,1,1,0,-1,0
8.021932,-3,-4,0,1,-2,-3,-2,3,0
8.022376,-1,-2,-4,-1,1,-1,-1,-3,0
8.022455,3,-1,-3,-1,-1,-1,1,1,0
8.044013,-4,0,2,-2,-1,0,0,0,0
8.044031,3,-2,-2,-1,-1,-2,-1,-3,0
8.045889,5,1,-1,-2,-1,1,-1,-3,0
8.045893,0,-3,-2,0,-1,-2,-2,-4,0
8.066031,-3,-2,-1,-2,0,-1,0,-1,0
8.066042,-5,-5,-3,-4,0,-1,0,-2,0
8.074068,2,-3,-3,1,-1,1,1,-2,0
8.074092,-5,-2,-1,-1,0,-2,-2,-1,0
8.081692,1,-2,-3,-2,-2,-1,-2,0,0
8.084164,1,0,-1,1,-1,2,-2,-4,0
8.084174,-1,1,1,-2,-2,-1,1,3,0
8.084176,-4,2,1,-3,-1,-2,0,3,0
8.104207,2,-3,-1,1,2,-1,-1,-4,0
8.104227,-3,1,-1,1,-1,0,0,0,0
8.106305,-4,0,0,-3,-2,-1,-2,0,0
8.106310,6,1,-1,-2,1,-1,-1,1,0
8.127197,6,-13,-12,1,1,1,1,-8,0
8.127208,-6,0,3,-1,0,-1,0,3,0
8.127681,-1,-1,1,-2,-1,-2,-1,2,0
8.127693,3,-3,0,1,0,-1,-2,-6,0
8.141591,-2,2,0,-3,-2,-1,-1,2,0
8.141597,-2,0,-3,-2,-2,-2,-1,-2,0
8.142187,3,-1,-2,0,-1,0,-3,-1,0
8.142197,-1,1,1,-1,0,0,1,2,0
8.163756,-9,0,-1,-2,-3,-1,-3,-1,0
8.163777,1,-2,-1,-1,-2,-2,-2,-3,0
8.164682,3,3,0,-2,0,0,0,-1,0
8.164685,-9,-3,-3,-2,-2,-2,-2,-3,0
8.187659,-3,-2,1,1,-1,-3,-1,1,0
8.187695,6,0,-3,0,-2,1,-1,-4,0
8.190094,-4,-1,-1,0,0,-2,-1,1,0
8.190101,-3,-2,0,-1,0,-2,0,5,0
8.201984,4,0,0,1,0,-1,-1,-4,0
8.202011,2,1,-1,-1,0,1,0,2,0
8.204783,-14,-5,-2,-2,-3,-4,-3,-3,0
8.204798,3,-2,-2,-1,0,-1,-1,-4,0
8.224003,-5,1,1,-2,-3,-2,-1,1,0
8.224026,-4,-1,-3,-1,0,-4,-2,1,0
8.224704,1,-2,0,-2,0,-1,-1,-4,0
8.224726,6,1,-2,0,-3,1,-1,-3,0
8.246957,-4,1,0,-3,0,-1,-2,0,0
8.246972,-4,-2,-1,-5,-2,-1,-2,0,0
8.248059,6,-1,-1,2,0,-1,-1,-1,0
8.248066,-4,-3,-2,1,-1,-1,-1,-3,0
8.261420,-4,-1,0,0,-1,-1,0,0,0
8.261440,2,0,0,-1,-1,-2,1,-2,0
8.263527,1,0,-1,-1,-2,1,0,0,0
8.263531,-1,4,1,1,-3,-2,-2,3,0
8.283855,-2,-4,-4,-4,-3,-1,-2,-4,0
8.283924,2,1,3,3,1,1,1,3,0
8.284368,-3,0,-1,-2,0,0,-1,1,0
8.284401,-4,-1,-2,-2,-1,-3,-2,0,0
8.307287,-1,-3,-3,-1,-1,-2,-2,0,0
8.307318,1,0,-1,1,-1,0,0,-3,0
8.309648,-2,0,1,-1,-2,-1,0,0,0
8.309653,1,-3,-1,1,-1,0,-2,-3,0
8.321798,1,2,-1,-2,0,-1,0,1,0
8.321832,-8,-2,-2,-3,0,-2,-2,-1,0
8.324211,1,-1,-1,2,-1,-3,0,-1,0
8.324218,-1,-2,-1,0,-2,0,0,-3,0
8.344319,-4,0,2,0,-1,-3,0,-1,0
8.344355,-5,-4,-1,-1,-1,-1,-2,-4,0
8.346794,2,2,-1,1,1,1,-1,3,0
8.346800,-3,-1,-1,-1,1,0,0,-1,0
8.367292,-2,-1,1,-1,0,-1,-2,0,0
8.367312,5,-6,-1,-2,-1,0,-1,-3,0
8.369094,2,-1,-4,-3,-1,-1,-1,-3,0
8.369099,-5,-1,0,-2,-2,1,-2,-2,0
8.381898,0,-5,-3,1,-1,-1,-1,2,0
8.381919,1,3,-1,-2,-2,-2,-1,-1,0
8.383439,-3,1,0,1,0,0,-2,1,0
8.383443,-3,-2,0,-1,-1,-1,0,-1,0
8.404378,1,1,-1,-2,-2,0,-1,-3,0
8.404406,2,1,0,0,-1,-1,0,1,0
8.407103,-8,-4,0,-2,-2,-4,-2,-2,0
8.407107,3,1,0,-2,-2,-1,-1,0,0
8.427153,4,4,2,0,-1,1,0,0,0
8.427166,-8,-2,-3,-1,-1,-1,0,-1,0
8.427682,6,3,0,-2,0,-2,-1,6,0
8.427694,3,-1,-2,-1,0,1,0,-3,0
8.440819,-4,0,-2,0,0,-2,0,0,0
8.440839,-3,-3,0,-2,0,-3,-2,0,0
8.449466,3,-1,-2,0,-2,-1,2,-1,0
8.449494,-4,-1,-1,0,-1,-1,-1,0,0
8.464585,-3,-1,0,-3,0,-1,-1,-1,0
8.464616,2,0,-1,0,0,-1,-1,2,0
8.466954,0,-1,-2,-2,-1,1,-2,-3,0
8.466958,-1,1,-1,-3,-2,-2,-2,1,0
8.486958,-5,-1,-4,-3,-2,-3,-3,-5,0
8.486963,-1,3,3,2,-1,1,1,-2,0
8.487587,-6,-2,-1,-3,-3,-1,-3,-2,0
8.487592,0,-3,-2,-1,1,0,-2,-3,0
8.502256,8,0,0,0,-1,2,1,-1,0
8.502262,-2,-2,-2,-1,0,-3,-2,-1,0
8.509193,-4,-2,-1,-2,-2,0,-1,-5,0
8.509273,-7,-4,0,0,-1,-1,-1,-3,0
8.524326,-2,-1,-1,0,-1,0,-1,-1,0
8.525905,-3,-3,-3,-2,-2,0,-2,-2,0
8.525909,-2,0,0,-1,-2,-1,0,-1,0
8.525911,5,0,-2,-1,0,-1,-1,0,0
8.548799,-6,-1,-1,-1,-1,-1,-1,-1,0
8.548804,-2,0,0,-5,-2,-2,-1,-4,0
8.548805,5,-6,-2,1,1,1,1,-3,0
8.548807,-6,-1,-2,-2,-2,-1,-1,-3,0
8.561318,-5,1,1,-1,-1,-1,0,1,0
8.561345,2,2,-2,-4,-1,-1,-1,-2,0
8.569219,4,1,-2,1,0,-1,-1,2,0
8.571122,-4,-2,-1,-1,-2,-2,-2,-1,0
8.584377,1,-2,-1,0,0,-2,-2,-1,0
8.584395,1,-1,-3,1,-1,-1,0,0,0
8.586357,-7,0,-2,-2,-1,-4,-2,-2,0
8.586360,-2,-1,-1,-1,-3,-2,-1,-1,0
8.607369,7,0,0,1,1,-1,0,-1,0
8.607389,-6,0,1,0,-2,0,0,-1,0
8.609573,-3,1,0,-3,-2,-2,-3,0,0
8.609579,5,1,-1,-1,-1,0,-1,-2,0
8.630043,-1,0,-2,1,-1,0,-2,1,0
8.630069,-3,-4,-1,-2,-1,-2,-1,-2,0
8.630412,3,-1,0,0,1,-2,0,-1,0
8.630512,2,1,-2,-4,-1,-1,-2,1,0
8.644010,2,1,0,3,1,1,0,7,0
8.644028,-7,-1,-1,2,-1,-2,-4,-2,0
8.644495,4,1,-1,-2,-1,0,-1,-2,0
8.644512,-5,-7,-3,0,-2,-3,-3,-7,0
8.667373,1,0,-3,-6,-3,-2,-1,-3,0
8.667400,3,0,0,2,0,1,0,2,0
8.669299,-3,-2,-2,-2,-1,0,-1,-4,0
8.669303,-8,-5,2,0,-1,-2,-3,-1,0
8.681126,0,-3,2,-3,0,-2,-3,-4,0
8.681147,3,-1,-2,-2,0,2,1,-1,0
8.689195,-9,-2,1,-2,-1,-4,-1,0,0
8.689225,1,0,-1,-2,-1,-3,-1,2,0
8.703747,1,-1,-1,1,-2,-3,-1,-3,0
8.703756,-4,0,-1,-2,-1,-1,0,3,0
8.704591,-12,-6,-5,-1,-3,-2,-2,-7,0
8.704641,6,3,1,1,-2,1,1,1,0
8.727061,-2,-3,-2,1,-1,1,-1,-3,0
8.727082,-7,-1,-2,-3,-2,-1,-3,-2,0
8.729378,5,0,0,-1,-1,-1,1,2,0
8.729382,2,1,-1,2,0,-1,3,-2,0
8.740803,-12,-5,0,-1,0,-2,-2,-2,0
8.740823,-3,-3,0,-3,0,-3,-2,-3,0
8.748857,10,5,0,1,0,4,1,7,0
8.748872,-5,-3,-3,0,0,-1,-2,-5,0
8.765009,-6,0,-1,-1,-1,-2,-1,6,0
8.765014,5,0,-3,-1,-2,0,-2,-2,0
8.765015,-2,-3,-2,-1,-1,-1,-2,-5,0
8.765017,5,7,-3,-7,-3,-2,-1,6,0
8.787158,3,1,0,3,2,-1,2,-3,0
8.787175,4,3,-2,-1,1,-1,-1,-1,0
8.789431,-6,-1,-1,-1,-1,-2,-3,5,0
8.789437,1,-3,-1,-2,-2,-1,0,-1,0
8.811418,1,0,-2,-4,-1,0,0,-5,0
8.811422,0,-1,0,0,-2,-2,0,0,0
8.811424,-2,-1,0,-3,-1,-1,-1,-1,0
8.811425,0,-2,0,0,2,0,-1,-2,0
8.823979,-4,1,-1,-2,-1,0,-1,0,0
8.823999,-7,-2,1,-2,-1,-2,-1,-1,0
8.826026,2,-1,-3,-2,-2,-1,-1,-2,0
8.826032,-1,-1,0,1,-1,1,-2,-2,0
8.847633,-4,-1,1,0,0,-4,-1,-1,0
8.847670,0,0,-1,-1,-2,0,-1,2,0
8.849101,7,-5,-4,1,0,-6,-2,-10,0
8.849106,-4,-1,-1,-2,0,-1,0,3,0
8.869709,-4,-3,-2,-3,-3,-2,-1,-6,0
8.869729,4,-2,-5,1,-1,1,0,-4,0
8.871901,-1,-3,-2,-4,-2,2,1,3,0
8.871905,-7,-4,-2,0,-1,-2,-2,1,0
8.884211,5,-2,-3,-2,-1,-2,-1,1,0
8.884239,2,-1,-1,1,-1,0,0,-1,0
8.886210,-5,1,-1,0,0,-2,-1,-1,0
8.886216,-2,-5,-5,-2,-5,-2,-1,-5,0
8.907362,2,-3,-2,0,-2,0,0,-1,0
8.907382,0,3,1,-1,-1,-1,-1,4,0
8.907986,-6,1,3,1,0,-1,-3,2,0
8.908013,3,-3,-1,1,1,-1,1,-2,0
8.929435,-3,-3,-4,-2,-1,1,-1,-2,0
8.929450,-4,-3,-1,-2,-1,-3,-1,-1,0
8.930516,3,1,0,-1,0,2,1,1,0
8.930520,0,-1,-2,-1,1,-1,-3,-4,0
8.943908,-6,-2,0,1,-1,-1,-3,1,0
8.943929,-2,-3,0,-2,1,-1,0,-4,0
8.945251,-2,0,-2,-2,0,-1,-1,1,0
8.945261,-2,2,1,-1,1,-1,0,2,0
8.968948,-6,0,1,-2,-1,-1,-2,1,0
8.968953,-1,-3,-2,0,-2,-1,-1,2,0
8.968955,-5,-3,-3,-2,-3,-2,-1,-5,0
8.968956,-6,-5,-5,-2,0,-1,-3,-9,0
8.989961,2,1,-1,0,-2,-1,0,0,0
8.989979,0,-2,-1,0,-1,1,-1,-3,0
8.991803,-8,-2,0,-5,-3,-2,-2,0,0
8.991807,3,5,4,3,0,-1,2,4,0
9.004506,6,-1,-2,0,-2,2,1,-2,0
9.004525,-3,1,-1,-2,1,-1,-1,2,0
9.004862,2,1,2,0,-1,-1,-1,1,0
9.005070,2,0,0,-2,-3,-1,-1,-4,0
9.027517,-5,1,1,-1,0,-2,0,-2,0
9.027544,-7,0,0,-2,-1,-2,-2,2,0
9.030103,1,-1,-3,-1,-1,-1,-2,-2,0
9.030108,1,-2,-2,-2,-2,-1,-1,1,0
9.049547,-6,-1,0,-1,0,-2,-1,-3,0
9.049567,12,-3,-1,-2,-2,-2,-3,-5,0
9.050671,3,2,-1,3,1,0,1,-4,0
9.050690,-8,-2,-2,-1,-2,0,-1,-1,0
9.063713,0,0,-2,-1,-2,0,1,1,0
9.063734,2,-1,-1,-2,1,-1,-2,-2,0
9.064370,-1,-2,-1,0,0,-2,-1,-3,0
9.064381,-2,-4,-1,-1,0,-3,-1,2,0
9.087401,0,-2,-2,-1,0,-1,-2,-3,0
9.090149,-1,2,0,1,0,1,2,-2,0
9.090164,-5,-1,-1,-3,0,-1,-1,2,0
9.090166,4,3,1,0,-1,0,0,2,0
9.109485,3,-1,-2,-2,0,-1,-1,-1,0
9.109503,-4,-1,0,1,-1,0,-2,0,0
9.110409,-1,1,0,-2,-1,-2,-1,3,0
9.110427,2,0,-1,0,-1,0,0,0,0
9.124370,-2,-1,-2,-5,-2,0,-2,0,0
9.124377,1,2,0,-1,-1,1,-1,-2,0
9.124751,1,-2,-1,0,-1,0,0,3,0
9.124758,1,1,0,0,-1,-1,-1,0,0
9.147040,-7,-2,-1,0,-2,-2,-2,-1,0
9.147060,-3,-1,0,-2,-1,-2,-2,-3,0
9.148308,7,1,-2,-4,-2,0,-1,-1,0
9.148315,-6,0,1,2,0,-4,0,-2,0
9.170725,-2,0,2,-1,-1,-1,-1,-3,0
9.170730,0,-2,-2,-2,-3,-1,-1,-3,0
9.170732,0,-1,0,1,-1,0,-1,-2,0
9.170733,-3,-2,-1,-3,-4,-1,-2,-3,0
9.186252,4,0,-1,1,1,1,0,2,0
9.186257,-1,-3,-2,-1,-2,1,-1,-2,0
9.186259,-4,-4,0,-1,-1,-2,-2,-2,0
9.186260,-1,-2,-2,-1,1,-1,-2,-1,0
9.207237,-3,-5,-3,-1,-2,0,-1,-7,0
9.207269,-6,-2,-2,-1,1,-2,0,1,0
9.208934,-1,0,-1,0,0,-1,0,-1,0
9.208939,3,-2,-1,-1,-1,0,0,-3,0
9.229675,-6,1,-3,-1,-2,-1,-1,0,0
9.229698,-6,-5,0,-1,-2,-3,-2,-2,0
9.231130,1,-2,1,2,-1,-1,0,-1,0
9.231140,3,0,-3,-1,1,1,-1,-1,0
9.244533,-3,-3,0,-2,1,-1,-2,-2,0
9.244563,2,1,-2,-3,-1,-2,-1,0,0
9.246862,1,-2,-1,-1,-1,1,-1,-2,0
9.246867,-6,1,-1,-2,-1,-1,-2,3,0
9.267789,1,1,0,-1,-1,-1,-1,0,0
9.267815,9,-2,-1,0,0,-1,-1,0,0
9.267820,-8,-3,-3,0,-1,-2,-2,-4,0
9.267999,-6,0,-1,-3,-1,-3,-2,0,0
9.289808,5,1,0,0,-2,2,-1,1,0
9.289834,-2,-2,-2,-1,-1,1,0,-1,0
9.291516,-7,-6,-2,0,0,-1,-2,-3,0
9.291522,6,1,0,-1,-1,1,2,4,0
9.304102,9,-3,-4,2,1,-1,-1,-2,0
9.304123,-10,-2,-2,-3,-3,-3,-3,-3,0
9.306188,-3,1,-1,-4,0,-2,0,2,0
9.306193,1,-2,0,-2,-1,0,0,-1,0
9.326930,-1,1,0,-1,-2,-4,0,-1,0
9.326936,-1,0,0,-2,-1,0,-1,-1,0
9.327645,1,-1,-2,-1,3,-1,-2,-1,0
9.327657,-1,-1,-2,1,-2,-1,-1,0,0
9.349490,-8,1,0,-2,-1,-2,-1,4,0
9.349512,-3,-1,-1,-2,0,-1,-1,0,0
9.351640,1,-1,0,0,-2,2,0,-1,0
9.351645,-12,-2,-1,-1,-2,-2,-4,-3,0
9.363272,0,-1,2,0,1,-1,1,-2,0
9.363292,-1,1,-1,0,-2,-1,0,-4,0
9.373743,2,0,-2,-4,-2,-2,-1,1,0
9.373751,-4,0,2,-2,0,-2,0,5,0
9.389163,0,-6,-6,-3,-3,0,-1,-4,0
9.389173,0,1,0,-1,1,-1,-2,1,0
9.389176,-4,1,-3,-2,-2,-1,-1,0,0
9.389179,3,-3,-1,-1,0,-1,0,-3,0
9.409484,-1,3,1,-2,-1,0,-1,0,0
9.409500,-3,-2,-1,-2,-1,0,-1,2,0
9.410316,1,-5,-2,-2,-1,-1,-1,1,0
9.410330,5,-2,-2,1,-1,1,-2,-3,0
9.423372,-7,-4,-1,0,-1,-1,-1,-2,0
9.423398,-1,1,-1,-1,-2,-2,-2,-1,0
9.431621,4,4,1,1,-1,0,0,2,0
9.431642,-9,-4,-5,0,-2,-1,0,-1,0
9.447612,8,0,-1,-2,-2,-2,-1,-1,0
9.447632,1,-1,-1,1,-2,-1,-1,0,0
9.449902,-1,3,-1,-1,0,-1,-1,-5,0
9.449907,-8,0,-1,-3,-1,-1,0,1,0
9.470021,-1,0,0,2,0,0,-1,0,0
9.470039,3,-1,-2,-1,-2,-1,0,-3,0
9.472463,-2,1,1,-1,-2,0,-1,0,0
9.472467,1,-6,-3,-4,-1,-2,-3,-5,0
9.483484,0,-2,-2,-2,-1,0,0,-2,0
9.483502,2,1,0,1,0,1,-2,-1,0
9.491748,-7,-2,0,0,-1,-2,-1,0,0
9.491772,5,0,1,-1,0,0,0,-1,0
9.507316,-1,0,-1,0,-1,-3,0,0,0
9.507340,-9,-9,-6,-3,-1,-3,-2,-9,0
9.508791,1,-1,-2,-1,-2,0,-1,-2,0
9.508885,0,-1,-1,0,-2,1,-2,-4,0
9.529546,-3,1,1,-1,0,0,0,1,0
9.529556,-3,1,0,-2,1,-2,-1,1,0
9.530249,10,-1,0,-1,-1,1,0,-3,0
9.530254,-1,1,-1,-2,-1,-1,1,3,0
9.544904,-8,-6,-1,0,-1,-1,-4,-6,0
9.544908,0,-2,-1,-1,-1,1,-1,0,0
9.551314,-5,-2,-3,-3,0,-1,-1,-5,0
9.551334,-4,-2,0,1,0,-1,0,1,0
9.567365,3,-1,-3,-2,-1,-1,-1,-2,0
9.567385,7,6,2,1,1,1,3,3,0
9.569992,-9,-4,-2,1,-2,-2,-1,-6,0
9.569995,1,2,-1,-1,-1,-2,-1,-4,0
9.592147,5,1,-1,-2,-1,-2,1,0,0
9.592152,-2,-3,-2,0,1,0,0,-1,0
9.592154,-5,-1,-1,-2,-2,-1,-2,0,0
9.592156,8,0,-1,-1,-2,0,-2,0,0
9.603165,-2,-4,-4,-2,-1,0,-2,-4,0
9.603186,-2,0,1,-1,-1,-2,-1,2,0
9.611436,1,0,-1,-1,0,-1,-3,0,0
9.611457,-3,-1,-2,-1,-1,0,0,-2,0
9.627109,-6,-1,0,-1,-1,-1,-1,0,0
9.627161,-3,0,0,-6,-4,-1,-1,-2,0
9.628609,0,0,1,0,0,2,-1,-3,0
9.628623,-2,-2,0,-1,1,-1,-2,-3,0
9.649902,-3,2,2,-3,-3,-1,-2,3,0
9.649931,-2,0,-1,-1,-3,-2,-3,1,0
9.651750,1,-1,1,-2,-1,-2,-1,2,0
9.651753,-6,1,0,-2,0,-2,2,2,0
9.663078,-1,0,-2,-3,0,-1,-1,1,0
9.663093,9,0,0,1,0,1,-1,0,0
9.672292,-3,0,0,0,-1,0,1,-1,0
9.672375,-3,0,1,1,-2,-2,-3,1,0
9.686928,0,-2,-2,-1,-1,0,-1,-4,0
9.686934,-11,-5,-1,0,-2,-2,0,-2,0
9.688677,0,-3,-1,1,0,-2,0,2,0
9.688694,5,-1,0,-2,0,0,-1,-4,0
9.709645,5,5,0,1,-1,-1,2,4,0
9.709667,-9,0,-1,1,0,-1,0,-1,0
9.711878,4,1,-2,-2,-2,-2,0,-3,0
9.711884,-11,-4,-1,0,1,-1,-2,0,0
9.723396,-1,0,2,-1,0,-2,-1,4,0
9.723424,3,2,1,2,0,-1,0,4,0
9.732156,0,2,0,0,-1,0,1,2,0
9.732160,-5,-7,-4,-6,-3,-3,-4,-8,0
9.749535,-8,-7,-4,-1,-1,-2,-3,-8,0
9.749540,3,-2,-2,-1,0,-2,0,-1,0
9.749542,-2,-2,0,0,0,0,0,-2,0
9.749543,-3,0,-1,-1,-2,0,-1,2,0
9.769818,0,0,-1,0,-2,-2,0,2,0
9.769840,2,-2,-1,-1,0,-1,-1,-4,0
9.771950,-2,0,-2,-2,2,-2,-1,-1,0
9.771956,-1,1,0,-2,-3,-1,0,0,0
9.792219,5,0,-2,-4,-2,-1,-3,-5,0
9.794341,-4,1,2,0,-1,0,-2,-1,0
9.794354,-6,-2,-1,-2,-2,-2,-2,2,0
9.794356,10,0,-1,0,1,1,0,-1,0
9.807156,-5,0,0,2,0,-2,0,2,0
9.807177,-4,-1,-1,-2,0,-3,-2,0,0
9.809291,1,1,-3,-2,-2,-2,-1,-2,0
9.809296,0,0,-2,0,0,0,-1,0,0
9.829445,-4,2,-1,-1,-3,2,-1,-2,0
9.829461,-10,-11,-4,-5,-3,-2,-4,-6,0
9.830883,3,-2,0,1,0,0,1,-1,0
9.830901,-3,-3,-2,-2,-2,-2,0,0,0
9.852396,-1,0,1,-1,0,0,0,3,0
9.852416,7,3,0,0,0,-2,0,1,0
9.854022,-5,-3,-4,-3,-3,-3,-1,-3,0
9.854032,-6,-3,-1,0,-1,-1,-2,-2,0
9.866313,0,-7,-1,0,0,-3,-1,-2,0
9.866333,3,1,-1,-1,-1,-1,-2,-1,0
9.873301,-10,-6,1,2,-1,1,-3,-6,0
9.873323,2,1,-1,-1,-1,-1,0,2,0
9.890155,7,0,0,2,-1,-1,1,-2,0
9.890160,-3,-1,-3,-2,-2,-2,-1,-4,0
9.891161,-1,2,0,-2,-2,-1,-1,3,0
9.891179,4,3,-1,0,-2,-1,0,0,0
9.912160,-3,0,0,-2,0,0,0,1,0
9.912181,-7,-2,-2,-2,0,-1,0,2,0
9.914385,8,-1,-3,-2,0,1,-3,-1,0
9.914388,1,-3,-1,0,0,-1,-1,-2,0
9.926494,-6,1,-2,-3,-2,-1,-1,-1,0
9.926515,0,2,2,0,-3,-1,1,4,0
9.933507,8,1,0,-3,-1,-1,0,2,0
9.933525,-7,-4,-1,-1,-1,-2,-3,-8,0
9.951624,-5,0,0,-4,-1,-2,-1,1,0
9.951628,3,-3,-4,-1,-1,0,-2,-1,0
9.951631,-2,-2,-2,0,0,-1,1,-4,0
9.951632,-2,0,0,-1,-1,-2,0,2,0
9.972219,13,1,1,2,2,1,2,5,0
9.972247,-5,-5,-3,2,-1,0,-1,-5,0
9.974101,-5,-3,-2,-1,-4,-2,-2,-2,0
9.974106,2,2,0,0,-1,-1,0,1,0
9.986612,2,0,-2,-1,-1,-1,-1,-1,0
9.988122,-1,1,0,-1,1,-1,0,1,0
9.993163,-3,-2,-1,-3,1,-1,-1,0,0
9.993183,5,0,-1,0,-2,2,-2,0,0
12.010917,4,5,-2,1,1,-14,13,-1,2
12.011208,28,48,5,-3,-10,5,-22,-9,2
12.021648,-31,-6,-9,-6,10,-16,-8,-19,2
12.021699,72,-3,5,4,-1,5,3,9,2
12.035014,-24,-2,1,0,-9,-9,7,-7,2
12.035042,9,-5,-5,-4,12,-3,2,3,2
12.037399,4,-8,3,5,-7,-16,-5,3,2
12.037403,-12,6,0,-3,-11,22,-4,-4,2
12.057108,32,15,-1,0,-4,1,1,3,2
12.057132,-59,-11,-7,2,-10,10,5,-4,2
12.058633,35,8,1,-4,-14,-19,-11,8,2
12.058651,-44,3,4,3,28,52,-1,-17,2
12.073273,34,12,-6,-8,-16,-68,-3,-22,2
12.073280,-24,-30,-13,-5,-14,1,1,40,2
12.078133,34,4,10,6,13,27,8,-7,2
12.078149,14,0,4,6,-15,-24,-2,0,2
12.094532,23,-15,-3,-3,12,23,-12,8,2
12.094554,54,6,4,1,12,6,19,13,2
12.095938,-32,-22,-16,-5,-15,-29,-24,-46,2
12.095947,-10,3,5,2,-5,-2,-5,25,2
12.119431,14,30,3,4,-9,7,15,3,2
12.119437,42,-30,-14,-5,13,4,-21,-16,2
12.119439,-49,-13,-7,-8,-8,-11,-4,13,2
12.119441,46,-36,-4,-2,-14,17,5,-5,2
12.131944,-46,7,-12,-6,-11,9,-12,1,2
12.131972,-18,-3,9,6,4,0,-5,-3,2
12.139173,40,26,3,0,-12,-8,18,6,2
12.139198,32,17,-2,-7,9,-78,-11,3,2
12.155308,38,-27,-2,1,-12,11,-4,-17,2
12.155332,-104,-9,-7,-2,7,12,20,-8,2
12.157477,4,1,-1,-2,-2,-10,-27,-8,2
12.157483,-13,27,7,1,11,43,11,18,2
12.177167,2,-12,-5,1,-13,-45,-13,-4,2
12.177191,-35,20,3,-2,8,-12,-7,1,2
12.179257,52,9,-4,-1,0,-2,-1,-8,2
12.179263,-13,14,-1,2,7,11,27,14,2
12.190924,-62,14,19,5,8,12,3,3,2
12.190946,-7,16,-13,-6,-10,1,-13,-16,2
12.201215,-16,-7,-1,1,-2,-9,15,20,2
12.201220,32,-4,-1,1,8,-2,-23,-9,2
12.214437,15,-5,3,-1,9,5,10,7,2
12.214459,-4,37,7,3,-15,-8,-4,4,2
12.216024,0,-4,2,-1,13,18,4,-1,2
12.216042,-16,0,-4,-8,-8,-15,-3,12,2
12.237321,39,-6,-7,2,-11,-6,4,-14,2
12.237350,-128,-20,-4,-7,18,43,-10,-40,2
12.240028,-44,-9,-13,-8,-16,5,-20,-6,2
12.240042,43,1,4,0,18,-2,25,1,2
12.251077,37,6,-4,3,-30,-15,2,19,2
12.251099,50,-11,1,-2,40,5,6,-15,2
12.261138,-20,2,0,-1,-6,-2,2,4,2
12.261143,-45,-23,-12,-9,3,-3,-18,-28,2
12.274572,17,19,6,2,-1,19,16,8,2
12.274585,-3,-7,10,6,-5,14,5,15,2
12.275995,3,-3,-1,-3,-10,-53,-4,-29,2
12.276001,-11,-9,-3,2,-8,-3,-7,4,2
12.297736,14,14,1,-3,20,10,11,0,2
12.297766,-24,-4,-7,-4,-28,-8,-14,2,2
12.300190,51,24,10,3,13,2,6,31,2
12.300196,-29,-12,8,-1,-14,-5,0,-19,2
12.310989,35,-22,-24,-12,17,44,-18,-40,2
12.311015,-46,1,-5,1,-10,-16,-4,6,2
12.321243,22,8,7,6,7,14,20,17,2
12.321247,-38,3,-3,-4,-6,-15,-15,-26,2
12.337719,-26,-14,10,2,17,11,5,11,2
12.337731,70,6,3,2,-28,-16,3,14,2
12.337736,-22,-10,-4,-3,28,6,-1,-12,2
12.337740,41,-14,2,4,-11,20,3,6,2
12.357137,-26,-5,-4,-4,33,8,-20,11,2
12.357167,39,18,2,0,-30,-10,4,17,2
12.358523,-1,-27,-5,0,-11,-8,-8,-26,2
12.358637,19,11,-5,-6,10,-2,-3,13,2
12.371058,-61,2,-1,8,-1,-4,-2,-17,2
12.371077,72,4,12,-5,-6,-15,-9,2,2
12.382689,-16,-16,-9,2,8,59,-5,1,2
12.382695,-32,-7,-15,-6,-1,-7,-8,-14,2
12.395014,-6,-2,3,-1,-9,-24,1,-3,2
12.395044,14,-11,0,2,3,5,2,15,2
12.397767,15,-4,3,-1,-5,-10,5,-23,2
12.397774,-24,6,-4,-1,-4,1,3,13,2
12.417584,-4,1,5,2,0,-8,-8,12,2
12.417605,-36,46,-7,-1,-4,-1,10,-20,2
12.419550,-25,-11,-3,-4,-11,-12,-17,-8,2
12.419554,63,20,2,3,32,3,1,-21,2
12.430539,-12,-14,1,0,-15,-5,2,14,2
12.430558,-1,-7,-5,-4,2,-5,-4,-3,2
12.440947,-8,7,0,0,-4,-10,4,-5,2
12.440952,-6,-3,-2,-4,6,6,-15,2,2
12.454898,-11,-9,-3,-3,0,21,-4,-17,2
12.454935,28,-22,-2,-2,-2,-39,-4,-2,2
12.457225,-10,1,-3,-4,-18,-20,-1,11,2
12.457233,5,-17,2,1,2,-7,5,15,2
12.477432,15,2,6,5,2,41,19,9,2
12.477438,-59,13,-7,-1,-13,-32,1,7,2
12.478456,41,-20,-5,-6,22,17,8,6,2
12.478462,-9,-17,0,3,-28,-15,-7,6,2
12.490835,5,27,1,-7,-5,-19,-3,-8,2
12.490874,5,-7,4,1,-19,11,3,-10,2
12.501081,14,21,5,3,41,13,5,33,2
12.501087,-6,8,-4,-7,-6,4,-2,-6,2
12.514427,-20,3,-7,0,-19,-27,0,-2,2
12.514444,34,-18,-5,-2,36,26,-7,-3,2
12.516202,4,19,4,0,-29,-11,-5,2,2
12.516333,24,-60,-7,-5,2,-2,6,-17,2
12.537709,21,9,-10,-6,-2,-24,4,6,2
12.537738,-18,-17,10,0,-8,11,-11,11,2
12.540048,56,3,2,7,-7,-11,0,8,2
12.540062,-9,7,7,3,9,-10,-12,-20,2
12.551009,52,-6,-6,-5,-7,23,8,-7,2
12.551039,15,-5,0,-1,-19,12,7,3,2
12.560300,-66,12,0,-3,6,-54,-7,-6,2
12.560304,48,26,5,2,19,25,14,0,2
12.574585,-15,18,8,1,6,-19,4,18,2
12.574602,7,-27,-10,2,0,11,-15,1,2
12.577125,-31,-20,9,1,-10,8,1,-11,2
12.577140,-31,-16,-6,-3,-8,-5,0,-2,2
12.597024,-13,-16,8,5,18,6,4,21,2
12.597045,-29,33,-8,-8,5,-4,-6,-21,2
12.598628,5,-4,-3,2,-23,-1,4,2,2
12.598641,-22,-9,2,-6,-13,5,7,16,2
12.619639,-59,-3,-2,6,10,4,-12,-15,2
12.619656,45,-7,5,-2,10,-3,-4,-22,2
12.621324,-20,3,-5,0,5,-1,-1,-8,2
12.622634,35,20,8,1,-10,15,16,9,2
12.634502,-50,-35,-22,-10,-9,-28,-31,-27,2
12.634525,-11,2,5,4,-14,-33,6,12,2
12.636054,71,15,2,-2,32,73,8,-10,2
12.636057,-48,-11,-9,-4,-1,-13,-8,-31,2
12.657039,19,8,4,6,-14,18,10,8,2
12.657063,-23,-9,-5,-3,6,-35,2,4,2
12.658461,-1,-26,-3,-8,-20,2,-4,-8,2
12.658494,41,20,0,10,-5,-11,0,18,2
12.679440,26,-1,8,-2,2,9,-1,2,2
12.679458,-16,-1,-2,-2,-3,9,13,9,2
12.681253,-44,-11,-5,-6,7,25,-14,-12,2
12.681371,21,34,-12,-4,-9,-52,-35,-13,2
12.694488,-35,-10,-8,-1,-9,8,3,2,2
12.694503,18,3,3,1,16,23,8,-19,2
12.695962,10,9,2,2,0,-31,3,16,2
12.695982,-51,4,1,-9,-11,4,3,10,2
12.717423,0,11,-1,3,9,5,-9,-11,2
12.717453,-20,-19,2,-2,0,-6,-6,-3,2
12.719206,2,23,-4,-2,-29,-5,-4,0,2
12.719210,-13,2,8,4,14,24,2,10,2
12.741322,40,-27,-3,-4,-1,-9,7,-3,2
12.741349,-10,25,-5,-1,-5,10,1,11,2
12.741357,-53,-10,-5,0,3,-33,-9,-12,2
12.741362,-50,17,3,2,-4,26,0,-6,2
12.754577,-27,-8,-4,-3,3,-15,-1,-4,2
12.757075,17,5,2,1,1,5,2,13,2
12.760707,0,-5,-3,-6,5,-1,-2,-13,2
12.760723,34,-7,1,8,-6,-9,2,3,2
12.777066,30,9,10,3,6,-2,4,7,2
12.777095,20,5,-5,-3,9,19,-5,26,2
12.778634,-56,-34,-10,2,-9,-12,-10,-37,2
12.778651,-6,1,-3,-8,-56,-28,2,6,2
12.800373,16,-12,0,-5,64,69,2,10,2
12.800402,38,6,0,6,-11,1,7,0,2
12.803765,23,2,-3,-4,0,-5,6,3,2
12.803777,11,-31,-4,-2,7,1,-4,-19,2
12.814503,-12,16,-3,-2,-21,-3,-5,-6,2
12.814524,-19,-1,5,0,2,1,3,-9,2
12.820700,27,1,3,0,13,-1,-1,13,2
12.820715,-4,-6,0,1,8,15,3,5,2
12.837474,74,10,3,2,-12,-15,1,-14,2
12.837487,-108,-21,-6,-2,5,-12,-19,-33,2
12.838612,-15,-18,-6,-12,6,16,-2,11,2
12.838665,15,-23,-6,11,6,6,-13,-8,2
12.859711,11,-2,5,-5,-16,-18,10,2,2
12.859732,22,1,3,1,5,-3,-2,-3,2
12.860893,-14,10,1,-1,6,1,2,3,2
12.860940,6,8,0,-5,13,0,2,6,2
12.874001,39,2,2,2,-23,-34,3,24,2
12.874023,-3,-19,-4,-5,9,35,-15,-33,2
12.880974,2,12,1,4,-11,-11,18,19,2
12.881003,-3,-15,-2,-7,10,16,2,-5,2
12.897519,-70,7,-18,-4,-12,-24,-9,-7,2
12.897524,-8,41,-10,-15,-6,-4,1,8,2
12.898439,19,3,-1,8,12,5,1,-4,2
12.898454,-29,-17,1,2,-1,-9,-3,2,2
12.919606,29,-2,2,0,3,5,1,3,2
12.919629,28,-3,2,2,-7,-7,2,-4,2
12.921926,-3,5,-2,-3,0,2,-8,-2,2
12.921932,16,25,5,1,-4,0,4,18,2
12.934038,1,32,1,-7,13,34,4,1,2
12.934060,-61,-49,2,8,-9,-74,-18,-20,2
12.940771,82,-22,1,0,-3,-33,-6,10,2
12.940786,-31,-12,-5,-4,-5,2,-2,6,2
12.957066,-13,8,-2,-4,-3,-9,0,-3,2
12.957083,20,3,8,7,-4,8,11,18,2
12.959211,5,-16,0,-6,-17,1,0,-1,2
12.959217,13,-5,-3,1,0,3,1,-12,2
12.979451,54,3,8,6,0,-14,22,4,2
12.979474,-5,17,-7,-8,14,-12,-24,0,2
12.980996,28,3,0,8,-11,-1,-2,1,2
12.981950,21,-4,-9,-9,6,-3,-2,1,2
12.993780,-19,2,1,0,-5,-21,-6,-32,2
12.993799,-17,-13,2,1,-8,17,10,17,2
13.000997,-8,22,2,-1,9,9,7,3,2
13.001027,8,9,17,6,-7,-14,0,8,2
13.017252,-48,-27,-22,-7,33,4,-20,-32,2
13.017274,46,3,-1,-2,-14,15,13,3,2
13.018451,-4,14,-3,-2,6,4,-8,-6,2
13.018502,-7,-15,0,1,0,4,0,-1,2
13.039875,-32,-17,1,-4,-9,-2,-10,-2,2
13.039907,3,-1,0,3,13,5,2,5,2
13.041028,-5,8,5,2,-8,2,6,2,2
13.041108,43,22,5,1,-13,-12,2,14,2
13.053755,-39,-33,-3,-4,28,10,8,-6,2
13.053768,32,-61,-21,-9,-11,44,-32,-39,2
13.060781,20,-9,7,0,-15,-21,15,12,2
13.060799,30,4,-5,-2,12,-3,-9,-12,2
13.076976,30,21,3,3,-17,8,17,33,2
13.076995,30,5,11,2,0,4,15,16,2
13.078560,-77,-2,-4,4,13,4,-10,-13,2
13.078567,-31,13,-3,-3,4,7,-3,-9,2
13.099383,11,-7,-1,1,-15,-9,2,11,2
13.099399,-9,-16,-5,-7,-5,-17,-12,-17,2
13.100881,7,31,3,4,3,5,-4,-8,2
13.100895,-33,-5,-4,-7,-13,-13,0,6,2
13.114075,-8,17,2,5,17,4,-14,-13,2
13.114080,26,6,10,3,-5,-9,19,20,2
13.124204,-2,74,-10,-7,0,1,-7,-2,2
13.124209,7,-55,-6,-1,6,18,6,6,2
13.136935,-21,-14,-5,-2,-14,-19,-25,-35,2
13.136957,-9,35,10,4,7,3,6,39,2
13.138712,33,-23,1,-3,-13,-2,3,-7,2
13.138737,28,19,-2,-1,3,-5,-2,-4,2
13.160910,-62,-6,-3,0,-5,8,6,8,2
13.160925,-18,13,-1,1,18,9,-11,-16,2
13.161155,-24,20,6,-1,-4,2,-1,14,2
13.161165,3,-22,-5,-2,5,1,-10,-24,2
13.173238,104,64,11,2,-15,-14,12,29,2
13.173265,24,-22,-13,-1,-5,20,-15,-7,2
13.183197,84,-14,-3,-4,16,-55,-2,17,2
13.183202,3,8,1,0,7,12,1,-14,2
13.197326,-33,-5,1,4,-2,3,-5,6,2
13.197356,1,13,3,-1,-18,-18,8,6,2
13.199524,-5,-16,-5,0,15,20,-8,-4,2
13.199530,3,-7,0,-2,-3,-6,9,18,2
13.219902,-22,-26,-5,-5,20,-5,-10,-8,2
13.219931,0,23,1,-2,-15,-6,4,7,2
13.222752,-28,-15,-4,-2,-2,9,-4,-3,2
13.222762,-27,-30,-9,-3,-13,-4,7,-4,2
13.233593,15,-4,-4,0,2,4,-17,-19,2
13.233626,-5,7,-2,-3,5,19,7,2,2
13.243116,-21,2,9,3,5,-40,13,-6,2
13.243124,-52,16,-2,1,-21,0,-5,-4,2
13.257163,30,9,1,0,6,4,11,21,2
13.257182,-37,21,-7,-10,13,-7,-4,-45,2
13.258637,39,-22,0,3,-8,28,-16,-17,2
13.260107,3,12,-2,-2,2,2,1,31,2
13.279809,22,-45,-6,-4,-18,-17,-8,-9,2
13.279831,-19,16,-1,1,-18,24,15,3,2
13.280972,-5,-5,-3,-2,36,-56,-7,-31,2
13.280986,13,3,-1,-1,8,19,-4,5,2
13.293319,-16,-4,7,-4,-16,1,-12,-29,2
13.293341,39,-12,7,8,15,19,3,13,2
13.303917,-35,-12,-6,-7,-22,16,10,5,2
13.303921,22,13,5,4,3,-12,-13,-8,2
13.316900,-21,-4,0,3,3,-11,8,-2,2
13.316914,-20,7,-3,-1,6,-19,-8,-1,2
13.318409,9,-16,-10,-10,-39,16,-9,-8,2
13.318421,-24,10,-3,-7,24,-7,6,-14,2
13.339661,-30,-14,-4,-5,-6,23,4,1,2
13.339688,33,-34,-4,7,1,-21,-13,5,2
13.341451,-4,-12,-2,-4,1,20,-1,0,2
13.341457,30,6,-1,-1,-11,-14,-6,-4,2
13.353385,9,19,0,-1,-18,2,0,0,2
13.355333,26,20,5,3,-1,-11,7,9,2
13.362507,-88,1,0,-1,-8,-11,-4,3,2
13.362511,-95,10,-11,-6,0,22,-8,-26,2
13.379018,17,-3,2,5,6,2,-6,28,2
13.379024,2,-9,2,-2,6,-16,7,-2,2
13.379026,17,9,3,6,-6,11,-5,-17,2
13.379028,-43,0,0,-2,6,0,-4,-18,2
13.400106,-9,2,-2,-5,-10,-7,-4,-2,2
13.402094,-6,2,-3,-4,-5,2,1,-1,2
13.402098,-13,11,4,2,10,5,7,13,2
13.402100,88,-17,0,-1,-9,-16,-6,0,2
13.413251,-58,10,-3,-2,30,38,-8,0,2
13.413269,44,-6,-9,-8,-20,-80,0,-8,2
13.423498,-54,-1,3,9,6,16,0,3,2
13.423506,3,-8,3,2,3,-2,5,11,2
13.437534,35,11,-2,3,-9,2,5,5,2
13.437562,-43,-3,1,-4,1,8,-9,-9,2
13.440595,37,11,2,-1,5,6,-1,12,2
13.440602,12,-19,7,4,-13,-8,3,10,2
13.459701,-86,3,-7,-5,7,-3,-1,-22,2
13.459720,53,-26,-3,-1,-5,-10,1,-14,2
13.461171,15,-14,-3,-3,-10,20,-12,7,2
13.461205,-24,-12,-2,-1,3,3,-7,-9,2
13.473214,40,17,3,1,-6,-13,3,4,2
13.473231,-17,-4,-3,-3,3,9,3,2,2
13.484124,18,5,-2,-1,-1,-1,-7,-2,2
13.484130,-48,-9,2,1,3,-5,-7,-17,2
13.497823,28,29,2,1,4,-13,-7,14,2
13.499787,-53,-33,-7,1,9,17,3,24,2
13.499791,11,-20,-4,-4,-34,2,-3,-5,2
13.499793,7,26,2,0,19,-42,7,-2,2
13.519623,-7,-16,1,0,-2,45,3,-13,2
13.519636,-28,1,0,-2,14,-35,0,-1,2
13.521359,-6,8,1,3,2,-4,4,-11,2
13.521439,30,-12,-4,-10,-10,10,0,10,2
13.542041,47,-3,3,11,-5,-4,3,2,2
13.542059,-8,-6,0,-1,-7,9,-5,-11,2
13.543624,11,-22,-7,-4,3,-4,0,5,2
13.543641,5,47,-3,-3,-13,-11,-7,-1,2
13.557368,-26,-12,1,0,10,9,2,1,2
13.557389,-31,-8,-6,-5,-10,14,0,-14,2
13.559075,-60,23,-16,-5,-2,-16,-14,-30,2
13.559081,44,-33,-2,3,10,18,6,5,2
13.580508,-51,-14,0,-2,-23,-14,11,2,2
13.580514,22,-3,0,2,-1,5,-23,3,2
13.581088,10,17,8,-8,1,9,14,13,2
13.581161,-25,-3,-4,8,18,1,0,-6,2
13.601943,18,3,12,0,-11,-14,-7,-3,2
13.601965,39,20,0,-4,-25,-8,8,3,2
13.603562,-81,-16,-3,0,38,42,-2,5,2
13.603570,42,19,1,1,-9,-4,-5,0,2
13.617112,-18,-25,-5,-3,0,-8,-1,0,2
13.617133,29,23,1,2,4,9,-3,20,2
13.619051,18,0,3,1,-11,-14,-1,-22,2
13.619059,-11,-18,1,-2,-5,1,1,-21,2
13.641011,-8,5,-13,-8,19,-3,-8,-18,2
13.641019,-52,-14,-1,-4,-9,13,4,-2,2
13.641091,35,-11,-5,-2,-1,-15,-8,3,2
13.641147,5,6,7,1,0,11,12,10,2
13.662568,2,-2,1,0,-7,2,-7,-15,2
13.662583,-16,28,5,2,5,-40,-6,-1,2
13.665185,-47,-34,1,-2,-12,-11,-9,3,2
13.665190,-42,9,-6,-1,21,66,-22,5,2
13.676497,42,-8,8,2,-3,-18,3,-18,2
13.676517,23,-9,-11,-2,-5,-24,1,-5,2
13.683633,-12,64,5,3,-4,26,9,8,2
13.683662,13,-22,-4,0,4,-4,7,14,2
13.699988,45,-2,-3,-3,0,8,-3,9,2
13.700017,-24,12,4,3,12,19,-1,-8,2
13.701889,36,-6,6,2,-2,-14,6,5,2
13.701894,32,8,-4,-3,-11,-18,-8,-16,2
13.722147,-25,-4,-8,-4,0,-4,-1,9,2
13.722235,-32,-12,4,0,-1,4,3,10,2
13.723608,-24,-9,-4,-3,2,-9,-7,-28,2
13.723631,-45,-8,-1,-3,-8,-4,0,-7,2
13.736233,-11,2,2,5,-6,-17,3,15,2
13.736247,-13,-25,-2,-3,-7,27,3,-4,2
13.743116,32,-10,-3,-1,0,-8,-3,-8,2
13.743136,26,18,4,3,-9,3,10,7,2
13.759669,10,-34,-5,-3,17,3,-16,26,2
13.759699,-42,-16,-12,-9,-7,26,-28,-43,2
13.762375,32,30,8,3,6,2,3,18,2
13.762379,7,-52,-5,-7,-13,-21,4,-6,2
13.782033,57,9,3,4,-2,11,8,23,2
13.782046,7,12,8,9,7,3,3,-7,2
13.783355,5,-22,-2,-1,2,-8,-3,3,2
13.783368,3,6,0,-3,-2,2,-8,-12,2
13.798560,-67,-15,-3,-5,0,-2,1,-9,2
13.798566,33,1,-3,3,3,-9,-2,8,2
13.803343,9,2,2,-1,-3,4,6,-18,2
13.805795,3,5,2,3,12,-13,3,29,2
13.819633,12,9,-11,-9,-21,10,-5,-17,2
13.819655,-5,-9,0,-5,-4,-60,1,-6,2
13.821834,26,7,0,8,22,42,-11,18,2
13.821839,5,4,5,3,-4,2,8,11,2
13.843447,-24,4,-6,-7,0,-21,-4,-18,2
13.843453,40,-11,-6,-7,-4,28,-1,28,2
13.843455,9,-8,1,0,-10,-27,-3,-7,2
13.843457,27,12,-4,-1,-6,7,-7,-9,2
13.856452,-4,18,3,0,-2,-12,7,7,2
13.856475,28,8,7,2,6,11,9,10,2
13.863278,18,-10,-5,-4,-5,-12,-1,-26,2
13.863297,-81,-24,-11,-5,-2,9,-8,-21,2
13.880625,6,4,0,0,-3,-3,3,8,2
13.880645,4,27,1,-1,-9,3,-1,-12,2
13.882219,-4,-18,-2,-1,-1,-8,1,1,2
13.882225,-12,8,2,5,12,-10,2,7,2
13.901939,19,4,-4,-1,2,3,-1,-16,2
13.901961,-6,-2,4,2,-14,-9,-2,4,2
13.905064,-20,36,9,-4,12,4,9,44,2
13.905072,-11,-38,-12,-12,-9,1,-21,-53,2
13.916950,52,6,-2,7,-1,-11,11,24,2
13.916978,11,24,1,2,25,18,-26,-20,2
13.923317,23,-3,6,1,2,10,23,30,2
13.924861,-36,9,-3,-4,9,5,-11,-26,2
13.939588,-11,-1,-1,0,-9,-61,2,1,2
13.939616,-17,-17,4,0,-5,-12,2,-10,2
13.941236,-7,-6,-7,0,1,8,-4,-2,2
13.941253,12,16,1,-1,-8,-7,9,18,2
13.962583,-6,-4,-1,-3,-1,15,-7,-14,2
13.962612,7,-7,-2,-6,12,8,6,7,2
13.964138,-7,23,-2,4,-11,-17,-4,6,2
13.964142,6,31,-6,-2,-29,-7,9,27,2
13.976416,33,-32,-5,-8,30,7,-12,-26,2
13.976437,-21,-19,-6,-2,-9,8,9,1,2
13.983273,13,-10,-1,-1,-4,1,-4,5,2
13.983320,22,20,15,4,1,-9,5,5,2
14.000509,-14,2,1,5,-2,22,1,-2,2
14.000515,14,8,-4,-1,1,1,1,2,2
14.000927,0,-14,-3,-5,-3,-19,-3,-12,2
14.000934,-17,-5,-2,-2,18,4,9,7,2
14.022163,5,-3,-4,1,-10,-6,-12,-2,2
14.024180,-20,1,4,0,-18,-18,14,7,2
14.024188,-41,-3,-3,-3,27,23,-32,-56,2
14.024245,-42,-35,-19,-2,-3,-12,-6,16,2
14.035870,-57,-35,-2,-7,-10,39,9,-14,2
14.035899,0,1,3,10,3,-14,0,12,2
14.045136,29,12,3,-2,-5,6,8,9,2
14.045140,24,4,4,1,-14,11,-4,-3,2
14.061041,-7,4,6,0,20,-33,-4,2,2
14.061050,61,18,4,0,-7,2,13,12,2
14.061055,-61,22,-8,-1,-3,16,-7,-23,2
14.061059,45,21,-7,-6,14,-33,-22,-21,2
14.081942,-67,8,-1,-2,-20,32,3,22,2
14.081963,50,-13,-5,-4,2,-7,5,-9,2
14.084538,33,2,2,1,-3,-17,8,16,2
14.084544,6,4,2,5,-1,8,1,9,2
14.096239,27,19,4,3,3,7,2,-6,2
14.096260,-32,9,-3,-4,5,-7,-10,-19,2
14.107239,-34,-34,-5,-6,-14,9,1,-10,2
14.107247,3,2,2,2,4,-9,-11,10,2
14.119905,-3,-13,-4,0,-3,-17,3,1,2
14.119934,-29,-5,-4,-1,4,20,-3,-4,2
14.122855,33,9,3,-3,-13,-19,5,12,2
14.122869,12,5,3,-5,-4,9,7,-7,2
14.142207,-19,-3,0,14,1,-2,0,2,2
14.142224,-10,32,6,2,5,-2,-2,7,2
14.143593,-41,-6,-21,-9,-7,1,-13,-55,2
14.143610,-43,-7,3,-3,-3,-8,-1,0,2
14.155712,27,12,9,1,4,3,-4,10,2
14.155731,24,17,-1,-1,-8,5,7,1,2
14.165078,12,-28,-2,1,-3,-17,-4,0,2
14.165090,7,-2,4,0,4,5,7,5,2
14.179429,6,18,-5,-8,-7,7,-5,-13,2
14.179452,5,-16,1,0,3,-1,9,12,2
14.181136,51,-13,0,-1,-3,-12,-6,16,2
14.181232,-46,-25,-10,-7,-8,-3,-10,-40,2
14.201881,4,-2,2,0,0,-6,1,-5,2
14.201888,3,-20,-4,-1,6,6,-6,-12,2
14.203379,31,32,-6,-3,-16,6,-11,19,2
14.203392,9,1,-4,-3,17,-10,-7,-15,2
14.217085,39,-8,-3,-2,-8,-2,2,-11,2
14.217091,-37,-16,-4,-1,-1,5,-9,-2,2
14.225814,-19,-20,3,0,4,-6,14,1,2
14.225820,28,17,8,7,-11,5,2,6,2
14.239500,-3,16,-4,-6,1,-6,-6,6,2
14.239533,-21,-12,-4,-2,-1,-8,-12,1,2
14.241268,41,18,1,1,-4,2,13,16,2
14.241276,-41,-17,-7,-1,-11,7,-1,-14,2
14.263958,-23,-3,-4,-11,3,-5,-3,-3,2
14.263964,6,-8,0,5,-3,5,-3,1,2
14.263966,33,1,7,3,3,-17,3,17,2
14.263968,44,9,-1,2,3,9,8,-8,2
14.275648,3,-22,-5,-3,-3,-4,3,-5,2
14.275670,-14,17,-9,-7,-5,-9,-9,-9,2
14.285701,-9,-19,1,-4,5,34,4,-2,2
14.285706,29,22,7,8,-7,-69,1,26,2
14.300353,5,6,-6,-5,-6,23,0,-11,2
14.300372,42,-4,3,2,1,-4,-6,-9,2
14.302184,20,-3,2,2,4,-5,3,14,2
14.302188,5,9,4,-3,-2,18,-5,22,2
14.322271,-23,-16,-2,0,12,8,-6,-22,2
14.322295,-8,-9,-2,-3,-19,-27,7,5,2
14.324959,4,11,-2,3,-6,-2,-23,-14,2
14.324965,-48,-31,-8,-7,8,15,2,-8,2
14.336022,13,17,2,6,-3,-4,-3,12,2
14.336054,-20,-3,8,-3,1,-4,4,10,2
14.346048,-70,13,-8,-2,-8,16,-3,-27,2
14.346052,11,-17,-8,-3,2,-6,-8,7,2
14.359475,12,-7,0,-2,1,8,-5,-4,2
14.359487,-1,19,2,3,-4,-5,1,-1,2
14.361089,-13,-26,2,2,6,-13,7,9,2
14.361105,-14,8,1,-4,-12,7,4,-12,2
14.382356,-22,5,-1,2,9,-1,1,-8,2
14.382377,0,-27,-1,0,4,-3,-11,22,2
14.384298,17,-24,-2,-12,-3,25,4,-10,2
14.384303,-35,-22,-5,7,-2,8,1,-11,2
14.396446,-14,31,1,-4,-11,-18,-12,12,2
14.396475,-1,-19,-6,-1,15,12,1,-14,2
14.405689,-1,3,1,2,4,26,11,8,2
14.405697,11,-4,1,-4,-46,-43,5,9,2
14.420112,39,4,1,2,28,6,6,-3,2
14.420118,-14,16,0,1,0,14,2,5,2
14.420943,-34,3,0,2,-8,-22,-15,-20,2
14.420951,54,32,-5,-5,9,25,8,-2,2
14.442101,-19,-41,-10,-2,-16,-15,1,-1,2
14.442122,34,13,2,-3,0,-4,-1,1,2
14.444418,-18,-17,-2,2,4,-24,0,9,2
14.444422,9,1,6,6,7,5,0,2,2
14.455720,-9,0,1,-6,-4,-5,1,4,2
14.455743,-17,-7,-3,1,2,9,-4,-3,2
14.466284,29,11,1,-1,-4,-15,7,2,2
14.466290,34,6,5,3,3,9,-5,15,2
14.481845,-31,-24,3,2,-11,1,12,-23,2
14.481849,-8,-19,-20,-13,4,-3,-33,-7,2
14.481852,-5,1,-9,-1,-8,10,-8,-5,2
14.481854,-43,-36,3,1,3,-3,6,-5,2
14.502822,50,-1,-3,-4,-16,3,1,16,2
14.502845,33,4,8,9,11,-3,15,-11,2
14.505304,-16,8,-3,-3,5,-5,-5,-10,2
14.505312,13,3,3,-7,8,7,-3,14,2
14.524624,27,12,3,6,-4,2,3,5,2
14.524646,-32,3,2,-2,-4,2,2,-1,2
14.525994,0,-14,-1,-1,6,-11,-7,11,2
14.526074,-6,32,-1,-2,5,25,15,-14,2
14.539522,-58,1,6,3,-3,-61,-3,22,2
14.539541,-9,-27,-24,-15,-7,-48,-11,-62,2
14.541994,-3,7,6,3,-2,-11,1,18,2
14.542004,-18,-44,-3,0,26,8,20,-13,2
14.562694,-12,23,-2,0,-9,2,-20,-9,2
14.562721,0,7,6,4,-5,13,10,15,2
14.563506,30,7,5,-3,4,-5,8,5,2
14.563536,-13,3,-4,2,-7,-8,-10,-10,2
14.584788,14,7,-3,-4,3,10,3,21,2
14.584810,6,1,3,2,-12,-1,-2,-4,2
14.586446,-30,-13,-5,1,14,-4,-2,10,2
14.586457,-4,45,-1,-3,-10,-1,-7,-30,2
14.599402,3,2,0,2,2,0,2,2,2
14.599424,18,-2,-6,-9,-7,5,-12,-7,2
14.600830,-13,14,-1,3,0,-1,6,5,2
14.600836,32,-3,3,2,-3,-18,-10,17,2
14.621388,11,2,1,-2,6,20,3,-2,2
14.621431,-15,7,-1,-1,-1,-1,1,3,2
14.622165,11,-3,2,1,-1,0,-1,-1,2
14.622187,8,-4,1,-9,-29,-22,-8,-7,2
14.643861,14,-3,5,12,26,28,9,-9,2
14.643878,-7,2,4,4,7,42,9,12,2
14.645122,16,2,-10,-7,-19,-53,-16,-14,2
14.645128,-84,-26,-9,-3,2,4,-26,-2,2
14.658860,-14,-15,-1,-3,-5,23,-6,-3,2
14.658887,-6,26,9,3,2,-18,12,12,2
14.660352,45,7,1,2,6,16,11,5,2
14.660356,25,-8,-3,-1,-5,-1,3,6,2
14.683427,-9,-1,-1,-4,-6,0,-1,8,2
14.683432,-16,4,-2,-1,9,-2,-7,6,2
14.683434,-29,1,-1,0,-11,-17,-8,-28,2
14.683436,33,-9,-5,-12,7,-20,-3,4,2
14.704143,-13,-10,-3,12,-3,18,7,-11,2
14.704454,17,-2,-1,-5,-4,-8,-1,7,2
14.704790,48,-11,-1,-3,-3,6,-7,-4,2
14.704809,15,5,4,3,5,4,7,10,2
14.719234,34,9,-1,-5,-1,-21,-4,14,2
14.721265,0,-11,-4,-2,-8,1,-6,-16,2
14.721271,-69,-23,-4,-4,-4,15,-8,0,2
14.721272,-24,11,1,5,3,13,3,11,2
14.741285,24,5,-1,-6,-6,-10,-12,5,2
14.741301,-38,-3,-9,-2,-3,5,-1,-4,2
14.742847,48,-8,-2,0,6,7,4,-5,2
14.742853,51,17,0,-4,3,5,7,5,2
14.763887,-52,-35,-1,2,2,-11,-1,8,2
14.763900,37,-16,9,5,-5,-4,-3,-33,2
14.764408,-29,17,-22,-10,1,7,2,14,2
14.764422,-3,-10,-1,1,-2,-4,-36,-27,2
14.778604,36,-11,-3,-4,0,-5,3,0,2
14.778620,-4,7,8,4,4,10,15,13,2
14.786636,21,15,7,-1,1,2,2,1,2
14.786669,-1,-1,-1,2,-3,-6,-2,-7,2
14.801288,9,17,-1,-3,4,0,2,-4,2
14.801310,-61,-30,-5,1,-29,10,3,-6,2
14.803531,-19,-21,-3,-2,28,28,-3,-12,2
14.803541,14,6,-2,-2,8,-23,6,11,2
14.825469,-34,-1,-2,1,-3,2,3,-25,2
14.825475,26,-1,1,0,-17,28,3,18,2
14.825478,-6,7,5,2,17,14,5,7,2
14.825480,-4,-7,-3,4,-9,13,5,-3,2
14.841753,40,9,3,-7,16,10,0,-5,2
14.841759,-48,4,-5,0,-5,-53,0,-3,2
14.841762,33,-25,-5,3,-12,-11,0,0,2
14.841764,11,20,7,3,4,12,9,-7,2
14.861837,4,-4,-7,-5,-14,-11,-8,1,2
14.861852,16,12,-1,-3,11,3,-2,-4,2
14.864118,-19,13,4,2,-6,-12,-5,-8,2
14.864122,-24,-12,-1,1,-4,-10,4,10,2
14.884482,14,22,2,0,-8,-1,3,5,2
14.884510,35,-8,5,2,15,-1,-6,13,2
14.887445,-42,7,-12,-5,-9,3,-9,-10,2
14.887454,-45,-16,-8,-10,2,3,-15,-3,2
14.898506,16,9,4,10,-6,-3,2,-3,2
14.898545,12,4,-2,-2,6,0,-2,5,2
14.906476,-16,-1,5,0,-7,-7,4,10,2
14.906519,56,26,0,-2,-3,6,1,1,2
14.921350,-109,-38,-8,-4,-7,-11,-7,-15,2
14.921364,19,11,4,8,14,-8,9,1,2
14.922124,32,11,5,3,8,35,19,6,2
14.922143,-1,-21,-7,-2,0,-1,-5,-8,2
14.943914,-4,6,1,-7,-12,-8,0,7,2
14.943936,10,-7,-4,1,14,26,1,6,2
14.946193,-20,2,2,-4,-11,-49,-10,-7,2
14.946197,10,-11,1,5,-10,-4,4,2,2
14.958113,-15,4,-1,-3,6,11,1,-2,2
14.958136,51,12,-3,-4,-7,-10,-18,2,2
14.966590,8,-2,3,1,0,8,14,0,2
14.966622,-9,-5,2,-2,0,-8,-13,7,2
14.981328,29,3,-5,-4,-6,-10,4,-11,2
14.981378,31,17,4,3,3,6,-1,33,2
14.981910,-77,-11,2,0,-7,-3,-13,-34,2
14.981923,-36,-52,-6,-1,3,-10,4,6,2
15.003865,-40,-9,-6,-4,-3,-5,-1,3,2
15.003889,-30,14,-1,-2,-3,1,4,24,2
15.006145,54,2,4,-2,-1,-4,-5,5,2
15.006151,-42,9,1,5,0,2,12,3,2
17.029431,-11,-2,0,1,3,-3,-1,-1,0
17.029605,3,0,-3,-2,1,4,-1,1,0
17.030910,-3,-5,1,2,-1,-1,0,2,0
17.030962,-8,8,-1,0,1,-1,-1,-3,0
17.043135,4,-4,0,-3,-2,-3,-1,-2,0
17.043222,-6,-2,-1,-1,-2,4,-3,-5,0
17.051949,-3,-2,-2,1,0,1,8,-1,0
17.051977,17,3,-1,-2,-3,-11,-3,-3,0
17.067591,16,-5,-1,-3,0,3,-7,1,0
17.067621,-21,10,0,-4,-1,-2,-2,-2,0
17.069826,-79,-16,-2,2,-2,0,0,-5,0
17.069835,38,11,3,2,-5,4,7,4,0
17.089496,-17,-3,-1,-3,-1,-2,0,-4,0
17.089525,25,-11,-3,-1,5,-2,1,-3,0
17.090459,12,-1,-5,-4,-4,2,-3,0,0
17.090485,-10,4,-3,-3,0,0,-2,-2,0
17.103021,-1,-3,4,9,-1,-1,1,2,0
17.103035,-11,8,1,-2,-4,0,-1,2,0
17.111563,19,6,1,-2,0,-1,-3,-2,0
17.111583,-14,-13,-5,-2,-3,0,-5,-5,0
17.127118,7,5,0,-2,-1,0,-1,-1,0
17.127147,0,-5,0,3,-2,-1,3,0,0
17.129661,15,5,-2,-2,0,-1,-3,-2,0
17.129666,-12,2,0,0,-3,-2,-3,0,0
17.149996,-7,1,1,-4,-3,4,8,-3,0
17.150024,8,-5,-1,1,3,-9,-8,0,0
17.152008,29,6,1,1,3,-2,3,3,0
17.152012,-32,-10,-7,-3,-4,14,-11,-4,0
17.163510,14,4,-2,-4,1,-3,-2,-1,0
17.163538,-7,-8,-1,3,-2,1,1,-1,0
17.171359,25,5,2,0,-4,-4,-1,1,0
17.171384,-2,-1,1,1,2,-1,5,-2,0
17.186881,0,-3,-2,-4,1,-2,-1,0,0
17.186903,-12,-4,0,-2,-3,-3,-2,1,0
17.188128,1,0,-2,-2,1,1,-3,-1,0
17.188136,0,9,1,0,-4,-2,1,2,0
17.209477,-10,-9,-1,0,5,-3,-4,-1,0
17.209490,6,1,0,-2,-4,-3,0,-1,0
17.210113,-11,-5,-3,-2,-2,2,-1,-1,0
17.210125,6,-1,1,1,-1,-3,-1,-1,0
17.223695,-3,6,1,-2,-3,-3,1,1,0
17.223699,-3,2,0,-2,3,2,2,-1,0
17.231425,3,-6,1,1,-4,0,-1,1,0
17.233492,4,12,0,-4,4,-4,4,1,0
17.247691,-10,-9,-1,2,-1,-1,1,-3,0
17.249347,-33,-2,-2,1,-2,6,7,-3,0
17.249351,-20,-11,-5,-4,-4,-6,-15,-9,0
17.249353,18,3,0,-4,-3,-3,3,4,0
17.271000,6,2,-1,3,1,3,1,-2,0
17.271006,4,1,1,-3,-1,0,-2,2,0
17.271008,-5,2,1,0,1,-2,5,3,0
17.271010,9,0,0,0,0,-1,-1,-1,0
17.286336,5,-7,-5,-2,-3,0,2,-3,0
17.286347,-6,5,-2,-1,-2,3,3,1,0
17.291327,9,-2,-2,-3,-1,-11,-10,-2,0
17.292609,-10,-4,-3,1,-1,-2,0,-4,0
17.307132,-2,2,1,0,-3,-2,0,3,0
17.307153,10,-6,-2,2,1,-2,2,0,0
17.308481,6,-1,-1,-3,1,4,3,-3,0
17.308485,-11,6,-4,-1,-1,-1,-4,-1,0
17.331134,-3,-1,-1,-2,-2,-3,-2,0,0
17.331146,37,6,1,0,2,-1,-3,-1,0
17.331150,-2,-3,-3,-2,4,-2,0,0,0
17.331153,-58,-17,-3,-1,-3,1,0,-2,0
17.352095,6,-2,-3,-6,6,0,-3,-4,0
17.352139,9,2,1,5,-14,-3,-5,2,0
17.352578,7,4,0,-2,-2,-2,-3,0,0
17.352591,9,-6,1,1,0,0,3,1,0
17.367294,7,2,-1,-1,1,-1,-2,-2,0
17.367313,-21,-3,-2,-3,0,0,-3,-3,0
17.367980,-5,1,0,0,-4,1,1,1,0
17.367999,9,-1,1,1,5,2,0,-2,0
17.389974,20,10,1,0,-5,-5,-3,-3,0
17.389999,-22,-8,-5,-3,1,-4,2,-2,0
17.392149,-7,-4,-1,0,-3,2,5,2,0
17.392156,10,7,0,1,-2,2,9,1,0
17.411906,6,2,3,0,-2,-6,-10,0,0
17.411927,-6,2,-1,-1,2,0,5,-3,0
17.412569,-1,0,-2,-4,1,0,-1,-2,0
17.412575,16,-3,0,3,-4,-2,-1,0,0
17.426916,-15,-3,-1,1,-3,1,5,0,0
17.426931,-5,-2,-1,-4,-2,-3,-5,-2,0
17.427872,20,5,-2,2,0,0,-2,1,0
17.427889,-42,-9,1,-6,0,-2,-6,-5,0
17.450276,-6,-9,-2,0,-4,0,-2,-4,0
17.450304,-2,-3,-3,0,0,-5,-8,-3,0
17.451804,5,12,0,-1,0,-1,3,1,0
17.451808,14,-1,0,-3,0,-4,0,1,0
17.473686,-4,1,-1,-3,-1,0,-2,0,0
17.473715,9,-4,0,-1,1,-3,-1,0,0
17.473717,-14,-3,-2,-1,-1,0,-1,-4,0
17.473718,8,3,0,-2,-1,-1,-5,-3,0
17.486035,-8,-3,-2,2,-1,0,1,0,0
17.486067,0,-2,0,-2,0,1,-3,1,0
17.494441,-5,-3,-1,1,-5,-1,-1,-2,0
17.494457,3,-3,-4,-5,1,-3,-3,-2,0
17.509624,1,-1,0,0,0,-2,1,1,0
17.509646,3,0,2,-1,-2,0,2,0,0
17.511178,-11,-1,-1,0,1,0,-3,-6,0
17.511184,-7,-7,-1,0,-3,-4,-3,0,0
17.532454,9,0,-1,-2,-1,1,1,1,0
17.532474,21,4,0,-2,-6,5,-2,2,0
17.533981,-8,-2,-1,2,3,-11,-6,-1,0
17.534052,18,-2,0,3,-2,2,15,3,0
17.546088,-41,4,-5,-3,-3,-11,-28,-7,0
17.546108,10,-10,-2,-2,0,-2,4,-6,0
17.557178,-10,-6,-4,0,-2,2,3,1,0
17.557185,-3,5,-1,-8,-6,-4,-7,-2,0
17.569485,14,3,0,7,9,6,9,3,0
17.569498,-32,-1,-2,-5,-1,-3,-1,-1,0
17.571040,-7,-7,-1,0,-2,-1,-3,0,0
17.571078,-5,2,-1,0,1,-2,-4,-2,0
17.592080,-7,-3,2,-3,-2,1,2,1,0
17.592101,-4,0,-1,2,1,0,-6,1,0
17.594174,-4,-4,1,-1,-3,3,3,-3,0
17.594179,7,11,-3,-1,-3,-4,-6,0,0
17.605789,7,-4,-1,-2,-3,-2,3,-1,0
17.605808,7,2,0,-1,1,0,0,-1,0
17.615875,-4,-2,1,-3,1,0,-2,-1,0
17.615880,-17,-5,0,3,0,0,-2,-1,0
17.630428,-10,-9,-2,-3,-7,-1,0,-1,0
17.630445,1,1,-3,-2,2,-2,0,-4,0
17.631126,2,-1,0,2,5,0,0,-1,0
17.631147,26,-2,2,1,-10,0,-3,-1,0
17.652362,-30,-2,-1,-5,-2,2,3,-5,0
17.652395,-9,-3,-4,-1,-2,0,-3,1,0
17.655310,12,3,0,-5,1,0,-3,1,0
17.655319,-1,-3,-2,2,2,3,2,0,0
17.666079,21,5,-1,-1,-2,-12,-7,1,0
17.666107,2,-1,-1,0,1,-1,-1,-2,0
17.675435,-14,-1,-3,-2,-6,-1,-2,-1,0
17.675439,13,-5,-2,-3,2,5,2,0,0
17.689816,-14,4,-2,2,-2,-7,-6,-4,0
17.689847,-15,-7,-2,-3,0,9,0,1,0
17.692295,4,4,0,1,-1,-2,2,-1,0
17.692302,-14,-12,0,1,0,-3,-13,-2,0
17.712118,6,8,-3,-4,0,3,6,0,0
17.712134,-2,-2,-1,2,0,-3,-4,-3,0
17.714005,7,5,-2,-4,-1,0,1,-1,0
17.714010,-16,0,0,0,-1,-2,2,-2,0
17.725609,16,-7,-2,1,1,0,2,-1,0
17.725631,34,4,3,-1,-2,-5,-2,1,0
17.735919,-21,-5,-1,1,-2,1,1,-4,0
17.735924,-18,-6,-5,-3,-3,-5,-4,-2,0
17.750052,4,1,0,1,4,4,-2,0,0
17.750081,-1,1,0,-3,-1,0,2,-1,0
17.751635,10,-5,1,-2,0,-2,-3,1,0
17.751638,-3,1,-1,1,0,-4,0,-2,0
17.771964,2,-3,0,0,-5,4,0,-4,0
17.772022,-8,-3,-4,-5,-4,-3,1,1,0
17.773628,0,2,2,1,9,-3,-2,-2,0
17.773648,-1,3,0,4,-2,2,-2,-4,0
17.785521,1,-4,0,-4,1,2,2,0,0
17.785534,-9,-1,0,-1,-3,-3,-3,-1,0
17.794945,0,-1,-2,-2,-6,-1,-3,1,0
17.794950,1,6,0,-2,1,2,2,0,0
17.809392,-13,-11,-1,-1,-3,-6,-5,0,0
17.809419,-24,-5,1,-5,-1,-2,-1,-2,0
17.811548,-22,4,-3,6,-2,0,-1,-3,0
17.811554,-7,-12,-3,-3,-1,-2,-3,-2,0
17.832142,4,1,-2,-3,0,3,2,2,0
17.832148,9,1,-1,0,0,1,1,-1,0
17.833372,3,-4,-1,-3,-1,-1,-1,-3,0
17.833385,3,3,-1,0,0,-1,0,-1,0
17.848744,5,-3,-3,0,-1,0,-3,-2,0
17.848750,19,1,0,-6,-2,-1,0,0,0
17.856788,28,-6,5,6,3,-2,8,3,0
17.856795,-45,13,-6,-8,1,-1,-17,-13,0
17.869704,7,-4,-1,-1,1,-3,-1,0,0
17.869725,-9,1,0,1,-2,-2,-2,2,0
17.872252,9,-5,-4,-4,-2,-2,2,0,0
17.872262,16,-3,-1,1,-1,1,-2,4,0
17.892095,-8,0,2,-1,-2,-2,1,-1,0
17.892112,-7,1,-2,2,2,-1,-3,-2,0
17.894339,1,0,-3,-3,-2,-1,-1,-2,0
17.894345,12,-3,-1,0,0,-1,3,2,0
17.905922,-11,1,0,-3,-2,0,-2,-1,0
17.905947,11,-3,-1,2,-1,-2,0,-1,0
17.916741,13,3,-1,-2,-3,1,-3,-1,0
17.916747,-41,-6,0,2,-1,-2,2,-1,0
17.929459,8,-1,0,-2,0,-1,0,1,0
17.929474,1,-2,-1,2,-2,-1,2,-1,0
17.930842,-23,1,-3,0,-2,-2,-3,0,0
17.930851,24,-2,-1,-4,0,-3,0,0,0
17.952085,8,-1,-1,0,-1,0,2,1,0
17.952107,-17,-2,-3,1,-3,-1,-2,-3,0
17.953550,-3,2,1,-4,-1,-2,-4,-1,0
17.953612,15,1,1,2,-2,-1,3,2,0
17.965898,-6,-1,1,-1,-4,4,2,-2,0
17.965920,7,6,-1,1,3,-4,-2,-1,0
17.975138,-7,-5,-2,1,9,4,9,2,0
17.975143,36,-3,0,-1,-15,-10,-10,3,0
17.989652,-41,-1,-4,-6,-5,11,1,-9,0
17.989679,4,0,-2,4,-3,0,-1,-2,0
17.991044,-27,-6,1,-7,-2,-2,4,-2,0
17.991079,3,0,1,9,2,1,3,0,0
18.012507,18,2,-1,-3,1,-5,-2,2,0
18.014850,5,-3,-1,-1,-3,2,0,0,0
18.014855,5,-1,-4,-3,-5,1,-2,-2,0
18.014857,0,4,2,-4,1,-2,1,1,0
18.025844,1,-6,1,0,-2,-6,-1,1,0
18.025866,-19,4,-3,-2,2,-1,-8,-5,0
18.035149,10,-1,0,4,-4,-5,-7,-2,0
18.035189,-6,-5,-1,-7,0,0,-2,-1,0
18.051681,14,1,0,3,2,0,4,1,0
18.051686,2,-4,0,-4,1,-3,0,0,0
18.051688,-13,-1,-2,-3,-5,1,-4,1,0
18.051690,12,1,2,1,0,1,2,-2,0
18.072269,-6,-1,-2,0,-1,-3,-2,-4,0
18.074406,4,-5,-2,-1,-3,2,-3,2,0
18.074415,17,3,0,-7,-2,-1,-4,0,0
18.074417,-15,-5,-2,8,10,0,2,-4,0
18.086377,10,-1,-1,-4,-7,-4,-3,-1,0
18.086396,4,-1,1,2,5,1,0,-3,0
18.095679,-11,-7,-4,-1,-2,2,4,-1,0
18.095691,4,11,-4,-5,1,-9,-5,1,0
18.110063,-40,5,1,1,-1,1,-4,-2,0
18.110092,24,1,0,-2,-3,-3,5,2,0
18.112416,-6,-1,-1,-1,-2,9,-11,-2,0
18.112422,1,-1,1,-2,-4,0,-3,1,0
18.132597,10,-1,-2,0,-1,-2,-2,-4,0
18.132626,-15,-10,-4,-4,-2,0,-3,-5,0
18.134665,-8,0,0,-1,-1,-2,3,1,0
18.134669,-5,-2,-2,-1,-2,0,4,0,0
18.145587,20,0,0,1,2,-2,-9,1,0
18.145626,-14,4,0,-3,1,-2,4,0,0
18.157245,2,-2,1,4,-1,-8,-3,-2,0
18.157254,15,-3,0,-4,-3,3,-1,-2,0
18.169909,-12,-2,0,0,2,-2,4,-1,0
18.169948,10,-2,-1,-5,-2,0,2,2,0
18.172362,-2,-1,-1,5,0,-4,-8,-2,0
18.172369,-7,4,1,-3,-1,0,4,-1,0
18.191969,-7,-6,-2,1,2,1,-2,2,0
18.191976,-37,2,3,1,0,-2,-4,-1,0
18.193414,31,1,-4,-2,0,0,4,-4,0
18.193428,-20,-12,-3,1,-1,1,1,1,0
18.206982,-1,3,2,0,-1,0,-1,3,0
18.206990,12,-6,-2,2,-3,-1,-4,-1,0
18.215229,4,3,1,-4,-1,-3,1,0,0
18.215235,6,-2,-1,2,-1,3,2,0,0
18.229448,-2,-2,-1,-6,1,-10,-4,-1,0
18.229470,10,3,-1,5,7,0,-1,-2,0
18.230905,26,2,-2,-3,-4,-3,2,1,0
18.230918,-42,-9,-3,-1,6,0,-2,-4,0
18.253960,11,-1,-2,-5,-1,1,6,-2,0
18.253966,-1,-3,1,6,4,2,-5,0,0
18.253968,1,2,-3,-3,-4,-3,-9,0,0
18.253970,9,3,0,-1,-3,0,1,1,0
18.274489,18,-2,-4,-1,-2,-5,-2,-2,0
18.274511,-19,-3,0,-1,-5,1,2,-2,0
18.275949,-15,-3,2,1,1,1,3,-2,0
18.275969,8,5,-2,-1,-3,-3,-4,-4,0
18.289645,-2,-6,-2,1,-1,4,2,0,0
18.289676,6,-2,-1,-2,-5,-2,-1,2,0
18.291828,11,5,0,0,0,0,1,1,0
18.291833,28,0,-2,-4,-1,0,0,-3,0
18.312644,-64,-18,-2,-2,-4,-1,10,-7,0
18.312672,4,-3,-3,-2,-2,-3,0,0,0
18.314926,5,2,-2,-3,0,-2,0,0,0
18.314931,-6,1,3,1,0,-2,-7,-1,0
18.334383,19,5,0,-1,0,2,3,2,0
18.334396,-2,10,-2,-7,-3,-1,0,-4,0
18.335898,-43,-11,2,10,0,0,0,-1,0
18.335911,3,2,-2,-6,-3,-1,2,-1,0
18.349076,13,3,-1,3,1,7,3,1,0
18.349094,-1,-6,-1,-2,-2,-10,-11,-1,0
18.355854,2,10,-6,-3,-1,-1,-3,0,0
18.355883,-5,0,-2,-6,-2,0,-1,-1,0
18.372264,9,-9,-2,5,1,0,-4,0,0
18.372287,-15,5,0,-2,-1,3,11,1,0
18.374299,9,-8,-1,-1,-3,1,-7,-5,0
18.374306,-1,-5,-2,-3,-1,0,1,-2,0
18.394456,-7,2,-1,-3,-2,-3,-8,0,0
18.394463,12,0,1,1,-1,-1,8,3,0
18.396067,1,-2,-1,-1,0,1,-1,-4,0
18.396131,4,1,-1,-1,-1,0,0,2,0
18.409496,-20,4,-2,-2,6,-3,-3,-5,0
18.409503,-9,-5,-5,7,1,-1,-4,-4,0
18.410840,-6,-4,0,-5,-2,-2,2,-1,0
18.410847,6,1,0,-2,0,-2,-4,0,0
18.432475,7,6,3,2,-5,-2,1,2,0
18.432496,1,-8,-3,-3,0,1,-5,0,0
18.433721,-11,4,-2,-5,2,-3,0,-1,0
18.433726,7,-4,0,3,-3,-2,1,1,0
18.457340,16,12,2,0,-1,-1,-3,4,0
18.457348,-53,-15,-5,-4,-2,-1,-1,-7,0
18.457351,-6,-11,1,0,-3,2,7,4,0
18.457353,-1,9,-3,-6,-1,-6,-8,-3,0
18.469161,3,-1,0,-2,-2,1,-1,0,0
18.469200,18,5,1,1,-2,-2,-3,1,0
18.475739,0,-1,-1,-1,0,2,2,-2,0
18.475760,-7,-6,-2,-1,0,2,0,-2,0
18.492119,1,1,0,-9,0,-3,3,-1,0
18.492138,13,5,0,4,-1,1,-8,1,0
18.493488,5,-8,-2,-2,-2,-3,-1,-1,0
18.493505,3,7,0,1,-1,0,18,-1,0
18.515293,5,-7,-6,-2,-6,-1,-18,-3,0
18.515322,4,-2,-1,-5,-1,-2,6,-3,0
18.517126,-9,-2,-3,3,-1,-2,-4,-1,0
18.517145,-10,-2,3,3,-1,-1,1,-1,0
18.529600,-2,-2,-1,-1,-1,2,4,0,0
18.529715,6,0,-1,-2,-1,0,-2,-1,0
18.535447,2,2,0,-2,-1,-2,-3,0,0
18.535498,2,-4,-3,-2,-1,-3,-3,0,0
18.551983,1,-1,-1,1,0,-1,0,-3,0
18.551988,-3,1,0,-2,-1,-1,-4,-2,0
18.553353,7,1,-3,-6,0,-1,0,-1,0
18.553366,-13,-4,-1,6,-2,1,-6,-2,0
18.574566,30,3,-1,-4,0,-2,-2,0,0
18.574583,-39,-14,-4,0,1,-2,3,-5,0
18.576705,8,-2,-1,-7,-1,0,0,-2,0
18.576712,-1,-1,0,5,-1,0,-4,-1,0
18.589096,4,-2,-1,0,-4,-2,1,1,0
18.589123,18,7,0,-3,-3,-1,-1,1,0
18.595527,0,-1,1,0,0,-2,-1,-4,0
18.595550,-2,-6,-1,-3,7,1,-4,-1,0
18.612511,-23,-2,-7,-3,-8,2,4,-2,0
18.612516,10,4,2,-1,0,-8,-11,0,0
18.618343,-6,-1,-2,1,0,1,1,-4,0
18.618367,7,-2,0,-6,2,-2,1,1,0
18.634384,4,-1,2,6,2,1,1,-2,0
18.634405,-3,-1,0,-4,-1,1,2,-2,0
18.636028,12,1,-1,1,1,-3,-3,2,0
18.636041,19,2,1,-1,-3,-2,5,0,0
18.649138,-22,-11,-5,-9,0,-1,-10,-8,0
18.649166,-20,1,-1,3,-3,-1,-1,-1,0
18.655992,-42,-23,0,1,-2,0,1,-3,0
18.656026,28,5,0,-3,0,-2,0,-2,0
18.672353,6,3,3,1,0,0,5,1,0
18.672382,5,-3,0,-4,1,2,4,2,0
18.674982,5,4,-1,0,-1,-1,-5,1,0
18.674988,-18,-6,-4,-3,-2,2,4,-4,0
18.694623,-8,-2,1,-1,-1,-1,-4,0,0
18.694639,21,-1,-2,0,-2,0,-2,-2,0
18.696272,9,3,-2,2,0,-1,5,0,0
18.696276,-4,-6,-3,-2,-6,-2,-6,-1,0
18.708788,-8,6,-1,-6,-1,-3,-5,0,0
18.708810,15,-6,4,3,0,-2,4,-3,0
18.716005,-15,19,-4,-3,-2,-1,-4,-2,0
18.716034,-13,-7,0,0,0,-2,-4,-2,0
18.732647,14,0,-1,3,1,1,-1,0,0
18.732674,-18,-1,-1,-4,0,-4,0,1,0
18.734245,-1,-1,2,-3,-1,-2,-3,0,0
18.734249,12,1,-1,-3,1,-3,-5,3,0
18.754548,1,6,-2,-2,-3,9,6,-2,0
18.754596,-4,3,-3,0,-1,2,-1,2,0
18.756171,-8,-2,1,-1,-2,-2,1,-3,0
18.756191,14,6,-1,1,-1,-1,-3,0,0
18.768055,-39,-2,2,2,2,1,12,0,0
18.768086,75,-10,-5,-5,-2,-4,-15,0,0
18.777992,3,0,-1,-1,-2,2,0,-1,0
18.777998,-8,-4,0,0,-1,2,-2,-1,0
18.792182,2,4,-1,0,-1,-7,-3,-1,0
18.793828,-16,2,-1,0,-1,2,4,-2,0
18.793835,5,-2,-2,-5,1,-2,1,-2,0
18.793837,2,0,1,3,-3,-2,0,-1,0
18.815089,3,-4,1,0,-1,-4,-3,0,0
18.815095,-16,1,-3,-4,-1,0,-1,-2,0
18.815858,11,-3,0,0,-1,-2,-4,-1,0
18.815871,-21,-5,-3,-5,1,-1,-1,0,0
18.830805,31,8,-2,0,3,-3,-1,1,0
18.830811,-45,-1,3,-4,-2,4,3,-2,0
18.838256,-17,1,-1,4,-1,-9,-6,-2,0
18.838261,-3,-1,-3,-4,-4,-1,-1,-4,0
18.851922,4,-8,-3,-2,-2,-2,-3,-1,0
18.851942,19,3,-1,1,-1,-2,-1,1,0
18.853348,1,0,1,-1,-1,5,5,2,0
18.853381,-8,-1,-1,-4,1,1,-1,-2,0
18.874523,4,-3,0,3,-1,-4,-4,-3,0
18.874561,-12,2,-2,-2,1,0,2,0,0
18.875933,2,-3,-1,-1,-2,-1,-4,1,0
18.875947,0,0,-2,0,0,-3,0,0,0
18.888928,-5,-5,-1,-5,0,-2,-2,-1,0
18.888970,0,-1,-2,-1,-2,-1,-2,-2,0
18.899081,6,-2,0,0,1,-2,-2,-2,0
18.899090,-3,0,-1,-2,-1,-3,-3,1,0
18.912382,-8,-3,0,0,1,-1,-4,0,0
18.912402,1,0,-1,1,-1,-1,-1,-1,0
18.913322,4,0,-1,-4,-1,0,-3,2,0
18.913335,-9,0,-1,0,0,2,2,-4,0
18.934826,-2,-5,-1,-2,-2,-2,-2,-2,0
18.934855,5,0,-1,-2,-1,-2,-1,-1,0
18.936483,2,0,-2,-2,-2,-1,0,0,0
18.936487,-1,2,1,-8,0,-2,-1,0,0
18.948476,1,-1,0,14,0,1,0,-2,0
18.948497,1,1,-2,-3,-2,-3,0,1,0
18.958212,-5,1,-1,-1,-1,-2,0,-2,0
18.958220,4,-5,-2,-6,-2,-1,-3,-2,0
18.972285,-4,-1,-3,0,0,0,3,0,0
18.972290,-18,-3,-1,-1,-1,-1,1,2,0
18.973589,6,-1,2,0,1,-1,-1,0,0
18.973607,-8,0,-1,1,-4,0,-2,-3,0
18.994490,1,-3,-1,-7,-8,-5,-1,-3,0
18.994506,-3,2,-2,-2,2,10,15,-3,0
18.995853,1,5,0,-1,0,-15,-13,-3,0
18.995860,26,-13,-4,0,-2,-2,-7,-6,0
19.008127,4,2,2,-1,-1,0,4,2,0
19.008146,7,-8,1,0,-3,0,-19,-3,0
19.019295,-1,13,-4,-9,-2,2,4,-1,0
19.019301,-10,-1,3,8,0,-1,2,2,0
19.034510,8,-4,-3,-5,1,-1,-2,-5,0
19.034522,28,4,-1,0,1,-1,3,5,0
19.034527,-24,-11,-3,-1,-1,4,0,-9,0
19.034586,-8,0,-1,-2,-1,-2,-3,3,0
19.054857,6,-4,-5,-4,0,1,-1,-6,0
19.054884,-4,-3,-1,-4,-2,-5,1,2,0
19.057202,17,-1,-3,7,-2,0,-2,1,0
19.057210,-5,4,2,0,2,3,6,0,0
19.068018,-12,-6,0,1,0,-3,-5,0,0
19.068032,5,-3,-1,0,0,-3,-2,-1,0
19.078145,-1,-4,-2,-1,-2,2,1,1,0
19.078154,-1,1,-4,-2,-2,-1,3,-3,0
19.092015,17,4,0,-3,1,-4,-1,3,0
19.092037,-39,-2,-3,0,-1,-5,-4,-5,0
19.094010,5,-4,-1,0,-1,4,6,1,0
19.094014,-8,1,-1,-3,1,-6,-6,-2,0
19.114504,-4,-5,-1,3,-2,3,11,0,0
19.114526,1,5,-1,-2,-2,-6,-12,-5,0
19.116141,-1,-3,0,0,0,-2,0,2,0
19.116167,0,5,-1,-2,-2,3,-1,1,0
19.128231,-11,-4,-1,-7,-2,-2,-2,-2,0
19.128255,8,-2,-1,7,0,2,5,1,0
19.137856,-11,-2,2,-3,-3,2,8,1,0
19.137864,-13,4,0,2,-2,-2,-11,-1,0
19.152299,34,-3,-2,-6,-1,1,-1,-1,0
19.154346,-33,1,0,1,-1,-1,-4,-3,0
19.154355,4,-8,-1,-2,1,-2,-1,1,0
19.154357,8,6,0,-5,0,0,6,-1,0
19.174442,-12,0,-1,6,-1,-2,-8,0,0
19.174449,1,1,-1,-6,0,1,2,-2,0
19.175866,14,-9,-2,1,-1,-2,-2,-4,0
19.175922,-1,-3,-2,-1,-1,-3,2,-2,0
19.190236,-28,1,1,-3,3,-2,-3,0,0
19.190242,26,-1,2,0,1,-5,0,-2,0
19.198459,-12,1,-1,1,-3,10,7,-4,0
19.198463,-5,-6,-1,-1,-3,0,-4,0,0
19.211868,-3,1,-2,-6,-1,-7,-12,-3,0
19.211883,2,-1,-1,7,-1,-3,4,1,0
19.213558,-4,4,0,-4,1,-3,-7,0,0
19.213562,1,-9,-2,1,1,4,4,-2,0
19.235004,10,1,0,-4,-1,2,6,-1,0
19.235032,-18,-4,-2,0,-3,4,-7,-3,0
19.237235,17,4,1,-4,0,-4,4,1,0
19.237239,-23,-10,-3,3,-3,-2,1,-2,0
19.257084,-9,-4,-2,-1,-1,-1,-3,-1,0
19.257110,-8,4,-2,-2,0,-2,-3,1,0
19.258773,9,-6,0,-3,-2,-1,-1,-2,0
19.258778,2,-1,2,1,0,0,2,-1,0
19.271964,-12,1,-3,-1,0,-3,-16,1,0
19.271987,12,-2,-1,-7,0,0,6,1,0
19.274459,-17,3,-1,6,5,-3,-3,-1,0
19.274464,7,11,-2,0,-1,0,-3,-1,0
19.295175,-8,-4,-1,-1,-1,-1,4,-1,0
19.295214,11,-3,0,2,-3,1,1,-1,0
19.296879,-1,0,-2,-2,-1,-2,-4,1,0
19.296885,-4,-4,1,-2,0,0,1,-2,0
19.316928,4,0,-1,1,-2,1,1,-2,0
19.316941,3,4,-2,-8,-1,-1,-2,-4,0
19.318409,-15,-9,-3,5,-4,-2,-1,0,0
19.318439,6,2,0,-3,1,-5,-2,2,0
19.331858,-6,0,0,-2,-4,13,5,-3,0
19.331872,14,-1,0,0,0,3,3,2,0
19.333368,-26,5,-2,-3,-1,-5,-10,-1,0
19.333398,21,-2,-1,-1,-1,-1,0,-2,0
19.354825,-6,-7,-2,0,1,-2,-2,1,0
19.354855,9,-3,0,-3,-1,3,2,-2,0
19.357125,5,2,-2,-1,-2,3,12,0,0
19.357131,4,0,-1,-5,-1,-5,-14,-4,0
19.378844,3,5,1,5,0,0,3,0,0
19.378849,-16,-5,-2,-2,-2,-2,-3,-4,0
19.378851,37,-5,-1,-3,-3,-2,-1,-2,0
19.378853,-15,4,-3,-2,-2,1,0,-1,0
19.392816,-2,-2,-1,1,0,-1,0,-2,0
19.392821,2,0,-2,-6,3,-3,-5,1,0
19.398479,3,2,0,9,-16,3,1,0,0
19.398498,-13,-5,0,-4,-6,-1,2,-1,0
19.414352,37,2,2,1,4,-2,2,0,0
19.414367,-32,2,-2,1,-3,-3,-25,-5,0
19.416204,-23,-8,-4,-10,2,-1,-3,-4,0
19.416223,9,-1,-1,3,-2,0,0,-1,0
19.437969,1,-2,0,0,-5,-2,0,0,0
19.437997,11,2,0,-2,-1,1,8,2,0
19.440621,-4,-6,-1,-3,4,-2,-5,2,0
19.440628,1,1,1,-2,0,-2,0,-1,0
19.451733,0,-1,-3,3,2,0,4,0,0
19.451766,3,7,-2,-4,1,-6,-1,-1,0
19.458187,-8,-4,1,1,0,-1,-4,-2,0
19.458208,3,-2,-3,-1,1,2,4,0,0
19.474609,-22,-4,0,-3,-2,-1,3,-1,0
19.474632,16,-5,-3,1,-4,2,-9,-2,0
19.476164,12,2,-3,-4,1,-4,-7,-1,0
19.476272,-7,-9,-1,0,1,1,2,-3,0
19.496847,-1,-1,0,0,-2,-3,-5,0,0
19.496862,-9,-6,-1,0,-3,1,7,-2,0
19.498722,13,4,2,-1,3,-1,4,-2,0
19.498734,6,2,0,0,-2,-2,-7,-1,0
19.511904,0,0,-1,-4,-2,0,-2,-2,0
19.511926,-21,-1,-1,-1,-2,-2,3,-1,0
19.518201,-8,-2,-1,0,-1,0,-3,-3,0
19.519308,-17,0,-2,1,-1,-2,0,2,0
19.534624,-3,-3,-3,-3,-3,-1,-1,-2,0
19.534630,-2,-4,3,1,0,-1,0,1,0
19.535819,-14,-1,2,3,-1,3,2,2,0
19.535888,52,16,0,-1,11,-3,1,4,0
19.557185,-88,-23,-8,-4,-2,-3,-7,-12,0
19.557210,-2,-5,-2,-2,-2,-1,2,-1,0
19.559203,3,5,-2,-3,2,-3,-5,-3,0
19.559207,5,-2,0,0,-5,3,7,1,0
19.571620,22,9,1,-2,0,-3,-3,1,0
19.571652,-6,-2,-3,1,1,0,0,-2,0
19.578841,2,-2,-1,-2,-2,0,5,0,0
19.581057,-5,-4,-1,-2,-4,-6,-5,-3,0
19.596688,5,-1,0,0,-1,1,3,1,0
19.596695,5,3,0,0,-1,3,12,0,0
19.596698,-8,-4,-2,-4,-1,-6,-14,-4,0
19.596699,-15,-4,-3,-9,-3,-3,0,1,0
19.617364,9,-5,-1,9,1,-1,-4,-1,0
19.617386,14,-3,-1,-1,-1,-1,2,0,0
19.619044,-7,3,-1,-1,-1,2,4,-1,0
19.619049,-5,-5,1,-4,0,1,-1,-2,0
19.631347,10,2,-1,-2,-3,-2,-1,0,0
19.631368,-2,2,0,1,-2,0,-3,1,0
19.638474,-8,0,-3,-3,-2,-3,-1,0,0
19.638504,-5,-4,-3,1,-3,2,-3,-2,0
19.655110,22,10,0,-4,-1,-3,5,0,0
19.655155,-40,-21,-7,-2,0,-6,-5,-10,0
19.657580,-2,-10,-1,-2,-2,-1,0,2,0
19.657588,1,0,-1,1,-1,2,0,-2,0
19.677030,10,8,1,-2,0,1,0,2,0
19.677043,16,5,2,0,1,-1,-1,2,0
19.678718,0,-1,-2,-8,-1,1,1,-1,0
19.678838,-3,0,1,15,-3,-1,1,0,0
19.692202,4,1,-2,-5,-1,2,-1,1,0
19.692208,-15,-1,0,-3,-4,-10,-8,-4,0
19.698518,-5,-1,0,1,-1,0,2,0,0
19.698538,14,-3,-1,-2,2,-5,3,1,0
19.714413,8,4,0,-3,-2,7,-16,-3,0
19.714434,-13,-5,-4,1,0,1,4,4,0
19.715967,0,0,1,-2,-1,1,14,-1,0
19.716033,-11,6,-3,-4,1,-7,-11,-2,0
19.739023,-7,-6,0,-1,-1,0,4,0,0
19.739030,13,-3,2,1,0,1,0,0,0
19.739033,2,8,-2,1,-2,-3,-3,0,0
19.739034,-9,-7,-3,-5,5,2,1,-1,0
19.751045,4,2,0,1,5,-4,-3,0,0
19.751074,-14,3,0,-1,2,0,9,2,0
19.760217,-2,-4,-2,1,-2,-1,-3,0,0
19.760224,-1,-6,-4,-5,1,5,3,0,0
19.774438,-9,1,-2,0,-4,-6,-3,-1,0
19.774459,21,0,0,-1,-3,1,-1,1,0
19.776271,3,0,-1,0,1,-2,-2,-4,0
19.776290,-26,-1,2,-1,-4,2,-1,-2,0
19.796862,5,3,0,-2,-2,0,4,-2,0
19.796884,-9,-3,-1,0,0,-2,-7,-2,0
19.798616,7,3,0,-1,-2,-1,-2,1,0
19.798627,22,2,1,1,-6,-4,-3,2,0
19.810962,-18,-7,-2,-2,-1,-2,5,-2,0
19.810991,-3,3,-2,-3,-1,2,-4,-3,0
19.821552,0,-3,-1,-2,-1,-2,-4,1,0
19.821559,-5,3,0,-1,-2,3,1,-4,0
19.834325,-1,-2,-3,2,2,-5,-2,0,0
19.834331,0,5,2,-1,-2,6,8,1,0
19.835807,-9,-9,-1,-2,1,0,-9,0,0
19.835813,19,-1,-1,0,-3,-3,-24,-2,0
19.857020,-13,-7,-2,-1,-2,-4,1,-4,0
19.857042,-12,-2,-3,-3,-2,-4,-4,-1,0
19.858860,11,-5,-2,-1,2,3,8,-1,0
19.858864,-2,1,-4,-2,0,-1,5,-1,0
19.870817,-3,-3,-2,-5,-1,-2,-6,1,0
19.870842,20,2,1,0,-1,1,-5,2,0
19.880129,-2,3,-1,2,-1,6,11,-2,0
19.880135,-15,-3,2,-6,-1,-8,-5,1,0
19.894929,-22,-1,-3,4,-1,1,-1,-2,0
19.894935,51,-12,-4,-5,-3,-2,-1,-4,0
19.895973,-28,-3,-2,0,-2,-1,-3,-3,0
19.895986,-8,1,-1,-2,-2,0,3,2,0
19.917755,7,2,0,-3,-2,2,2,2,0
19.917774,-6,3,0,3,1,3,9,-1,0
19.919688,14,3,0,-8,-1,-10,-15,1,0
19.919691,-8,-6,-2,9,1,4,3,-5,0
19.931047,10,-1,0,-3,-3,-3,1,-1,0
19.931070,1,1,1,1,0,-3,-1,3,0
19.939702,-12,-7,-5,-5,0,-1,0,-5,0
19.939737,-6,-1,0,-1,0,-1,2,-3,0
19.954811,5,-1,0,-2,-1,1,0,-2,0
19.954848,-8,0,-3,-1,-2,-1,-1,-1,0
19.957191,7,2,0,-1,-3,-3,3,2,0
19.957199,4,-2,-2,0,-2,0,1,0,0
19.977494,-9,-2,1,1,-1,2,-1,-1,0
19.977521,0,2,1,0,-1,1,1,0,0
19.979974,0,0,-2,3,0,-1,-4,-4,0
19.979979,-13,-3,-3,-4,-1,1,-1,-1,0
19.990664,18,1,-1,-4,-1,-10,-2,1,0
19.990673,5,-4,-2,-5,0,-4,-3,-5,0
20.000592,6,4,2,5,-1,-1,-7,1,0
20.000598,0,-4,-1,-2,-1,-1,5,1,0
20.014375,-16,0,-2,-2,0,4,1,-3,0
20.014397,-5,3,-1,-2,0,-1,-3,2,0
20.016636,0,3,-2,3,-3,-1,-3,-3,0
20.016640,14,1,0,-3,-2,1,4,1,0
22.039500,16,16,2,-2,-6,-46,1,-11,2
22.039831,-8,-70,4,8,9,53,15,25,2
22.041774,-94,12,-7,-8,-8,-8,-27,-31,2
22.041822,15,-16,2,7,7,8,-9,-36,2
22.061943,-34,1,-6,-6,-9,-12,-5,4,2
22.061965,76,-6,8,2,1,26,3,14,2
22.063334,-71,-46,-4,-2,2,-35,-13,-5,2
22.063371,-26,-4,-1,-13,-7,6,4,14,2
22.084703,-38,-33,-5,8,-12,-67,-1,3,2
22.084719,6,2,-11,-3,-20,40,-23,-58,2
22.086607,50,-15,4,-2,28,21,4,11,2
22.086612,-14,49,-1,-3,-3,-7,11,-5,2
22.099782,-37,-15,-1,-5,8,26,7,6,2
22.099804,42,52,-2,2,4,-24,9,52,2
22.101425,-27,-19,6,-1,-13,-20,-18,-60,2
22.101429,-28,-82,-21,-11,-6,-26,12,-19,2
22.123462,61,49,5,3,-26,77,-3,17,2
22.123476,-34,-26,-1,-1,57,-20,-25,19,2
22.123770,-26,50,-4,-1,-16,22,-10,-32,2
22.123793,-16,7,4,5,9,24,-23,3,2
22.144465,-6,-2,2,-3,4,18,54,-3,2
22.144480,-28,-13,-3,0,-9,-46,-10,8,2
22.145843,72,26,6,2,1,-9,11,28,2
22.145850,-10,15,1,0,-12,-37,-1,15,2
22.159470,-66,-12,-8,-5,0,0,-16,-27,2
22.159486,61,64,-1,-4,-14,-6,8,9,2
22.161036,24,44,-2,1,4,-14,-6,-70,2
22.161044,61,-26,-2,-3,-9,-14,9,23,2
22.182308,-25,-33,-6,-3,-4,-4,-9,-3,2
22.182337,3,-18,-5,-5,26,11,-8,-10,2
22.184580,41,14,9,8,-13,18,13,35,2
22.184584,23,5,9,4,11,14,1,0,2
22.204790,42,85,16,5,4,-16,-16,9,2
22.204809,9,-73,-25,-10,-24,3,-8,0,2
22.207290,-41,-28,-11,-10,-7,-5,2,-42,2
22.207297,49,29,13,7,-11,19,16,-2,2
22.219291,6,-25,-5,-1,29,-74,-44,5,2
22.219304,-59,13,4,0,-12,71,24,8,2
22.225514,44,16,1,-3,-11,-23,-1,13,2
22.225533,-23,11,6,-4,-26,-77,-8,6,2
22.241995,104,36,-9,1,24,35,13,4,2
22.242017,-30,-49,-4,-5,-1,-24,-2,-12,2
22.244580,-29,15,-7,1,-8,30,4,48,2
22.244587,5,50,0,-3,10,17,-12,-15,2
22.264567,8,-24,4,1,-18,3,-35,23,2
22.264586,33,18,4,3,-5,-35,-2,-8,2
22.265810,25,0,0,-3,17,14,14,22,2
22.265823,-40,-19,-4,-2,-8,-10,-6,-3,2
22.278674,-28,9,-6,-4,-7,24,16,-6,2
22.278678,7,36,9,5,0,-20,-28,-11,2
22.285501,-52,-55,-9,-7,-7,4,4,-13,2
22.286562,36,26,-2,0,12,-36,-8,14,2
22.309435,-45,-34,-10,-4,-9,27,3,-32,2
22.309449,3,13,0,2,4,9,2,-1,2
22.310883,14,-6,2,-1,-10,-9,3,11,2
22.310896,-7,-25,-1,3,9,21,-9,0,2
22.324426,-18,-39,1,-6,0,-13,15,-2,2
22.324449,-76,-19,-8,-2,-23,12,-16,-38,2
22.325867,29,37,8,0,20,9,0,42,2
22.325880,32,11,-4,5,4,38,-8,-20,2
22.340454,-67,-15,-5,-3,-2,11,-3,-12,2
22.340463,42,-2,1,2,0,3,15,14,2
22.346353,1,9,4,0,-4,-4,-11,16,2
22.346380,8,14,3,-2,7,23,30,-12,2
22.362369,-4,22,-12,-5,-21,-39,-58,-10,2
22.362399,5,-5,-1,-2,5,5,23,-9,2
22.364458,28,19,5,1,2,2,10,22,2
22.364466,24,-26,-1,2,-13,-16,-11,13,2
22.387162,-19,2,5,3,29,29,17,-19,2
22.387174,-55,-2,-4,-3,-19,-23,-11,-7,2
22.387177,30,-8,-3,-2,14,-9,-15,-5,2
22.387178,-17,42,4,-1,-4,37,-6,17,2
22.399344,44,-28,2,1,-9,-14,7,-5,2
22.399385,-42,34,-4,-3,4,-10,-8,3,2
22.406051,8,1,0,1,-6,7,7,-7,2
22.406084,2,-7,-5,-9,-22,7,0,16,2
22.422003,-54,-25,-2,6,41,56,4,-23,2
22.422030,-26,-25,2,-9,-23,-77,-9,24,2
22.423567,40,13,-8,4,-10,38,-4,-11,2
22.423581,-71,-55,-9,-10,9,7,-19,6,2
22.443591,28,27,2,-3,-15,-5,14,11,2
22.443610,25,-4,1,1,5,4,-4,-41,2
22.452270,-17,-65,-2,-3,3,23,-2,-1,2
22.452275,-13,-26,0,1,0,-23,12,1,2
22.458768,73,55,3,-2,-8,-17,0,-1,2
22.458791,-36,-9,-1,1,11,25,9,0,2
22.465703,42,12,2,-3,-25,-18,4,-1,2
22.465732,-59,-37,-12,-9,5,-15,-15,-73,2
22.481133,57,6,5,4,14,-15,10,35,2
22.481148,9,26,9,7,6,66,9,39,2
22.483399,-1,-31,6,3,-8,-17,2,9,2
22.483403,-11,9,-4,5,15,-21,-6,-3,2
22.504226,-68,-12,-4,-9,-7,-8,-9,-22,2
22.504256,30,13,1,0,4,-4,-34,12,2
22.506396,-13,-6,-9,-2,-2,-2,5,-17,2
22.506402,35,20,1,-1,-1,4,-6,11,2
22.518314,7,-16,0,3,-5,26,5,10,2
22.518336,-13,22,-1,-4,-10,0,-4,-60,2
22.525562,-39,-25,-11,-4,5,-40,-4,23,2
22.525579,5,4,-2,-1,-1,-30,-2,11,2
22.541129,13,19,-1,-1,-7,-1,6,7,2
22.541145,52,-19,2,-1,-2,0,15,3,2
22.541840,-26,18,-1,-5,0,4,-8,-19,2
22.541892,-24,21,3,2,-13,26,10,4,2
22.564221,2,-14,12,4,16,-8,8,10,2
22.564249,19,-5,-6,-1,-10,16,0,-5,2
22.565908,-50,-2,-9,-2,15,-20,-6,11,2
22.565914,7,-10,9,4,3,10,4,8,2
22.578676,27,-35,-4,-4,-13,-5,0,2,2
22.578717,-17,-12,7,-3,-7,-21,2,16,2
22.585826,-3,0,4,3,8,0,8,5,2
22.585846,23,19,-2,-1,13,7,1,-8,2
22.601543,-118,-11,6,3,-19,-13,8,-2,2
22.601563,-69,13,-18,-6,18,34,-8,7,2
22.604062,102,-29,0,-4,-32,-48,-1,3,2
22.604068,7,14,-2,0,31,18,0,5,2
22.623855,22,5,2,1,-14,0,2,-17,2
22.623871,9,18,6,3,3,-13,14,2,2
22.624470,-14,33,6,2,7,16,-10,-11,2
22.624554,6,-20,-1,-5,-33,12,1,-4,2
22.638151,18,-8,-6,0,11,-45,-11,12,2
22.638181,29,-16,-3,-5,0,-3,-3,-36,2
22.645501,10,35,-3,-1,-6,12,-5,-2,2
22.645519,-14,-8,4,3,4,7,3,-6,2
22.661973,-28,6,-7,-3,3,18,-1,2,2
22.661994,98,35,6,4,-2,-9,5,-18,2
22.663510,-128,-74,0,3,3,-5,-2,-11,2
22.663518,24,14,2,-3,-1,2,7,15,2
22.683678,22,39,-3,2,-1,-5,-4,-10,2
22.683692,-4,-42,-2,-1,3,6,15,15,2
22.684306,-11,16,2,-2,8,37,-5,-22,2
22.684319,-28,-8,-6,-4,-26,-63,-26,-11,2
22.698009,19,-2,5,-1,-17,-21,17,2,2
22.698024,5,-38,-10,-5,23,32,-4,20,2
22.705749,33,29,-1,-6,-23,-11,-5,-36,2
22.705772,-27,-30,-2,7,36,31,-8,3,2
22.721605,20,36,2,-2,-9,1,2,11,2
22.721636,-65,-31,-2,1,-19,-22,0,-2,2
22.723684,19,1,1,-4,26,35,-8,1,2
22.723692,47,-9,-8,-4,-8,-40,1,-5,2
22.743802,-22,-44,-6,-6,-6,16,-5,-1,2
22.743834,38,2,11,9,3,10,10,9,2
22.744347,-68,6,-16,-6,-3,-5,-9,23,2
22.744360,-40,-4,-4,-3,-4,9,8,-3,2
22.758162,45,-37,1,8,6,2,8,-14,2
22.758188,13,31,-10,-8,-11,-29,-15,10,2
22.765735,110,26,15,6,5,-7,13,6,2
22.765756,9,6,0,-3,-5,2,2,-18,2
22.781231,13,-18,-5,-2,-3,7,-17,15,2
22.781252,-53,30,-3,-2,2,-4,13,2,2
22.782994,96,-15,4,-1,-19,-28,-3,-16,2
22.782998,-20,-5,-5,-1,24,79,-7,25,2
22.806953,37,-31,-3,-4,-14,35,8,-9,2
22.806962,9,4,3,0,-33,-48,-9,-5,2
22.806964,35,-15,4,2,41,-19,4,18,2
22.806966,-48,65,-5,-3,-18,2,-6,-46,2
22.818532,3,15,3,3,16,30,13,11,2
22.818560,-69,-22,-11,-5,6,-2,-14,2,2
22.825669,-20,2,-2,2,-15,33,6,4,2
22.825689,23,-30,6,3,-9,-12,10,13,2
22.841286,-21,6,-3,-4,2,-13,-16,-17,2
22.842648,-43,-33,-1,0,0,7,8,-24,2
22.842657,49,27,6,5,-4,-1,8,14,2
22.842659,-41,-54,-6,-8,3,-13,6,23,2
22.863689,2,7,-2,-2,-8,-28,-5,-29,2
22.863709,15,-74,-6,3,-14,28,-3,10,2
22.864719,-92,3,-4,-1,30,-4,-15,-3,2
22.864723,38,-36,-2,-1,-2,-12,5,-16,2
22.878001,-31,-5,-1,-4,-2,2,-6,-3,2
22.878017,47,17,5,-2,-3,-14,-6,-3,2
22.885436,-13,9,-4,-2,-13,-2,2,12,2
22.885450,16,22,3,2,-13,-12,-7,-8,2
22.901264,-51,32,-1,-2,25,39,0,7,2
22.901292,48,3,1,-3,-1,-9,-24,-24,2
22.903998,-29,-3,-2,3,-14,-2,25,-7,2
22.904014,-25,-18,1,2,6,-2,0,1,2
22.923830,23,51,-3,-2,-18,2,1,-10,2
22.923846,-17,13,1,-4,-7,11,-5,24,2
22.925723,16,-29,3,4,37,-2,-15,0,2
22.925729,27,24,6,2,-10,-2,11,13,2
22.938076,-15,42,-4,-7,-9,-59,19,6,2
22.938095,3,-10,-4,-3,6,7,1,-15,2
22.945481,-2,-3,-4,-6,-23,-5,-15,2,2
22.945497,37,-5,4,3,17,-6,3,6,2
22.961197,61,11,1,-1,-1,-1,-2,23,2
22.961213,4,-8,-2,-5,7,-12,-3,-1,2
22.962161,-111,10,-14,0,-25,19,-6,-15,2
22.962166,62,3,3,-1,7,19,3,8,2
22.983677,-4,-22,-1,-1,-1,-7,-20,-7,2
22.983700,23,22,-4,0,-1,-27,5,12,2
22.985589,31,-10,4,-6,-13,25,9,3,2
22.985593,-46,-12,-5,4,26,19,-7,-21,2
23.006343,13,-7,4,-7,-12,-72,-17,7,2
23.006372,-72,-2,-9,4,5,-15,0,-25,2
23.007994,-33,-19,-4,-3,-3,17,-1,3,2
23.007998,31,5,-2,-1,-5,7,3,-3,2
23.021541,29,-16,6,1,-3,13,3,0,2
23.021562,1,17,2,-1,18,16,-13,-1,2
23.023559,12,9,-1,-1,-13,0,22,-9,2
23.023566,-32,-33,-4,-3,-17,-19,-9,-23,2
23.044156,47,5,-4,2,10,36,-7,3,2
23.044187,-30,-9,1,-6,-2,20,30,5,2
23.044719,36,-12,3,5,-9,-71,3,9,2
23.044811,-37,43,-14,-9,2,12,-32,-16,2
23.066713,-14,7,-3,-1,10,43,6,-18,2
23.066742,40,-4,3,1,-9,-9,8,-6,2
23.068740,-52,-31,1,-4,-3,-8,-11,2,2
23.068744,24,45,-5,-1,-8,-11,8,6,2
23.081501,-47,-14,-3,-1,-8,-14,-1,5,2
23.081523,31,-5,0,0,6,12,-11,-2,2
23.083717,45,10,7,3,11,22,6,9,2
23.083721,-1,-16,-1,-7,-33,-25,-2,1,2
23.104030,-95,-23,-6,5,34,112,-8,-31,2
23.104057,35,9,5,2,-12,4,0,15,2
23.104430,-6,12,1,1,2,27,-2,4,2
23.104449,-7,-33,-2,-6,-3,0,-2,-12,2
23.126416,6,15,-4,-6,-8,-12,-6,6,2
23.127770,-33,2,2,6,15,-8,13,-5,2
23.127776,19,11,-2,-5,2,14,-9,1,2
23.127778,44,13,0,7,-5,11,9,5,2
23.141296,89,4,-3,-4,-6,-27,1,11,2
23.141317,-44,-12,-10,-4,-1,-12,-15,-31,2
23.142661,57,19,2,-1,2,-11,5,6,2
23.142668,-30,-44,-2,-1,6,-2,8,18,2
23.163678,9,-6,3,1,-5,-17,6,-9,2
23.163691,36,-10,-3,-6,1,-2,-1,-3,2
23.164319,-27,26,-8,0,-4,2,-6,1,2
23.164335,12,10,7,0,4,-17,-6,10,2
23.186968,-40,-23,-3,0,-5,3,2,-4,2
23.186997,-2,-5,2,-3,-6,28,-4,5,2
23.189799,-37,-16,-5,-5,-13,-11,-3,-5,2
23.189805,63,55,5,0,13,-1,-6,-7,2
23.201758,-52,10,-1,-6,-22,-32,4,-2,2
23.201787,127,10,0,2,36,28,-3,8,2
23.204019,-2,5,-3,0,0,-5,-2,-12,2
23.204024,-17,12,4,6,-3,-1,3,-1,2
23.224629,56,52,-1,-3,-8,-8,6,7,2
23.224635,65,1,-1,-2,-2,-5,-8,23,2
23.224638,-19,-15,2,-7,2,25,3,-18,2
23.224641,-62,-28,0,8,3,50,-11,8,2
23.246318,-2,3,1,1,-3,25,15,8,2
23.246340,36,47,0,0,-12,-44,5,1,2
23.248112,-91,-58,-14,-7,4,8,-3,-7,2
23.248116,46,-22,2,-4,-7,-3,0,9,2
23.261652,14,-52,-5,1,5,25,0,12,2
23.261674,-3,-9,5,3,-1,-1,-3,-30,2
23.263682,-1,10,-1,-5,-21,2,-7,3,2
23.263688,11,-4,-2,-1,19,-8,2,-8,2
23.284292,-17,-19,-2,1,-1,-23,-2,7,2
23.284321,-56,1,-2,-1,-5,-27,2,5,2
23.286901,49,0,1,2,1,9,-1,-5,2
23.286910,-24,-4,-3,-5,-17,-8,11,-1,2
23.306396,-9,-8,1,1,-4,-10,-13,-1,2
23.306414,-19,6,-1,-1,29,21,-12,2,2
23.307058,104,47,-1,1,-4,-53,-3,9,2
23.307083,-1,27,-1,1,2,6,12,6,2
23.321603,51,17,0,-1,-3,-5,-7,-6,2
23.321634,-79,-56,-15,-6,-18,-20,-23,-26,2
23.324015,10,-9,-1,-1,12,2,8,5,2
23.324024,64,32,4,-2,0,-8,-5,0,2
23.344205,10,-7,0,-2,10,22,15,12,2
23.344234,-19,4,5,9,-4,-41,-4,-21,2
23.346474,8,40,-2,-4,2,-20,0,-3,2
23.346480,61,-5,-1,-3,-14,17,3,9,2
23.366244,-37,-47,2,-1,-2,5,-5,-15,2
23.366250,-51,55,-6,-3,21,32,2,7,2
23.366789,20,-26,3,1,-22,16,3,-3,2
23.366795,4,42,-3,-3,-4,-42,-12,7,2
23.381385,16,16,-2,-3,5,16,-1,-16,2
23.381390,12,-40,2,-1,-11,-16,3,18,2
23.381797,-13,8,-4,-3,2,1,11,14,2
23.381803,-10,-25,-2,2,0,14,0,-23,2
23.404666,16,6,-4,-2,8,-17,-7,1,2
23.404695,2,11,3,-2,-20,42,7,6,2
23.404701,-37,-36,1,3,15,-7,-5,-7,2
23.407487,25,4,8,3,0,-16,3,32,2
23.428024,-33,-26,-15,-7,-18,-3,-12,-29,2
23.428030,27,-28,4,-2,3,11,10,41,2
23.428032,-36,-13,-9,-2,2,1,-16,-38,2
23.428034,-11,3,-3,-5,-2,-7,-7,1,2
23.442528,-4,13,6,4,1,-11,-5,2,2
23.442535,31,3,1,0,0,-6,7,12,2
23.442537,50,9,3,2,4,-1,3,10,2
23.442539,-32,-15,-3,-1,-2,-7,0,-4,2
23.463629,-19,19,2,-5,-15,-11,4,-9,2
23.463651,-91,0,-7,-2,20,1,-16,-1,2
23.464729,43,-9,3,3,-38,-51,0,5,2
23.464733,-84,-28,-12,-3,26,58,-4,-21,2
23.488933,36,-14,5,4,0,8,5,1,2
23.488939,20,22,2,-1,-10,-12,5,-4,2
23.488941,53,14,5,-1,6,16,-1,7,2
23.488943,-55,-3,-6,-3,-6,-10,-4,-12,2
23.501179,-77,-24,-9,-5,-10,-16,-11,22,2
23.503792,60,-22,-4,-2,-5,6,-8,-11,2
23.503797,5,-8,-3,0,11,19,-9,0,2
23.503799,50,-2,3,0,-10,-11,4,4,2
23.523926,2,-1,0,1,14,-5,-4,2,2
23.523944,-5,10,0,-1,-10,1,4,-11,2
23.524541,-15,-5,2,-5,12,3,-2,8,2
23.524555,8,-5,0,3,-3,-13,4,3,2
23.546132,15,13,4,2,2,2,0,-5,2
23.546147,0,-17,0,2,-3,3,7,-2,2
23.547139,-6,37,-1,-2,-5,-6,-19,-15,2
23.547181,-17,-63,-6,-3,-1,83,37,-5,2
23.561308,52,20,-8,-5,24,-10,-6,4,2
23.561330,-47,-16,-6,-5,0,-6,3,13,2
23.563588,-8,9,2,2,4,-4,3,0,2
23.563593,18,15,3,-3,-11,-6,-13,-5,2
23.584451,10,-3,0,3,-8,-8,-2,8,2
23.584464,33,2,1,-1,-5,7,10,-2,2
23.584468,-22,-3,-5,-4,7,18,1,-13,2
23.584472,-19,2,3,-3,1,-29,-6,20,2
23.606405,21,-30,0,5,-8,5,0,-8,2
23.606424,-58,23,6,1,10,18,0,-9,2
23.607816,1,17,-10,-7,-17,-22,-36,-20,2
23.607821,1,41,-2,-3,3,11,1,3,2
23.621160,-40,-17,-2,-3,2,44,1,-12,2
23.621174,-5,-6,-4,-4,-11,0,-4,-5,2
23.631602,53,18,6,5,7,7,15,19,2
23.631609,-46,-65,-3,-3,-5,-33,-12,-26,2
23.643821,-7,11,2,-6,-6,-15,5,7,2
23.643846,44,9,4,11,4,33,0,4,2
23.645411,-12,-11,2,-1,0,50,11,11,2
23.645415,96,-5,2,-1,-12,-66,-17,-31,2
23.666518,-56,-49,-9,-4,11,-27,-11,-9,2
23.666550,34,-5,-2,-6,-16,11,2,0,2
23.668107,-64,-43,-2,-1,-27,-33,-1,-14,2
23.668111,-22,27,-2,1,45,28,1,11,2
23.680980,9,32,8,2,-7,0,-1,-1,2
23.681013,15,-1,-9,-4,-14,-17,-6,7,2
23.689058,-38,-10,-2,0,6,9,14,-7,2
23.689082,29,34,-4,-1,-5,-4,-21,8,2
23.704210,-29,-15,0,-3,1,3,3,-7,2
23.704244,-29,-13,-1,-1,4,-14,-4,-3,2
23.706634,-10,2,4,1,4,2,14,9,2
23.706641,-20,4,-5,-7,-18,18,3,-16,2
23.726235,64,27,4,10,7,-14,4,45,2
23.726249,-34,-43,-6,-4,-3,22,-16,-74,2
23.726894,-58,-7,-8,-3,1,20,-11,13,2
23.726906,-2,7,3,3,0,18,16,10,2
23.740691,20,1,-2,-4,-3,-10,-5,2,2
23.740707,34,32,7,3,5,8,6,-5,2
23.749126,12,4,-3,-1,8,-3,-6,9,2
23.749165,-17,-12,3,0,-2,-7,0,16,2
23.763646,20,7,-3,0,-4,73,7,-13,2
23.763663,38,48,3,0,-22,-51,-11,30,2
23.764834,14,-44,-1,-2,24,-25,-19,-10,2
23.764838,16,26,-9,-5,-6,-9,-6,4,2
23.788671,23,-22,4,2,5,5,5,10,2
23.788680,-59,-13,-5,-2,-6,10,-1,5,2
23.788682,34,23,6,3,2,-5,4,8,2
23.788684,-14,-4,-1,-1,-6,3,-1,-8,2
23.800902,-23,-2,-5,-8,-7,-15,-10,-7,2
23.800916,6,18,5,6,5,-17,-2,-9,2
23.808990,10,-14,1,-5,2,11,9,-7,2
23.809013,6,2,1,8,-11,-26,1,0,2
23.823908,-66,-20,-3,0,27,4,1,-8,2
23.823930,37,19,-5,-11,-30,-6,0,-1,2
23.824469,-5,-8,-8,-1,33,-37,2,3,2
23.824484,21,-19,1,-5,-15,-4,12,8,2
23.846160,11,30,0,-1,-2,36,-25,-4,2
23.846176,-56,7,1,0,-1,-39,12,15,2
23.847169,39,-28,-1,-1,-9,20,-6,-7,2
23.847178,-41,-9,-2,-2,-5,-5,-5,-6,2
23.860632,31,-3,3,3,-5,-2,4,-15,2
23.860648,-44,-5,-1,0,14,16,3,11,2
23.869460,3,15,-7,-6,-18,3,6,10,2
23.869480,-12,6,-1,0,10,8,-8,5,2
23.884082,-90,-41,-4,0,-17,-29,-6,-13,2
23.884096,54,-16,0,-5,11,37,12,-2,2
23.884490,-9,18,2,9,-8,-48,-2,-11,2
23.884553,49,8,3,-3,0,13,2,20,2
23.906341,-4,22,-3,-2,-15,-32,-3,7,2
23.906362,10,-6,1,-2,28,12,14,-6,2
23.907776,-49,-35,-4,-4,-21,41,-4,-6,2
23.907783,25,29,-5,-1,24,-4,-15,-3,2
23.920835,19,-5,1,0,-1,-27,2,13,2
23.920857,-50,43,-5,-1,0,-14,4,-12,2
23.928630,32,18,4,-1,-5,6,-1,-6,2
23.928653,-57,-45,-5,3,-18,-8,3,-11,2
23.943855,29,31,-3,-5,1,-7,-9,0,2
23.943935,27,6,-2,1,-6,2,-9,13,2
23.944361,-41,-17,-4,0,6,43,4,-13,2
23.944375,4,12,4,-6,-2,-6,1,-4,2
23.966276,-12,-13,-2,5,2,1,6,-2,2
23.966298,-13,18,0,-2,-2,2,-5,8,2
23.968370,30,-10,-6,-4,-6,12,-2,-6,2
23.968374,-30,0,1,2,8,6,-1,-4,2
23.991129,34,-11,1,-2,-3,16,15,-3,2
23.991135,46,2,-1,-1,-2,77,0,6,2
23.991137,2,-21,-4,-6,-14,-93,-3,5,2
23.991139,-16,-8,-3,-2,18,26,9,-3,2
24.004279,18,-1,3,1,-1,-7,-7,-3,2
24.004335,-19,26,-2,0,1,-12,-4,0,2
24.007229,0,-1,2,1,-3,3,1,-16,2
24.007235,5,-16,1,-1,-7,15,4,7,2
24.026413,-59,20,-1,-4,-1,-26,-2,-8,2
24.026442,90,-21,4,5,4,-21,7,17,2
24.027279,-39,8,-4,-4,0,4,-17,-39,2
24.029621,-18,-32,-2,-1,-7,-19,-11,-2,2
24.050068,10,7,-1,-5,-5,7,-5,-8,2
24.050108,-28,-47,2,-3,4,-11,-6,1,2
24.052015,-8,28,-5,3,-10,10,6,13,2
24.052061,70,12,2,0,22,-3,3,3,2
24.064145,-20,-7,-5,-5,-16,-20,-1,-16,2
24.064166,-5,-30,1,1,3,5,8,1,2
24.066473,49,27,5,1,12,-11,4,8,2
24.066477,4,-5,1,2,-15,11,-1,3,2
24.086079,13,30,-9,-5,-3,5,-2,-16,2
24.086086,-33,-32,1,-1,-8,-39,-14,-14,2
24.086777,13,-11,-4,-5,-26,6,-5,9,2
24.086789,-43,-18,-1,-3,48,6,3,6,2
24.109440,-13,36,1,6,-3,62,12,-9,2
24.109457,-69,-35,-11,-7,-8,5,-4,-2,2
24.110862,4,5,2,0,2,10,-6,-14,2
24.110867,28,15,2,2,-19,-3,-7,0,2
24.123864,16,-20,1,0,5,31,2,13,2
24.123883,4,18,-3,-6,0,-29,-6,-13,2
24.125396,27,-8,13,10,13,23,11,38,2
24.125401,-33,7,-15,-11,-20,-27,-7,-24,2
24.146551,37,-23,-5,-5,4,16,4,-17,2
24.146557,39,2,-3,-1,-11,-5,-21,0,2
24.146821,-11,-8,0,-1,19,-1,7,19,2
24.146834,40,-11,5,4,-11,-7,4,0,2
24.169690,-17,0,-3,0,-6,-19,1,14,2
24.169708,16,7,5,0,1,-1,3,1,2
24.172001,5,36,-10,-8,-1,9,-1,-2,2
24.172009,28,-18,3,0,-21,-14,-19,-10,2
24.183910,17,-18,-9,-3,20,-10,4,-2,2
24.183932,-2,-8,-2,-5,-9,-13,-2,16,2
24.185648,2,16,3,6,3,-20,-2,-16,2
24.185652,-6,12,1,0,1,59,5,2,2
24.206283,16,-10,2,0,-23,-94,-4,11,2
24.206302,8,8,-1,1,4,27,3,14,2
24.208168,9,-9,0,-10,5,18,7,-13,2
24.208173,-36,-17,8,11,-6,-12,-4,15,2
24.229415,-29,-9,0,-4,5,19,-4,6,2
24.229436,-31,58,-14,-2,3,-19,-13,-46,2
24.230437,21,0,-1,0,-6,24,-6,26,2
24.230441,23,-5,0,-1,2,11,34,3,2
24.243677,26,0,7,2,5,-12,-22,2,2
24.243704,19,3,7,4,-4,-5,2,15,2
24.244653,-13,-11,-3,-6,1,4,-3,-8,2
24.244670,0,26,-2,-2,-1,-8,-6,1,2
24.266629,3,3,2,6,2,9,9,0,2
24.266659,-13,-36,-7,-4,-4,26,1,-6,2
24.268113,-18,-5,0,0,-21,-54,-2,-7,2
24.268117,29,-5,-5,-6,7,-18,-9,-18,2
24.289561,-104,-31,-9,-6,16,-8,-9,-13,2
24.289583,-32,-13,5,4,6,0,-7,-3,2
24.290075,69,20,3,0,0,42,6,24,2
24.290082,-46,-33,-5,-2,-13,-46,5,-12,2
24.303585,27,6,3,-4,-5,33,-1,15,2
24.303591,33,13,4,7,0,13,3,-6,2
24.304695,-3,-18,0,1,8,-17,-1,4,2
24.304717,-12,18,2,-3,-3,9,2,2,2
24.326281,0,10,-6,-5,-8,-14,-5,-6,2
24.326300,-23,-31,-4,-2,-2,3,3,-1,2
24.327898,-41,40,3,2,6,-1,0,4,2
24.327903,-3,-24,-10,-1,7,7,-12,-13,2
24.350779,-4,0,4,-2,-5,17,11,11,2
24.350785,-12,-15,-1,-4,-4,-43,4,4,2
24.350786,-22,-4,-5,0,-1,-5,0,-23,2
24.350788,12,26,1,-1,-1,5,-10,6,2
24.366806,27,7,4,1,1,-8,9,19,2
24.366813,-86,-28,-7,1,-34,5,-11,-49,2
24.366815,-3,-7,-2,-3,53,12,-25,4,2
24.366817,-5,2,0,-2,-11,15,8,1,2
24.387051,23,15,-6,0,0,3,-3,12,2
24.387080,33,36,4,-7,-4,12,5,5,2
24.389639,-19,-9,-2,0,-21,-49,3,-10,2
24.389648,-3,-29,-3,1,3,6,-5,8,2
24.410010,16,-3,1,2,-1,-2,-5,-16,2
24.413057,73,9,4,2,11,11,3,15,2
24.413061,-8,-19,-8,-4,-9,28,-11,-9,2
24.413063,29,20,5,1,3,9,0,11,2
24.423867,-8,38,8,6,-3,16,10,8,2
24.423893,12,-47,-7,-4,13,1,-2,1,2
24.425305,8,10,2,2,-1,-7,2,-5,2
24.425310,-12,-2,0,-9,-10,-1,-7,-9,2
24.446152,-9,-12,1,4,-4,10,6,-6,2
24.446167,21,35,5,4,12,16,2,15,2
24.446778,23,1,3,-3,-11,-36,-7,23,2
24.446784,-79,-44,-14,-4,-1,-8,-9,-31,2
24.469894,1,-14,2,2,-3,-17,-3,5,2
24.469932,7,0,2,-1,0,-6,-10,0,2
24.472614,-11,7,-3,-1,-9,16,27,-2,2
24.472623,-22,2,3,-1,3,-3,-3,7,2
24.484011,26,-2,-2,-1,-8,-16,-3,-6,2
24.484040,-39,-6,0,-1,-1,2,-4,-12,2
24.491271,-3,-7,2,-2,-2,4,-7,2,2
24.491292,-4,18,-7,0,-5,-4,5,1,2
24.506704,-70,-36,-5,-7,4,16,-6,-12,2
24.506714,30,20,-1,-5,1,-8,3,6,2
24.507129,15,-11,1,7,1,-3,-5,-12,2
24.507135,38,10,6,-9,-1,-16,5,25,2
24.529323,-20,9,-1,13,9,26,5,13,2
24.529344,-89,2,-6,-6,1,14,-2,-64,2
24.530393,-11,-27,-5,-2,-29,5,-7,15,2
24.530405,37,11,6,0,25,-26,-1,4,2
24.543725,65,2,-2,-3,5,29,-2,10,2
24.543741,16,-10,0,-1,-15,-86,4,5,2
24.544799,-26,19,-1,-2,14,55,-8,-13,2
24.544850,-4,20,-4,1,-16,-56,2,-9,2
24.566154,13,0,-1,-3,6,-3,1,-8,2
24.566176,-10,-40,-5,-1,-4,13,-4,15,2
24.568811,16,4,1,0,-1,0,-3,-13,2
24.568823,3,-28,-3,3,-7,15,-1,5,2
24.589893,-8,-7,2,-3,-1,-5,1,-12,2
24.589912,40,31,-7,-3,-2,-15,-15,17,2
24.591942,-57,-39,-8,-8,-2,-8,0,8,2
24.591949,5,15,2,8,-5,32,3,-9,2
24.603436,5,-19,1,-7,-4,-37,-3,-5,2
24.603458,1,-9,4,6,0,35,9,21,2
24.611770,-1,47,-8,-1,0,7,8,-37,2
24.611792,-32,-25,-2,-2,-3,-5,-13,16,2
24.626935,9,2,-1,-4,5,15,8,-1,2
24.626969,-24,-17,-2,-2,-2,-12,-8,-18,2
24.629552,55,-5,5,1,10,-10,2,22,2
24.629558,58,9,-2,-2,-10,-48,-2,-5,2
24.649363,-14,-1,-10,-3,-28,-15,-12,-20,2
24.649384,11,7,4,2,42,16,4,20,2
24.650368,4,-4,2,4,-5,-8,0,4,2
24.651918,-5,-4,-3,-5,4,29,5,-10,2
24.662976,0,9,3,2,-4,-8,-8,12,2
24.662992,14,7,2,1,-9,3,10,2,2
24.671611,-20,-22,-4,-1,-5,-18,-13,3,2
24.671636,15,0,-1,1,18,16,-3,-12,2
24.686163,4,20,0,-1,2,23,5,2,2
24.686185,-34,-25,-5,-8,-16,-16,-8,-2,2
24.689305,39,6,-4,0,3,30,7,7,2
24.689313,-38,-21,0,3,-2,24,7,7,2
24.709523,6,-9,0,-2,-6,-26,-27,-12,2
24.709538,29,14,1,2,7,18,9,7,2
24.710128,8,17,3,-2,-3,-8,0,20,2
24.710140,-76,-22,1,-1,-2,-26,-5,-21,2
24.723475,-8,-25,-8,-3,3,15,-4,-4,2
24.723485,12,1,-1,2,-2,43,13,9,2
24.731274,-60,-8,-2,-5,4,-13,-7,-8,2
24.731294,72,8,-1,-2,0,10,2,7,2
24.746126,-6,-5,4,2,5,38,9,-5,2
24.746148,-8,4,-5,-6,-20,-65,-20,0,2
24.747205,-22,-12,2,1,-11,-47,1,-2,2
24.747208,25,49,4,3,13,31,5,14,2
24.770967,31,4,-3,-1,-4,-18,-1,7,2
24.770974,-8,2,-4,-1,4,9,-13,-10,2
24.770976,26,7,7,4,-12,-3,12,2,2
24.770977,-20,-9,-3,-3,-9,15,-18,-5,2
24.783397,7,33,-8,-8,8,-9,-4,-4,2
24.783418,-25,4,4,7,-6,3,-7,-4,2
24.791305,2,44,0,0,6,11,0,-6,2
24.792573,8,-7,-1,-4,1,6,6,0,2
24.806754,-3,-6,4,3,-2,-10,3,12,2
24.806779,1,-2,-2,-1,-1,1,-3,6,2
24.808310,-6,-17,0,0,4,-3,14,-6,2
24.808315,47,-1,-2,-1,-30,2,9,-5,2
24.829345,-67,-5,-1,-3,42,-5,-7,-13,2
24.829368,41,-3,-6,-4,-10,-25,-2,3,2
24.830395,0,-15,2,-1,8,57,4,16,2
24.830399,-17,-2,-2,1,-31,-61,-7,-30,2
24.843583,2,-2,1,0,26,3,11,14,2
24.843612,36,-7,1,0,3,20,3,-2,2
24.851365,1,5,-8,-4,3,-2,-6,2,2
24.851387,-29,14,4,-2,1,19,4,6,2
24.866558,38,-19,-1,4,-16,-10,-7,-15,2
24.866577,-62,-34,-8,-7,6,18,7,-6,2
24.867115,-1,2,-2,-2,-11,22,-4,-14,2
24.867135,15,14,-1,-1,11,2,-1,16,2
24.889564,-6,-21,0,0,-12,1,5,-6,2
24.889588,-10,19,3,3,4,6,0,2,2
24.891374,4,-11,-5,-11,-4,-23,-6,-8,2
24.891379,3,1,3,9,8,20,3,-1,2
24.911888,-6,-2,7,1,-5,-4,6,17,2
24.911911,8,54,-3,-5,-6,-8,-1,3,2
24.913016,-57,-22,-8,-4,3,4,-20,-30,2
24.913028,-4,-9,-2,-3,-4,7,1,19,2
24.926240,19,19,-8,-2,-24,-2,-2,-6,2
24.926254,9,-5,6,1,32,-4,9,23,2
24.926870,60,11,6,5,-1,4,-1,-17,2
24.926884,-38,-5,-4,-6,5,0,-4,5,2
24.949707,-5,9,6,4,-14,-9,-3,-15,2
24.949736,-32,-20,-5,-3,-5,21,-1,-11,2
24.951465,50,32,-6,-3,-4,-18,-2,3,2
24.951469,-52,-22,-11,-4,3,-10,-4,9,2
24.971869,7,8,0,-3,-1,19,-4,-39,2
24.971891,-5,10,3,-6,-16,-67,-6,-5,2
24.972953,6,-16,3,9,7,15,1,6,2
24.972986,-20,-15,-3,-7,10,-11,-1,3,2
24.988167,-6,1,-4,2,-19,28,8,9,2
24.988179,34,-5,-1,-3,7,-65,-10,4,2
24.988181,-48,-18,3,3,-2,38,-8,-5,2
24.988183,35,33,0,-1,-16,39,10,-14,2
25.009510,-9,0,-3,-2,-31,-19,9,16,2
25.009526,18,-21,-3,-2,19,30,-18,-17,2
25.011162,-15,5,2,-1,-3,-20,3,12,2
25.011170,39,-3,3,3,11,-35,-3,8,2
25.032428,17,36,-4,-8,-4,-2,-9,-10,2
25.032456,-53,-23,-5,1,-30,2,10,3,2
25.034685,44,-15,-2,-3,1,-14,0,11,2
25.034691,-10,13,3,1,7,15,-3,-14,2
27.057378,11,4,-1,1,-1,1,0,9,0
27.057658,-27,2,1,1,3,-22,3,-5,0
27.058539,24,-11,-1,0,-3,15,-13,-3,0
27.058607,-8,1,-3,-6,1,-1,4,8,0
27.072496,-15,1,-2,-7,-2,-5,-6,2,0
27.072503,43,2,4,8,0,2,3,-9,0
27.078057,-12,-1,-3,-4,2,-6,-1,20,0
27.078075,9,-5,-1,-4,-15,-4,-3,-9,0
27.094810,-12,-4,1,2,10,2,1,-4,0
27.094833,-4,1,-2,1,-1,1,-2,-1,0
27.097033,3,2,0,-1,-3,-5,5,4,0
27.097038,31,0,-3,-1,2,3,-6,1,0
27.119180,-4,-4,-1,-4,-9,-3,-1,-4,0
27.119185,2,-2,0,3,-1,3,-4,-1,0
27.119187,3,0,-2,1,0,-2,0,-7,0
27.119189,-7,6,-2,2,3,1,3,-4,0
27.131902,4,-13,-5,-5,-5,-2,-4,-2,0
27.131923,-7,-6,-1,-1,1,-3,-2,1,0
27.138786,-7,4,1,-1,-2,-2,-3,-5,0
27.138815,11,0,1,-3,2,-2,2,-4,0
27.154769,12,5,0,-2,-1,-1,-3,5,0
27.154787,-10,-1,-1,2,-3,5,2,0,0
27.156384,26,2,0,-1,-1,-10,-7,-8,0
27.156405,-17,-2,1,-6,2,0,5,4,0
27.177028,-24,-13,1,7,-10,0,1,-2,0
27.177048,-14,1,-3,-4,0,2,-2,-7,0
27.179140,-9,8,1,-1,2,2,-2,-1,0
27.179146,-30,-4,-1,-3,2,-20,4,3,0
27.191233,45,-1,-2,0,-3,13,-4,-7,0
27.191256,8,1,2,-4,-1,-3,1,-4,0
27.198022,-11,3,-1,2,3,-4,-2,6,0
27.198038,7,-2,0,-1,1,3,-2,-8,0
27.214368,-6,4,-2,-3,0,-7,0,-6,0
27.214374,-4,-7,-5,-2,-6,-2,-1,-1,0
27.215824,-2,9,-1,-3,-2,1,-10,-4,0
27.215837,-1,-7,1,7,8,1,1,-1,0
27.236983,-1,6,-2,-1,-1,-3,-2,1,0
27.239262,1,3,-1,-3,-3,2,2,-1,0
27.239272,2,-8,-1,-1,-3,-1,4,-2,0
27.239274,-4,-1,-3,0,-1,4,-2,-2,0
27.251280,-10,-1,1,0,-1,1,5,4,0
27.252175,8,0,-2,-13,0,-8,-6,0,0
27.258012,-17,-7,-1,10,-4,1,0,-5,0
27.258028,-41,0,1,1,1,1,-2,3,0
27.274390,49,-2,-2,-1,5,-2,0,-11,0
27.274413,26,2,0,0,-2,1,0,2,0
27.276553,-33,-5,-5,-8,-3,-1,0,-5,0
27.276557,25,6,-5,-3,2,2,-7,4,0
27.297211,-75,-10,3,7,1,0,5,-9,0
27.297231,33,7,3,4,9,-4,-10,4,0
27.299584,-22,-10,-1,0,2,-6,0,-4,0
27.299589,0,0,-2,-5,-5,16,3,3,0
27.310541,8,0,-4,-4,-1,-3,0,3,0
27.310557,8,-1,-2,-2,-3,2,-3,-1,0
27.321623,7,2,-1,-1,1,-5,1,3,0
27.321644,1,-3,-3,-6,-3,-2,-1,-7,0
27.334335,10,4,2,1,-2,-3,-4,6,0
27.334357,-29,-8,-1,3,-2,-3,-1,-1,0
27.336981,12,3,0,3,2,2,-2,0,0
27.336986,2,-3,-1,1,5,-3,0,1,0
27.357413,-6,5,2,-2,-3,0,-2,-1,0
27.357432,-8,-2,0,3,3,-2,2,-2,0
27.358438,11,-1,-1,-2,-2,8,5,3,0
27.358446,28,-1,-1,2,-2,-10,-18,-2,0
27.371292,-3,1,0,0,1,-4,2,5,0
27.373977,-7,1,-3,-5,-4,2,-1,1,0
27.379728,18,-3,2,1,1,1,-1,-2,0
27.379754,-12,3,2,-2,-4,-3,2,0,0
27.394430,16,-2,-2,-2,-1,-2,-2,0,0
27.394445,-15,-6,-4,-1,-3,1,-1,-4,0
27.396491,2,2,0,-3,-4,-3,0,2,0
27.396496,-9,-7,0,1,0,-2,0,-2,0
27.419857,23,4,-6,-8,-3,5,8,5,0
27.419861,-49,8,2,7,7,-5,-18,0,0
27.419864,2,-4,-2,-9,0,7,7,-3,0
27.419866,-6,-2,1,6,0,-3,-2,-9,0
27.430946,-4,-2,1,0,2,6,-1,2,0
27.430968,9,0,-2,-6,-2,-7,4,4,0
27.440834,4,1,0,-1,-2,-6,-6,-3,0
27.440841,-3,-1,-3,-2,-4,5,3,-5,0
27.455006,-4,0,0,0,0,-7,-3,-1,0
27.455030,2,-2,-1,-2,-3,1,1,-4,0
27.457662,0,-1,-4,0,-1,-2,-5,-2,0
27.457677,-1,1,2,-6,-4,0,2,6,0
27.477709,-11,0,1,6,-1,-4,-5,0,0
27.477749,11,-1,0,-1,0,0,-2,-5,0
27.479806,-12,-15,-4,0,3,-1,-5,0,0
27.479810,-14,1,-4,0,0,-5,2,3,0
27.490648,-2,3,0,-8,-1,-2,-4,-5,0
27.490674,6,-2,-1,1,-2,5,2,2,0
27.501078,20,0,0,6,-2,-4,0,4,0
27.501083,1,2,-2,-6,-7,-2,-1,0,0
27.514272,0,-8,-1,-1,0,0,-2,-6,0
27.514278,-15,13,-1,-5,-5,1,1,3,0
27.515762,14,11,2,1,-1,-3,3,1,0
27.515775,-13,-6,0,5,3,0,-16,-6,0
27.536384,-12,0,-2,-3,-1,-12,5,4,0
27.538677,-4,-4,-1,-5,-12,11,-1,-12,0
27.544745,-20,-25,-2,-3,1,-2,-5,0,0
27.544750,26,0,-1,1,-2,3,11,-3,0
27.550584,-16,6,0,1,0,0,1,0,0
27.550604,29,-10,-4,0,1,-4,-1,-6,0
27.559628,-5,12,1,-5,-2,2,0,-1,0
27.559679,-12,-4,-1,-4,2,-2,2,0,0
27.575316,-3,-11,-1,8,-2,0,-5,-10,0
27.575322,4,1,-3,0,3,-2,3,-1,0
27.575987,-7,1,-1,-5,-3,2,-7,-1,0
27.576058,-1,2,0,3,1,-8,-7,-1,0
27.597139,9,3,-2,-4,-2,-1,-1,-4,0
27.597161,-16,-3,0,-1,1,0,-4,-3,0
27.598624,-4,3,-2,-7,3,0,4,1,0
27.598628,20,1,-1,2,3,1,-1,-1,0
27.611191,0,1,-2,4,1,0,-1,-3,0
27.611219,-3,-5,0,-1,-1,-1,0,5,0
27.621962,9,0,0,-1,0,-3,-1,0,0
27.621968,2,2,-3,-3,-1,2,1,-7,0
27.634972,1,-2,-5,-3,-1,1,-2,2,0
27.635000,-7,-2,-4,-2,-2,-16,-1,-2,0
27.637646,17,8,2,1,-2,23,3,4,0
27.637652,-44,-10,-1,0,-2,-9,2,-12,0
27.657062,32,8,1,-3,-3,-6,-10,8,0
27.657080,6,-6,-3,4,-2,0,0,-3,0
27.658588,22,-1,-5,-3,-2,-9,3,-5,0
27.658610,14,6,2,-1,-1,5,10,7,0
27.670446,-5,-7,-1,-3,0,8,-1,-2,0
27.670457,-10,-3,-3,-7,-1,-8,-7,-2,0
27.679657,-5,2,-3,3,-1,-1,3,2,0
27.679662,10,2,3,-1,-3,0,-6,2,0
27.694345,1,-4,2,-1,6,-2,2,-7,0
27.694360,-12,3,0,0,7,3,-2,2,0
27.695945,-18,-7,-3,-3,-4,-5,-4,-3,0
27.695962,1,-4,-5,-4,0,1,-1,-2,0
27.716778,-5,-6,-4,-8,-4,-4,-3,0,0
27.716800,5,9,1,10,-3,3,5,4,0
27.718290,-9,-5,-1,-2,-1,-5,-5,0,0
27.718302,3,-3,3,-11,-3,-2,-2,2,0
27.739548,-6,6,2,13,9,1,3,1,0
27.739568,18,-2,1,-4,-3,1,-2,1,0
27.741355,-7,-4,-3,2,-2,-9,0,0,0
27.741359,-19,5,-2,-2,-4,13,-4,1,0
27.754675,-6,-5,-1,-4,-2,5,9,2,0
27.754708,-20,-14,-5,-4,-4,-2,2,-5,0
27.757218,28,10,-1,1,2,-9,-30,1,0
27.757224,-21,-12,-5,-4,-2,-7,-1,-2,0
27.777776,2,1,0,-1,-3,-3,-3,3,0
27.777783,-11,7,3,3,3,13,5,-7,0
27.778504,-4,0,0,-3,-3,-2,10,2,0
27.778563,22,2,0,-1,0,-5,-9,2,0
27.799755,2,2,0,6,-2,1,3,-6,0
27.799783,3,-5,-1,-5,-2,-1,0,3,0
27.802051,-8,-5,-3,-5,-14,-1,0,1,0
27.802062,5,3,-3,3,-1,-4,5,0,0
27.814317,-3,3,2,6,8,-1,-1,-4,0
27.814339,-2,-7,2,-7,-7,-6,-1,1,0
27.815961,-7,7,-1,1,3,0,0,-6,0
27.815993,2,-2,-3,-2,-3,3,0,-2,0
27.837562,-4,-1,-5,-6,-5,-4,-5,-4,0
27.837602,5,0,1,3,1,-3,-3,-2,0
27.840268,9,2,0,0,1,2,5,-6,0
27.840279,5,-4,-3,-5,-2,-1,0,8,0
27.859425,3,1,3,1,-2,-3,0,1,0
27.859438,-8,1,3,3,1,-6,-6,3,0
27.860998,-25,-2,-1,-4,0,28,15,-2,0
27.861047,11,0,-2,2,3,-25,-14,0,0
27.874078,-18,-21,-6,-14,0,-5,-2,1,0
27.874087,5,-6,-4,-1,0,2,6,0,0
27.880452,10,1,1,4,1,-9,0,0,0
27.880467,-18,4,3,2,4,4,-3,-4,0
27.896800,-2,2,-5,-5,-6,7,-1,-9,0
27.896822,12,2,-4,-3,-2,-7,-2,-2,0
27.898568,-19,-5,3,1,4,-5,-4,-1,0
27.898647,9,0,0,1,-3,5,5,0,0
27.921984,5,0,-2,0,-4,-5,-6,2,0
27.921995,-10,4,0,-1,0,5,0,8,0
27.922000,15,0,-3,-1,-1,-5,-3,4,0
27.922004,-17,-12,0,-2,-2,1,3,-4,0
27.934078,8,5,0,-5,-3,-5,-1,2,0
27.936831,-10,-11,-3,5,1,-2,2,3,0
27.940560,1,5,-2,-1,-1,-1,-4,-5,0
27.940582,1,2,-1,-4,0,-1,2,2,0
27.956992,-8,-2,-1,2,2,0,-2,3,0
27.957018,12,3,0,-11,-4,-1,-4,-5,0
27.958482,-4,-7,1,9,-1,-18,4,-7,0
27.958497,-9,0,-1,-1,7,16,-7,1,0
27.979639,1,6,-3,-5,-9,-6,1,-1,0
27.979673,-13,-8,-4,-5,-1,1,-1,-6,0
27.982691,9,-5,-1,-1,0,-3,-6,-1,0
27.982697,-2,2,-1,0,-1,-1,5,-2,0
27.993731,7,1,-1,2,1,2,1,-7,0
27.993753,3,5,-2,0,-1,-4,-3,-1,0
28.000741,-13,-5,-4,-8,-3,3,1,2,0
28.000770,8,-2,2,1,-3,-3,-1,-7,0
28.016906,3,-2,1,2,0,2,-4,-3,0
28.016925,-2,0,0,2,0,-1,-1,0,0
28.018649,-12,-2,-4,-3,0,1,0,-4,0
28.018668,42,0,-1,-5,-5,-1,0,-2,0
28.039475,5,-4,1,9,7,-5,4,0,0
28.039501,-22,2,-2,-3,-2,0,-19,-2,0
28.041374,10,-6,-2,-1,-2,1,-3,-3,0
28.041378,-9,3,1,-3,2,-4,1,3,0
28.054266,0,-5,-1,-2,-11,2,1,-1,0
28.054295,18,6,-1,-2,-1,1,5,-4,0
28.061291,-4,-2,2,0,-1,4,0,3,0
28.061423,-29,0,1,3,-1,-10,-3,-4,0
28.076923,24,4,-1,4,4,-21,-5,0,0
28.076928,-4,-2,-4,-4,-1,26,4,-1,0
28.078340,-14,-9,-1,-3,-5,-21,-10,0,0
28.078358,-6,9,0,-8,-3,2,5,-5,0
28.099454,5,-8,1,7,-1,0,0,2,0
28.099475,1,5,-4,-2,-1,-7,-1,-5,0
28.101589,2,-2,0,-1,0,5,3,-3,0
28.101593,6,1,1,1,3,3,-3,-10,0
28.113657,-19,-5,-2,-11,-1,0,-3,-1,0
28.113679,1,-2,1,6,1,-5,0,1,0
28.120748,1,2,0,-2,-3,5,0,0,0
28.120767,0,-1,-1,4,0,-5,-2,5,0
28.137536,-18,1,-5,-10,-2,6,0,2,0
28.137575,2,-6,-1,-3,-1,-7,-1,2,0
28.140131,3,6,3,9,5,2,-2,-4,0
28.140137,-3,-7,-3,-3,2,1,1,4,0
28.159557,-2,0,2,4,0,4,0,1,0
28.159577,16,-1,-4,-8,-5,0,6,-3,0
28.161001,-1,3,-3,-1,6,-9,-14,-1,0
28.161026,5,2,-1,1,-1,3,2,6,0
28.173812,-17,-4,-2,-6,-4,-4,2,-5,0
28.173835,6,0,1,2,-1,10,3,0,0
28.180924,-9,1,0,-2,-2,1,3,4,0
28.180952,12,-2,-2,-4,-4,0,-3,0,0
28.197497,-38,4,1,2,4,0,4,-3,0
28.197534,-11,-9,2,-1,0,-7,-8,1,0
28.200019,23,8,-1,0,0,3,0,2,0
28.200022,3,-3,-3,0,-5,-2,2,-7,0
28.219975,13,-1,-2,-2,-3,2,-3,3,0
28.219981,-12,-2,-2,0,0,-5,-1,1,0
28.220909,5,-3,0,-5,-2,2,-1,-6,0
28.220927,-18,1,3,8,2,-2,0,5,0
28.234949,5,0,0,-3,-3,2,-5,0,0
28.234955,5,-2,-1,0,-2,0,3,4,0
28.240844,8,-6,-4,-6,-3,-10,-1,-6,0
28.240863,-8,-5,-1,-1,-2,2,0,2,0
28.257119,6,-1,-1,0,-1,0,-2,-1,0
28.257138,5,0,0,-4,-6,-2,0,0,0
28.258460,-25,1,-2,-3,1,9,15,0,0
28.258467,21,-8,-2,1,2,-13,-26,-2,0
28.279955,0,1,1,5,0,3,2,-2,0
28.279981,0,5,0,-1,0,-4,1,-5,0
28.281969,2,-3,1,-1,-2,0,1,2,0
28.281979,-10,0,-2,-7,-6,15,2,-1,0
28.293102,14,-2,-2,2,5,2,6,-7,0
28.293124,-9,2,2,-1,2,-7,-1,4,0
28.303949,5,-4,1,8,2,-2,-2,-2,0
28.303955,-5,5,-5,-7,-2,-8,3,-1,0
28.317216,19,2,-1,-5,-4,-4,-8,-2,0
28.317240,-50,-12,-1,-3,0,3,1,0,0
28.319022,-10,12,-1,0,-3,-3,-2,0,0
28.319026,-14,-10,-3,-1,0,-1,-1,-7,0
28.339561,2,-4,-5,-4,-3,2,1,5,0
28.339592,11,5,0,-2,4,-4,-3,-8,0
28.341715,-2,-5,0,4,-10,4,-7,-1,0
28.341721,-8,9,0,1,-2,-2,-2,1,0
28.353863,-5,-3,-1,-10,-3,-1,-1,1,0
28.356517,8,0,1,7,0,-4,-3,-2,0
28.362597,-2,-3,-3,-2,1,1,0,-1,0
28.362625,3,0,-1,0,0,1,4,-1,0
28.376885,-3,-2,-1,-1,-2,-4,-4,-4,0
28.376898,11,0,-2,-5,-3,-2,-2,-4,0
28.378514,-3,-4,-1,0,1,7,6,0,0
28.378533,-9,-1,-2,6,3,-16,-12,-3,0
28.399316,-5,1,-2,-5,0,8,2,-2,0
28.399332,10,0,0,3,-1,9,8,0,0
28.402094,-10,-9,-3,-5,-1,0,0,-2,0
28.402098,-8,1,-3,-3,-1,4,3,-6,0
28.413094,3,1,2,-6,2,-7,3,3,0
28.413115,0,3,3,4,-1,-2,2,3,0
28.422663,8,-5,-2,-1,-1,-1,-2,-3,0
28.422681,11,-1,-1,3,2,-3,-3,-1,0
28.438734,-21,3,0,3,-10,-2,-1,2,0
28.438741,6,-1,0,-4,3,3,-5,-4,0
28.438744,17,1,1,-4,2,-11,-9,-10,0
28.438746,-16,-13,-3,-1,1,1,2,3,0
28.459588,-13,7,-4,3,-3,-1,-4,-1,0
28.459605,1,-5,-4,-3,-5,-3,-3,-4,0
28.460886,-9,12,1,0,-4,-2,-1,1,0
28.460903,6,-3,2,4,0,0,2,2,0
28.472983,11,-3,0,1,-1,4,-2,-4,0
28.473015,-1,-2,-6,-5,2,-5,0,-2,0
28.484351,-6,-2,0,-7,-2,3,7,2,0
28.484363,7,0,0,4,-3,-6,-6,1,0
28.497313,-1,-3,0,-1,2,0,0,-6,0
28.497334,-3,2,0,-5,0,-5,-3,5,0
28.498834,-8,-3,-1,6,1,1,0,5,0
28.498845,-5,0,-1,-5,-1,17,7,-3,0
28.519245,10,-6,-3,-2,0,-6,0,2,0
28.519261,-8,-2,0,1,-1,1,-23,0,0
28.520921,4,0,-1,-5,0,-8,-4,-4,0
28.520937,-12,-7,0,-1,2,-2,-1,-2,0
28.534599,4,2,-1,1,4,-5,-10,-1,0
28.534603,14,2,2,3,5,-3,5,-1,0
28.543097,11,0,-5,-9,-6,-2,-5,0,0
28.543103,-16,-8,-1,2,-3,1,-1,0,0
28.557154,-1,-2,2,1,1,2,5,-4,0
28.557177,3,-4,-3,3,2,-2,1,2,0
28.558854,-1,4,-2,-1,0,-1,-2,0,0
28.558895,6,-6,0,-6,-1,2,3,-5,0
28.580570,-7,-7,-2,-5,-6,-1,7,2,0
28.580576,-14,-1,1,4,-5,-4,-3,-2,0
28.580785,12,-6,-1,-1,-1,2,1,-3,0
28.580791,13,3,-1,0,-4,-5,0,-3,0
28.593402,-4,2,-2,0,0,3,-2,-3,0
28.593431,-17,-1,-2,-5,-4,-2,1,1,0
28.608263,6,-4,-1,1,1,-23,-2,3,0
28.608324,17,4,-1,-8,-13,19,4,-2,0
28.617217,-1,-6,1,6,2,-5,-2,2,0
28.617245,-12,-1,0,0,-2,-4,-1,-1,0
28.619128,-3,-3,-4,-2,2,-1,-17,-4,0
28.619131,8,7,1,2,0,-8,-1,1,0
28.640285,-8,-1,-1,-5,0,2,-2,2,0
28.640305,13,-3,-1,2,-3,3,3,-2,0
28.642401,-5,-1,-1,1,-1,4,3,-1,0
28.642408,-15,-1,-2,-7,-3,-3,-3,1,0
28.653374,-2,-4,-3,-2,0,1,0,3,0
28.653396,3,2,-6,-8,1,-5,0,-6,0
28.663576,0,1,4,4,-1,5,3,0,0
28.663584,11,-1,-1,0,2,-4,-2,0,0
28.676907,-5,1,1,-1,-3,-3,-2,-7,0
28.676925,0,-1,-3,0,-2,9,8,1,0
28.678336,-12,2,-6,-9,4,-12,-13,-1,0
28.678353,-2,-6,1,6,3,-4,1,-2,0
28.699958,2,2,3,5,10,-1,-2,-6,0
28.699997,8,-2,0,-1,-2,0,3,5,0
28.701378,-9,-6,-2,-1,0,-8,-1,-6,0
28.701382,7,3,0,0,-2,10,-5,-4,0
28.722099,2,3,-2,-5,-6,-6,-3,0,0
28.722106,2,-5,-1,-1,2,-1,-2,2,0
28.723589,-7,0,-1,-2,-5,4,6,-2,0
28.723609,-4,3,0,-2,0,-7,0,1,0
28.739924,-8,-1,-3,-3,-4,3,0,0,0
28.739932,3,-1,1,-6,0,-5,-14,-10,0
28.739935,6,-15,-2,5,-1,3,6,2,0
28.739936,-6,5,-1,0,0,-5,1,2,0
28.759590,-2,2,-1,-2,2,2,-3,-3,0
28.759607,10,3,-2,-5,-5,-5,2,-1,0
28.760939,-4,2,1,4,1,7,0,-2,0
28.760954,-7,-13,-6,-8,2,-2,-3,-6,0
28.782368,9,-2,-1,4,0,-3,4,0,0
28.782396,-3,0,-5,-4,-6,5,4,-4,0
28.785009,-8,3,1,0,-2,-8,-9,-1,0
28.785015,1,2,2,-2,1,-1,4,4,0
28.797834,4,1,-3,-8,-4,1,-1,-4,0
28.797871,0,-4,2,10,3,0,-2,1,0
28.800319,-14,18,1,-2,0,7,0,-2,0
28.800324,10,-12,-4,-1,-3,-4,-1,-6,0
28.819378,-2,4,1,-2,0,-7,-4,1,0
28.819397,-6,2,-1,-3,-1,15,0,3,0
28.820939,5,-1,0,-4,-1,3,9,-2,0
28.821018,-3,4,-2,4,-2,-7,-5,0,0
28.841915,-15,-1,-4,-15,-6,2,-2,5,0
28.841938,39,-2,3,18,7,-12,3,-1,0
28.843429,-22,-8,-1,0,1,0,3,-4,0
28.843445,1,0,-1,-2,0,6,6,4,0
28.856282,-11,-1,-4,-2,-3,-6,-2,1,0
28.856313,-5,-6,-4,-6,-6,-3,-3,-2,0
28.863029,8,-3,0,-2,0,2,2,4,0
28.863045,-1,1,1,1,-5,-3,-1,-2,0
28.879703,10,4,1,5,5,0,-2,-4,0
28.879720,-8,3,2,-6,0,-2,-1,1,0
28.885597,-8,-2,-1,3,-2,3,1,0,0
28.885616,7,-1,-3,-5,-1,-4,-4,-2,0
28.902034,1,-7,-5,1,-2,10,3,-3,0
28.902056,-19,-1,-3,-10,-3,-12,-10,4,0
28.903288,-6,0,2,9,-5,-8,-4,-3,0
28.903300,32,-3,2,4,8,2,1,-2,0
28.916604,0,4,1,2,-2,0,0,3,0
28.916635,-18,-17,-3,-2,-1,1,4,2,0
28.923215,2,-1,-5,-6,-1,3,-2,-4,0
28.923240,-14,3,-2,-8,-4,9,3,-4,0
28.941384,2,-3,4,12,-2,-3,-3,0,0
28.941390,4,2,-1,-4,-3,4,-1,-5,0
28.941393,0,0,-3,-5,0,-7,-2,0,0
28.941395,-9,-5,1,1,-6,-2,-1,1,0
28.961927,3,-5,-2,-1,7,-1,-3,-2,0
28.961953,3,10,0,-3,-14,-4,1,-5,0
28.965163,-6,-10,-1,0,4,5,-5,-6,0
28.965195,-3,1,-5,-4,-1,-4,-2,7,0
28.976298,-2,-3,-3,-2,-3,-2,4,-5,0
28.976334,1,3,0,6,2,-4,-7,1,0
28.983218,2,1,2,-2,-3,1,2,0,0
28.983245,-2,0,-3,-1,-3,-1,-4,-7,0
28.999378,1,0,-3,-5,-4,-5,1,-2,0
28.999402,0,-5,0,2,4,2,0,1,0
29.000873,1,8,-1,-2,-2,2,0,0,0
29.000904,-14,-5,0,0,3,-6,1,-2,0
29.021977,-4,7,-1,-2,-4,-1,-3,1,0
29.021996,-6,-7,-4,-3,-1,-1,3,-5,0
29.023453,17,6,0,-9,-2,1,-1,-3,0
29.023471,-2,2,1,8,1,0,-3,0,0
29.036056,-22,-5,3,0,2,-3,-7,1,0
29.036085,2,1,-1,-1,-2,4,0,-2,0
29.043034,4,-2,-2,-4,-2,3,8,3,0
29.043052,-3,-2,-1,2,5,-5,-5,2,0
29.059342,-13,3,-2,-3,-13,-5,-4,-4,0
29.059362,20,-3,-1,4,2,10,2,-1,0
29.060897,-5,-4,-1,-2,-2,0,1,-2,0
29.060948,-7,0,-2,-3,-4,-2,-2,-1,0
29.081788,14,2,1,-2,2,-5,-3,-2,0
29.081801,-17,2,0,-3,-1,-2,4,3,0
29.083246,10,-3,1,2,0,1,-3,3,0
29.083258,-5,2,1,1,-1,-3,0,-5,0
29.096105,2,-8,-3,-2,-1,1,1,0,0
29.096111,-9,-1,0,-4,-2,-2,4,3,0
29.102965,-4,1,-2,6,6,-1,-9,-4,0
29.105014,9,-1,0,-9,-3,-3,0,-1,0
29.120094,8,-5,2,6,0,3,3,3,0
29.120122,-11,4,-1,-8,-1,-1,4,-1,0
29.123156,0,-1,-1,5,-2,-2,-1,-3,0
29.123162,-26,-3,-3,-4,-1,4,-5,-3,0
29.141894,3,-4,0,-1,0,-7,-2,-1,0
29.141908,12,4,-2,-1,-1,2,-4,-6,0
29.143379,30,2,2,-2,2,-8,-2,1,0
29.143397,-19,-8,0,5,4,1,-1,4,0
29.156965,-7,0,0,-2,2,4,1,-4,0
29.156977,5,-6,-3,-1,2,-7,-8,-4,0
29.163515,-15,-3,-2,-5,-2,5,3,0,0
29.163532,10,2,-1,-2,-1,-19,6,2,0
29.179675,-5,-4,-3,1,1,19,-3,0,0
29.179704,-5,-1,-3,-4,-3,-6,3,-1,0
29.182209,1,-2,3,1,-1,-2,-2,2,0
29.182222,-11,1,1,5,1,-2,-3,-7,0
29.203603,6,-1,-4,-1,-1,-7,-5,-5,0
29.203608,2,0,-2,-1,-1,-1,-2,5,0
29.210496,1,-3,-6,-7,-3,-1,-1,-3,0
29.210501,-2,2,1,1,-1,-1,-2,-4,0
29.215546,9,-1,-1,-3,-1,-2,1,5,0
29.215565,-17,1,1,2,-9,8,4,0,0
29.225430,6,0,-3,1,-1,-16,-16,-4,0
29.225436,5,-2,0,-2,0,8,2,0,0
29.239757,8,0,1,3,0,-3,-3,2,0
29.241563,-25,-3,-1,-1,0,-2,3,-4,0
29.241568,-6,-1,-2,1,-4,3,3,3,0
29.241570,-2,2,-1,-6,-6,0,-3,3,0
29.261821,-3,-4,-3,-10,-2,0,1,-1,0
29.261843,2,1,2,8,3,0,-2,-2,0
29.263246,-20,-1,0,-3,-1,-5,-3,-6,0
29.263253,22,1,3,8,3,3,0,0,0
29.275564,2,-9,-5,-4,-3,-3,3,0,0
29.275585,-20,-4,-2,0,2,-2,-5,1,0
29.285794,2,-3,-4,-3,-1,5,4,0,0
29.285800,8,1,-1,-9,-1,-1,3,-3,0
29.299699,-18,1,3,12,4,-1,-3,-2,0
29.299722,20,3,4,2,3,9,3,-2,0
29.301092,-8,-1,0,-1,-1,-2,3,3,0
29.302758,-7,-5,-7,-8,-4,-1,-9,-5,0
29.322129,4,0,-2,0,-7,-7,0,4,0
29.322156,0,-1,0,-3,-1,-5,-7,-1,0
29.324172,3,-1,-2,3,3,2,-3,-2,0
29.324178,21,1,0,-4,0,-4,1,2,0
29.335602,5,0,1,-4,-4,0,-2,0,0
29.335634,2,-7,0,0,1,0,-1,-3,0
29.345840,16,9,-1,3,0,0,4,1,0
29.345845,-31,-9,-2,1,-4,-1,-20,-2,0
29.359777,19,1,-3,-6,0,-1,2,-3,0
29.359791,-2,-1,0,2,-1,3,6,1,0
29.360949,1,2,5,0,-1,-12,-10,1,0
29.360970,3,-7,-1,-3,0,2,7,-4,0
29.382284,-2,10,0,1,0,-2,0,-5,0
29.382313,-3,0,-1,-4,0,-4,-1,-2,0
29.383569,-1,-6,-4,-1,-4,1,1,-3,0
29.383622,4,3,1,2,0,1,3,-1,0
29.395966,-9,-2,1,-1,2,-1,-3,-3,0
29.395994,6,2,-3,-2,-2,-8,-1,0,0
29.406346,-13,-2,-3,-2,1,2,3,-5,0
29.406352,-2,-5,0,-4,-10,2,5,-3,0
29.422089,4,7,0,9,9,12,-5,2,0
29.422096,-5,-4,-1,-4,-2,-9,-4,-5,0
29.422099,-1,-5,1,-6,1,8,3,-4,0
29.422101,-4,2,-1,6,-1,-7,-1,1,0
29.441907,1,-3,-3,-4,-5,-1,9,1,0
29.441968,14,5,-1,2,-4,1,-4,-3,0
29.443319,-19,-7,-4,-6,-1,-3,-4,-1,0
29.443335,4,-1,-2,1,-1,2,3,2,0
29.455724,-5,0,4,6,0,-3,-1,-1,0
29.455742,6,-1,-3,-6,0,-2,0,-3,0
29.466311,3,-4,0,-1,-3,-2,6,3,0
29.466316,2,3,-2,-3,0,0,-14,-1,0
29.479783,-3,-10,-4,-6,-1,0,-1,-5,0
29.479805,0,-2,1,1,2,2,0,1,0
29.481757,-1,4,-1,-1,-3,-3,-1,-1,0
29.481762,10,-5,-4,-7,0,-1,0,-6,0
29.502165,-12,0,-1,-3,-2,-2,1,-2,0
29.502186,-5,-2,1,5,-1,-1,-4,2,0
29.504327,0,-2,0,4,-3,3,2,0,0
29.504332,2,2,-2,-3,-3,1,1,-2,0
29.515501,-3,-3,-3,-4,-2,-5,-4,0,0
29.515515,-2,2,-1,-3,-2,-20,3,0,0
29.525400,0,-1,1,1,2,26,0,3,0
29.525405,-7,7,4,4,-1,-12,-4,-6,0
29.539576,10,-11,-7,-5,-3,0,-1,-1,0
29.539599,-37,-5,-4,-1,-1,-2,-5,-5,0
29.541269,3,0,-2,-3,-1,-6,-3,1,0
29.541274,-3,-3,0,-2,1,3,3,0,0
29.562529,0,2,0,0,-2,0,-1,-2,0
29.562535,14,1,-1,-1,-1,2,-1,-4,0
29.563496,-5,-1,1,2,-1,-5,-1,0,0
29.563568,-6,1,1,3,1,5,3,0,0
29.577224,-6,-1,-1,-4,2,-3,0,-8,0
29.577230,2,-4,-6,-8,-4,2,-6,6,0
29.586024,0,1,-1,-1,0,-1,4,-2,0
29.586029,-18,-7,-2,0,3,-1,5,-4,0
29.599298,4,7,-2,-2,2,6,2,1,0
29.599320,1,-3,-1,0,-3,-15,-13,0,0
29.600930,3,-2,-2,-4,-2,-2,-1,0,0
29.600943,10,1,-1,3,3,0,3,0,0
29.624117,-16,-4,-3,-1,-4,-4,-3,2,0
29.624123,10,1,-1,-8,-1,11,2,-4,0
29.624126,-41,-2,1,10,-2,-4,1,0,0
29.624128,-14,-10,-3,-7,-3,-4,-3,2,0
29.644946,-1,7,0,3,-2,2,2,-2,0
29.644973,-5,1,-1,-1,1,-12,-4,-2,0
29.647142,18,-3,-3,-4,-3,12,-11,0,0
29.647147,-1,5,1,-2,-2,-1,2,0,0
29.659534,-3,-1,1,0,1,-7,-4,-2,0
29.659554,-3,-2,-1,3,-1,3,5,2,0
29.660789,1,-2,-5,-5,-2,-9,1,0,0
29.660804,-3,1,-3,0,2,1,-3,3,0
29.682383,10,-2,4,-2,-9,2,1,1,0
29.682411,-8,-3,2,3,1,1,4,1,0
29.684543,13,-4,-3,-6,-1,-4,-5,-4,0
29.684549,0,-2,-2,8,1,4,2,-5,0
29.704322,-7,-4,-2,-5,0,-5,-2,1,0
29.704337,1,-3,1,1,1,4,1,4,0
29.706427,0,8,-1,-5,-6,-4,-2,-2,0
29.706451,5,-7,-4,-5,-2,-2,-2,1,0
29.719621,-2,-2,-1,0,-2,-1,1,2,0
29.719640,-5,-1,1,3,0,1,4,-5,0
29.721133,2,6,0,-4,1,-2,-23,0,0
29.721147,-33,-10,-2,-1,-3,-6,1,-4,0
29.741972,-6,-7,-2,1,1,0,-2,1,0
29.741993,7,3,-3,-5,-1,5,-1,-2,0
29.744388,-14,3,-1,-2,-1,-1,6,2,0
29.744391,8,8,1,1,-2,-2,-4,2,0
29.764324,5,-2,0,-1,-1,-7,0,-3,0
29.764337,-2,-6,-1,-5,2,17,3,1,0
29.765748,-3,3,-1,8,1,-6,5,4,0
29.765761,-2,1,0,-3,0,-2,-3,-4,0
29.779065,11,-1,-4,-3,-3,-1,5,-1,0
29.779071,-7,3,0,-5,-2,-10,-3,1,0
29.785603,-11,-13,1,1,2,-1,3,-5,0
29.785620,22,19,0,-1,-1,6,-3,-1,0
29.802596,-4,-10,-3,-3,-2,-7,-1,-2,0
29.802625,-1,1,2,2,1,-2,-2,-2,0
29.804922,4,-5,-1,-6,-4,2,2,-5,0
29.804938,1,0,-3,-5,-2,-4,2,4,0
29.824423,-7,2,3,2,5,11,0,2,0
29.824445,4,-2,-6,0,-5,-14,-11,-2,0
29.825927,4,-3,-1,-3,-1,2,3,-1,0
29.825934,5,-2,0,3,-2,4,2,3,0
29.838986,5,3,-2,-2,-1,-11,-9,-2,0
29.839013,10,-3,1,1,0,5,3,-1,0
29.845860,4,-3,-3,-2,-2,-4,3,0,0
29.845886,2,-3,-1,-10,-1,-4,-21,-2,0
29.861883,-10,-3,0,11,-1,2,1,-1,0
29.861899,4,5,2,-1,0,0,0,-2,0
29.863405,0,0,1,4,0,-2,0,-2,0
29.863447,6,0,-3,-5,0,3,5,0,0
29.884669,-7,-1,0,-4,-11,-4,-1,-2,0
29.884690,-30,-2,-4,-1,-8,12,-1,-2,0
