timestamp,sample_number,emg1,emg2,emg3,emg4,emg5,emg6,emg7,emg8
0.161981,0,53,1,-12,-4,-7,-6,-8,-13
0.162214,1,-22,-6,-5,-2,-2,-1,-2,-1
0.164120,2,0,25,-8,-1,4,3,1,1
0.164232,3,2,-20,13,5,5,1,-1,-1
0.164809,4,-19,9,32,4,0,1,-1,3
0.164823,5,-2,8,-16,-5,-2,-2,-5,-7
0.166069,6,1,2,0,-1,-3,-1,-1,-3
0.166087,7,-18,20,-15,0,2,0,10,-2
0.175253,8,15,-32,-6,-2,2,-2,-3,-6
0.175284,9,18,-15,-16,-6,-10,-5,-4,2
0.181895,10,-17,40,42,9,10,5,-5,3
0.184078,11,6,-33,-32,-5,-7,-7,2,4
0.192696,12,-18,20,1,-5,-11,-2,3,-2
0.192716,13,-12,74,-8,2,8,5,4,5
0.205126,14,23,-71,-27,-2,5,-2,-5,11
0.205151,15,12,17,59,5,-4,-1,-5,-17
0.214521,16,14,18,-10,-1,1,2,-4,5
0.214535,17,-2,-9,1,-2,-3,-5,5,-5
0.229512,18,-19,1,-16,-3,3,2,-2,2
0.229528,19,-23,31,12,6,1,2,-9,5
0.235140,20,3,-27,-24,-8,-7,-6,12,5
0.235170,21,9,-39,31,5,0,3,-4,-1
0.250023,22,20,23,-3,-1,-2,-4,0,-9
0.250044,23,-20,-39,-40,-8,9,5,-6,4
0.288805,24,53,16,-28,-11,-11,-5,15,9
0.288818,25,4,-37,-5,-4,4,1,-2,-2
0.289521,26,-10,19,8,1,3,2,-2,2
0.289527,27,-14,-18,8,8,6,1,-5,4
0.290255,28,-26,42,9,1,0,2,0,-4
0.290268,29,53,-64,-16,-4,-4,-5,-2,-5
0.293986,30,-10,42,-12,-4,2,2,0,-3
0.294000,31,-8,1,3,-3,-4,2,3,-1
0.301927,32,-3,3,-6,-3,2,-2,-9,0
0.301965,33,-31,26,-1,0,-8,-6,2,1
0.310638,34,24,-17,17,4,8,3,-1,-1
0.310653,35,7,-26,-45,-18,-23,-12,-16,-1
0.316243,36,35,28,63,10,2,4,18,-6
0.316267,37,-34,5,-15,-1,5,4,3,12
0.332973,38,34,26,8,-4,-3,-4,-6,-9
0.332990,39,-21,-84,16,9,11,5,5,-1
0.338824,40,0,-19,-17,0,1,-1,-12,3
0.338848,41,8,26,6,-3,-5,-1,-1,-2
0.353730,42,-14,5,-6,0,2,-1,6,1
0.353756,43,3,63,-33,0,7,3,5,8
0.361240,44,2,-60,29,-1,-7,-6,-12,-8
0.361265,45,30,-13,8,-5,-5,-1,-2,-7
0.378976,46,-18,-39,-15,-1,-2,-1,-3,-4
0.378996,47,-2,59,-5,-2,8,2,1,-2
0.379139,48,-41,-24,-30,-1,-7,-7,-8,1
0.379173,49,-13,-9,31,-1,-4,-3,-1,4
0.399570,50,-27,32,3,-4,-8,-4,9,2
0.399593,51,39,-30,20,-1,2,2,5,0
0.401169,52,-31,10,0,4,11,6,3,3
0.401181,53,18,22,-21,-1,-5,-4,-11,-11
0.421866,54,5,-30,-14,-4,-2,-1,-8,-3
0.421884,55,-4,-10,14,3,4,3,1,-5
0.422868,56,4,88,0,-10,-12,-12,-8,-5
0.422879,57,-30,-30,-12,4,4,1,4,0
0.437150,58,-9,-31,-2,2,0,1,0,10
0.437169,59,-2,21,1,-2,0,-2,6,-2
0.438208,60,20,28,-22,2,7,16,2,4
0.438221,61,-3,-28,44,6,10,-2,-4,-5
0.459681,62,30,11,-15,-1,-1,36,6,5
0.459709,63,-37,-48,1,-6,-16,-78,3,-10
0.460346,64,27,-56,-13,1,-2,5,-14,-1
0.461772,65,-7,30,-15,-3,3,1,16,2
0.473962,66,-7,-6,7,4,9,4,-6,0
0.473980,67,32,-2,-5,-6,-8,17,-10,-1
0.481389,68,-2,15,3,-3,-5,-5,7,-3
0.483677,69,-12,8,-4,0,-3,-1,-8,0
0.497204,70,-4,46,0,1,5,0,-3,-4
0.497219,71,-60,-29,-25,-4,-1,12,2,4
0.498493,72,13,-29,13,-3,-5,-15,-17,-13
0.498502,73,11,41,-28,0,2,12,11,9
0.519563,74,-16,-24,-15,-2,-5,-13,0,2
0.519586,75,15,71,35,3,3,5,0,-5
0.521204,76,-5,-27,10,4,12,7,4,4
0.521216,77,5,13,-22,-5,-14,-7,-10,-2
0.534005,78,6,-48,30,1,-2,-9,11,-3
0.534138,79,-5,6,-22,-4,-6,3,-6,8
0.541589,80,-14,19,2,-5,1,2,13,0
0.541612,81,55,-13,7,6,17,8,0,-15
0.557262,82,10,-3,-11,-4,-12,-14,-12,1
0.557285,83,3,36,2,-2,-1,10,-5,-4
0.559446,84,-19,-13,-2,2,-6,-4,4,6
0.559458,85,-23,49,2,-4,-5,-3,0,10
0.579964,86,-9,-36,1,-5,0,-2,0,-16
0.580005,87,22,32,1,7,11,9,-2,-4
0.582418,88,-63,-34,-6,-1,-2,-5,1,-2
0.582423,89,63,-18,6,-2,-1,-3,-2,1
0.594026,90,8,38,10,-2,-3,-3,-8,-6
0.594046,91,8,-22,-10,-4,-4,2,6,4
0.601517,92,6,-9,-15,-1,2,-1,-2,-1
0.601532,93,-41,26,-1,0,5,3,1,1
0.616891,94,12,-70,-20,-7,-14,-12,-6,-4
0.619000,95,-12,78,35,3,-2,4,2,-1
0.619021,96,19,-57,-3,2,6,4,-8,5
0.619024,97,-5,-23,-2,-2,-9,-2,8,3
0.639552,98,-2,42,-14,-3,-2,-4,4,4
0.639575,99,-20,-29,-13,1,2,-1,-20,-5
0.641183,100,39,84,-22,-1,2,4,13,1
0.641391,101,-20,-53,8,2,3,0,-6,-8
0.653749,102,-10,0,-6,-3,-2,-5,-12,-5
0.653769,103,9,19,10,-6,-10,-2,12,9
0.661601,104,-29,16,-5,-1,3,4,-3,-4
0.661806,105,7,10,-20,-4,7,-3,-11,0
0.677118,106,-22,44,42,7,-11,1,19,8
0.677144,107,37,-40,-9,-9,-7,-6,-12,-10
0.678901,108,-15,39,-2,-5,-1,-2,-4,-4
0.678912,109,-14,-46,2,-1,0,0,4,-2
0.699392,110,-35,-5,-6,2,10,5,-6,2
0.699415,111,36,25,3,5,3,1,0,-1
0.700557,112,36,-57,9,-1,-5,-2,2,-1
0.700568,113,6,16,-3,-4,-5,-1,-1,-2
0.713626,114,2,34,-12,2,-2,0,-4,4
0.714923,115,-12,-23,9,4,8,1,9,-3
0.721307,116,-9,20,-11,-7,-11,-5,1,-4
0.721337,117,-5,24,1,-6,-9,-2,-2,-3
0.737158,118,-12,-57,6,4,3,0,-8,10
0.737181,119,-45,-23,-23,-2,0,1,4,-14
0.738864,120,52,3,12,-1,5,-1,-7,0
0.738875,121,-17,-35,-11,-3,-7,-5,-1,1
0.759273,122,1,10,4,-2,0,2,-1,-2
0.759288,123,-10,0,-3,1,2,0,-3,5
0.760086,124,-25,-11,0,5,7,3,3,11
0.760150,125,-7,14,12,1,-10,-7,-4,-19
0.773704,126,25,34,-7,-7,1,0,-1,-5
0.773721,127,11,-73,-7,-4,-2,-3,-6,-3
0.781235,128,-1,-10,15,-4,-17,-9,-6,-2
0.781251,129,8,11,8,4,2,4,8,5
0.800481,130,5,77,-23,-5,0,-1,2,7
0.800492,131,-30,-35,59,9,4,1,0,-7
0.800494,132,67,-31,-18,-3,0,-3,-9,-13
0.800496,133,20,33,-4,-2,-4,-4,-12,0
0.819431,134,7,-84,9,0,0,1,16,-3
0.819456,135,0,45,-21,-7,-3,0,3,3
0.820773,136,-44,-10,-7,1,8,2,0,11
0.820785,137,45,29,31,2,-5,-3,-1,2
0.833728,138,-21,-25,-14,-5,-3,-5,-6,-9
0.833748,139,6,-12,-4,1,-3,-1,-4,6
0.841342,140,-11,26,-3,-3,-4,-1,1,-6
0.841364,141,2,-34,-12,1,6,2,1,7
0.857374,142,-7,1,-5,-4,-4,-3,-12,0
0.857403,143,18,10,7,5,-1,1,12,-2
0.863900,144,8,9,-5,-6,-8,-4,-6,0
0.863916,145,-35,92,-20,-3,8,4,-6,6
0.879289,146,12,-87,29,9,0,1,7,1
0.879300,147,10,63,-21,-10,-9,-8,-11,-17
0.879936,148,2,-26,-3,1,-2,0,4,-1
0.879943,149,30,11,-11,-5,-2,-4,-9,-9
0.902129,150,-15,11,-4,1,4,-1,-12,6
0.902147,151,-11,-9,2,-1,1,4,19,1
0.903919,152,2,0,3,0,1,2,0,-3
0.903932,153,-6,-53,1,-3,-4,-4,-3,-10
0.916901,154,10,26,-4,-3,0,-1,-1,1
0.916920,155,-4,-13,6,2,3,1,-8,4
0.918769,156,-5,24,3,2,1,-1,0,-1
0.918789,157,11,-64,12,0,-3,1,7,0
0.939804,158,-7,-3,-13,-5,-1,-1,-1,-7
0.939818,159,17,41,-2,-7,-13,-8,-8,1
0.940070,160,-41,-44,-25,4,2,-2,1,-1
0.940078,161,-4,59,32,0,-3,-1,2,4
0.961777,162,21,-6,0,-3,-6,-4,-2,-10
0.961796,163,-14,-18,-8,-3,3,1,0,2
0.962578,164,1,-16,-5,-3,1,2,4,-5
0.962583,165,-26,-14,0,0,2,2,2,6
0.979712,166,0,20,-3,-3,-1,-2,1,0
0.979724,167,-8,-18,-8,2,3,1,-7,1
0.979726,168,17,9,10,2,3,0,0,3
0.979727,169,-51,4,-4,0,-3,0,3,0
1.001204,170,17,2,-2,-6,-4,-1,-1,-5
1.001217,171,49,-14,-9,-1,0,-3,-4,-3
1.001219,172,-33,4,9,-3,-3,-3,-1,-7
1.001221,173,2,-45,-4,1,4,1,-1,1
1.021856,174,-21,26,8,-2,1,0,-2,2
1.021878,175,5,-28,-9,1,0,-1,2,4
1.023571,176,13,33,6,0,3,1,-1,1
1.023582,177,-41,20,3,1,-2,-2,-8,2
1.036822,178,3,-45,-11,0,-3,-1,11,4
1.038479,179,38,-53,-12,-8,-7,-5,-3,-11
1.038492,180,-7,-4,6,-3,-3,-1,-5,0
1.038494,181,1,5,-5,-4,2,0,0,-5
1.059352,182,-5,34,7,7,10,4,2,8
1.059371,183,-20,13,3,0,-2,-1,-4,1
1.060832,184,7,16,-2,-4,-3,-1,-2,-3
1.060845,185,10,9,-5,4,2,2,1,0
1.081700,186,-21,-43,11,4,-1,-2,-4,3
1.081722,187,41,3,4,-9,-10,-4,-2,-13
1.082639,188,-41,7,-9,-2,-5,-4,-8,-5
1.082652,189,14,-20,-25,-6,-4,-3,9,-1
1.096085,190,2,35,-5,-1,2,-1,-3,-4
1.096100,191,-10,23,9,5,6,3,3,9
1.103555,192,19,-19,4,0,-1,-1,-5,2
1.103573,193,-8,35,-6,-2,0,-1,-3,-8
1.119620,194,0,-17,12,6,1,1,1,8
1.119643,195,36,10,-12,-1,-2,-2,-5,2
1.121088,196,-13,-35,-6,-5,2,-2,4,-10
1.121099,197,1,-10,-17,-6,-10,-4,-4,4
1.141982,198,35,14,-1,-7,-5,-2,-1,-9
1.142014,199,-38,45,18,5,2,2,-3,7
1.142503,200,27,-16,5,1,5,1,3,4
1.142636,201,-7,-7,26,2,-1,-3,-4,-2
1.156091,202,-5,-2,-27,-4,2,0,0,-2
1.156109,203,-59,2,17,4,1,2,10,7
1.163722,204,40,-24,-11,-5,-5,-1,-3,-7
1.163740,205,1,-6,-4,-2,-1,-2,-2,-2
1.179293,206,-13,14,-4,-3,-6,-4,-3,1
1.179315,207,-1,-6,1,-1,0,-2,-4,-1
1.180786,208,-6,25,2,3,1,1,5,5
1.180796,209,15,10,3,4,5,3,-2,4
1.201988,210,-32,-9,-2,-2,-1,-2,-3,-13
1.202025,211,-8,-12,-12,-10,-14,-4,1,11
1.202843,212,24,-46,-2,-3,-5,-4,-9,-23
1.202878,213,17,10,0,-3,-1,0,7,1
1.216251,214,18,14,-1,2,4,-1,1,4
1.216272,215,-10,10,-2,0,5,0,-1,4
1.223731,216,2,31,-6,-1,-3,-1,0,6
1.223748,217,-5,-2,8,3,1,1,-10,0
1.239661,218,-16,-26,-9,-2,1,3,8,-6
1.240943,219,3,-66,-7,-2,-2,-2,-7,-10
1.240955,220,43,33,4,-2,-5,-3,1,2
1.240959,221,-8,14,-7,-6,-4,-3,-1,-2
1.261995,222,-7,-16,3,-2,-1,1,-1,1
1.262015,223,-13,5,-5,1,4,0,-3,-6
1.263861,224,-39,-12,5,5,6,2,1,3
1.263871,225,-2,31,-15,-6,-12,-4,1,-4
1.284663,226,19,12,40,7,5,2,-1,5
1.284686,227,45,0,-12,-5,-3,1,-2,-2
1.286839,228,-86,-44,-8,-9,-7,-5,-2,-13
1.286850,229,41,-15,-5,-3,-4,-4,-2,6
1.298931,230,-30,5,-5,-2,-3,-3,-11,-5
1.298965,231,-8,11,6,6,7,3,10,1
1.306933,232,14,33,2,0,0,0,0,15
1.306963,233,-8,-41,-10,0,4,2,2,0
1.321911,234,21,16,-4,0,0,-3,-4,-5
1.321934,235,-17,21,-3,-6,-6,-3,-3,-3
1.322607,236,7,-45,-2,0,-3,1,1,-1
1.322612,237,-4,17,-4,-4,-4,-4,0,-5
1.344598,238,15,-23,-2,-3,-2,0,-1,0
1.344712,239,-8,26,2,1,3,1,-2,0
1.346604,240,-9,26,4,6,5,0,3,4
1.346618,241,-21,-9,19,5,5,2,-1,-1
1.367416,242,6,37,-16,-4,-6,-6,-10,-7
1.367428,243,5,-55,-3,-2,-10,-5,7,-4
1.368341,244,6,-25,-2,-3,-2,3,-3,8
1.368361,245,-14,-6,-10,-2,2,1,1,-6
1.382597,246,11,12,5,2,0,0,3,2
1.382612,247,-14,2,-2,2,4,0,-5,3
1.382616,248,19,9,8,3,1,1,1,0
1.382619,249,-10,-22,-8,0,3,1,-1,0
1.404414,250,-24,-4,0,-3,1,2,3,4
1.404429,251,46,10,-18,-1,4,0,-6,-9
1.406337,252,10,7,20,-7,-16,-5,2,-1
1.406342,253,-2,23,3,-2,-5,-2,-3,-1
1.427945,254,4,-16,2,0,-2,-2,1,-2
1.428027,255,-13,-34,9,3,6,3,-3,-2
1.428313,256,-17,22,-15,1,7,3,-6,5
1.428325,257,11,2,-2,-6,-9,-7,1,-16
1.441881,258,13,5,-5,-3,-1,0,2,7
1.441918,259,2,42,12,0,-1,-3,-5,-2
1.442548,260,-15,-51,4,-1,-1,-3,0,-5
1.442610,261,12,10,-3,4,6,4,2,6
1.464379,262,10,-26,-11,-2,5,1,0,-2
1.464396,263,9,9,3,-7,-11,-3,-5,-4
1.466160,264,-24,8,-11,0,7,1,-1,-1
1.466174,265,16,26,19,2,-1,1,0,6
1.487537,266,-18,-25,-5,-3,-7,-3,-3,-13
1.487557,267,5,10,-2,3,3,1,2,5
1.488292,268,9,14,-2,-2,-2,-3,-5,-4
1.488309,269,-38,-9,1,1,3,1,10,5
1.502050,270,36,27,-9,-3,-3,-1,-5,-1
1.502068,271,-12,-19,3,2,3,2,4,1
1.502749,272,-7,34,-6,-3,-4,0,-2,-5
1.502767,273,-17,-45,1,2,-2,-3,-5,0
1.524225,274,3,16,15,0,-5,-2,0,-1
1.524246,275,-13,15,-15,-1,5,6,4,5
1.532283,276,20,39,11,2,-6,-5,-6,-3
1.532313,277,-25,-54,10,-2,-4,-2,0,-1
1.547782,278,4,-5,-3,-1,-1,-1,1,1
1.547793,279,-13,4,-8,-3,-3,-4,-6,-3
1.548072,280,1,4,-9,-1,6,1,2,2
1.548077,281,11,14,4,0,2,1,-8,-5
1.563050,282,-31,10,-7,-1,0,-2,5,-1
1.563060,283,-11,-21,0,-3,-7,-4,1,6
1.563062,284,66,-14,-3,-3,-4,-4,-5,-11
1.563063,285,-3,-17,4,1,-1,-1,-6,-1
1.584754,286,9,35,-2,-2,1,0,2,-1
1.584775,287,-32,-40,-2,-3,-1,-3,-3,-5
1.586712,288,-37,0,2,2,3,0,4,1
1.586723,289,32,8,-15,-2,3,1,-2,3
1.607518,290,-12,7,-10,-1,0,-2,-1,1
1.607530,291,-12,37,28,4,-6,-4,1,5
1.608147,292,15,-14,-21,-5,0,-3,-3,-4
1.608153,293,7,-41,-12,-1,3,0,-8,-3
1.622276,294,-17,28,1,-3,-2,1,11,0
1.622288,295,3,50,-6,-5,-2,-4,3,-4
1.622441,296,-15,-76,-21,0,0,3,-1,1
1.622462,297,3,35,6,-2,-2,-2,0,2
1.644520,298,-22,-21,11,4,-1,1,-1,1
1.644543,299,76,18,-13,-5,-2,-1,-4,-1
1.645552,300,-21,0,13,-1,-6,-5,1,-6
1.645650,301,11,-3,-13,-6,-5,-4,-3,5
1.667376,302,9,-23,-25,1,1,-1,-7,2
1.667388,303,-25,-4,48,2,-5,-4,-4,-7
1.668217,304,-14,-44,-8,-1,1,-2,-2,-2
1.668235,305,-9,3,3,-1,-4,-3,-8,-6
1.682549,306,37,-44,-21,-4,-1,-3,-2,-9
1.682561,307,-20,-1,-8,1,5,1,2,2
1.682562,308,18,-5,5,-2,-2,-1,7,3
1.682564,309,-44,14,-9,-2,0,2,1,-2
1.704307,310,21,-15,5,0,-1,-2,-3,2
1.704324,311,6,60,-23,-2,-4,0,-5,1
1.705484,312,6,-16,6,2,1,-1,-3,-3
1.705498,313,21,36,6,-5,-11,-4,2,-5
1.729135,314,7,-12,2,2,3,0,-3,1
1.729151,315,-18,-45,3,0,-4,-2,-2,-7
1.729155,316,-12,56,-14,-3,4,3,3,24
1.729158,317,8,0,15,0,3,0,-1,-16
1.742030,318,-9,-17,2,-6,-5,-4,-6,-6
1.742052,319,-28,-19,-20,0,2,0,-3,1
1.743853,320,13,27,14,4,3,4,7,-3
1.743865,321,10,-8,1,1,-1,-3,-3,3
1.764843,322,-37,-21,11,-1,-9,-2,-3,-4
1.766219,323,31,-28,-20,-5,-2,-1,1,6
1.766225,324,-10,19,15,-2,-4,-2,-2,-2
1.766227,325,-13,1,4,2,6,4,7,4
1.787551,326,19,-19,-13,-3,-3,-3,-5,-6
1.787567,327,-15,-15,5,2,4,0,-1,0
1.789145,328,-2,16,-10,-3,0,0,-4,-4
1.789157,329,12,11,-6,-1,-2,-4,-9,4
1.801859,330,-5,20,3,-5,-1,-1,8,2
1.801888,331,2,-34,-8,-2,-2,0,-3,-5
1.809494,332,-5,43,-6,-3,1,0,4,0
1.809513,333,-6,-20,5,8,4,0,-3,-7
1.824436,334,-32,42,1,-3,-6,-5,-5,10
1.824451,335,33,-18,7,0,2,-1,2,-5
1.825195,336,8,13,12,0,-3,-2,-9,0
1.825235,337,-35,-25,-21,-6,-4,-1,4,0
1.847803,338,21,-54,28,5,-1,-1,-2,2
1.847824,339,-3,30,25,3,2,-1,0,-1
1.848795,340,-13,-42,-31,-2,-3,-1,7,-2
1.848799,341,8,10,-12,-4,0,0,-1,-3
1.862254,342,-18,8,31,6,6,2,-1,-2
1.862282,343,25,8,-1,-6,-9,-3,-4,-2
1.863747,344,-16,-11,14,-1,-1,-2,-2,-8
1.863752,345,-20,7,-4,2,-5,-2,3,3
1.884450,346,10,38,-12,-1,2,1,-2,-10
1.884469,347,-6,-16,-14,0,4,-2,-4,1
1.885111,348,-5,-31,33,-2,-12,-6,-1,0
1.885133,349,13,9,-11,-6,-6,-2,4,-2
1.907657,350,-18,52,-23,-2,2,-1,-3,11
1.907675,351,11,30,22,6,9,2,3,-6
1.908902,352,-15,-34,-11,-1,-2,-3,-15,-3
1.908918,353,31,9,18,-2,-4,-6,11,-4
1.921825,354,-23,-9,-14,3,1,1,9,2
1.921842,355,-23,-10,3,-1,8,1,-4,0
1.922682,356,32,17,-10,-7,-17,-7,-2,0
1.922693,357,21,-49,-6,-2,0,-2,-7,0
1.944322,358,-33,-57,4,-2,0,0,-4,-3
1.944339,359,-6,33,-15,-6,-8,-4,1,0
1.945104,360,1,-14,-2,5,9,4,1,1
1.945131,361,-2,-4,3,0,-1,0,-1,1
1.967684,362,9,27,0,1,1,1,3,3
1.967711,363,11,-34,2,0,-4,-2,-4,-1
1.968975,364,-3,9,-6,-2,-3,-3,-8,1
1.968994,365,-18,40,-6,-4,-2,-2,3,-7
1.981145,366,34,-29,0,-1,1,2,2,1
1.981168,367,-21,-3,-18,-2,4,2,-1,-8
1.989516,368,6,55,11,1,0,-3,-6,7
1.998998,369,12,-95,31,10,4,2,4,3
2.004712,370,10,24,1,-4,-10,-6,-2,-10
2.004739,371,3,-20,-18,-7,-7,-1,-1,11
2.007682,372,-13,-2,-18,0,7,4,5,-3
2.007703,373,-24,17,-1,-2,5,2,-5,3
2.027619,374,39,-7,2,-1,-4,-4,-4,-7
2.028351,375,18,-4,9,1,-3,-1,4,-5
2.028364,376,-41,13,-1,2,3,0,3,-3
2.028367,377,-4,-2,3,-2,-3,-2,-7,3
2.041722,378,21,16,5,2,4,0,8,7
2.041758,379,-12,-47,-4,-2,2,1,1,-5
2.049592,380,17,11,3,0,-1,-1,-2,-2
2.049618,381,3,18,-7,-2,0,4,-2,1
2.064278,382,-45,28,-13,-2,-10,-5,-6,-5
2.064297,383,18,28,0,0,-1,-3,2,-2
2.065069,384,-11,-55,24,3,4,-1,2,-1
2.065118,385,15,-11,3,6,5,1,0,5
2.087520,386,9,3,-12,-6,-2,1,-6,1
2.087545,387,-30,45,-19,-1,-3,-2,1,-6
2.088806,388,0,-66,8,-1,4,2,2,-4
2.088833,389,4,33,-9,1,1,-1,-1,-2
2.110027,390,-23,-25,8,1,-10,-5,-8,0
2.110050,391,16,-5,-4,-2,-9,-5,2,3
2.110715,392,28,41,-14,-5,-3,-1,-4,-6
2.110758,393,-20,-31,-5,-2,-1,-1,-1,-3
2.131139,394,1,4,7,3,9,3,0,1
2.131161,395,-9,-20,-1,-1,0,-2,-5,-1
2.131164,396,4,25,-9,1,1,1,3,3
2.131166,397,-31,20,-1,0,6,2,-2,-2
2.147404,398,20,-10,-5,-4,-5,-3,0,-4
2.147420,399,7,-12,13,-4,-4,-2,-1,-1
2.148111,400,10,-6,-7,-3,-2,-2,1,4
2.148151,401,-21,-8,-8,-3,-3,-4,-2,1
2.161158,402,3,-19,-4,-1,3,1,-3,-3
2.161179,403,-4,13,3,1,2,2,-1,2
2.169260,404,-5,3,-9,-1,1,-1,-1,-2
2.169280,405,12,26,3,-1,-3,-2,0,0
2.184255,406,4,-7,13,3,9,4,-6,3
2.184273,407,-17,-5,-4,-1,-3,-4,6,3
2.185043,408,24,0,-20,-10,-13,-6,-5,-7
2.185063,409,-11,-19,11,-2,-3,-4,-5,-13
2.207455,410,-3,11,-4,-5,-5,-3,-4,-6
2.207477,411,-2,-5,0,1,3,-1,-7,-5
2.208223,412,-42,1,3,3,4,1,2,7
2.208231,413,10,32,-4,-2,-4,-1,2,7
2.221105,414,9,-17,8,0,2,0,1,-7
2.221121,415,-20,-1,-6,1,1,0,-4,2
2.229284,416,-2,-5,19,5,1,-1,6,0
2.229299,417,14,11,12,1,1,1,-10,2
2.244241,418,-6,13,-14,-1,0,-2,7,-11
2.244253,419,52,-38,-8,-9,-11,-3,-3,-7
2.245061,420,-7,18,6,-2,0,0,-3,2
2.245125,421,8,-10,-11,-3,-3,-1,-1,3
2.267960,422,-2,-6,0,0,1,1,0,5
2.267982,423,-17,39,11,1,4,1,-1,-2
2.269735,424,2,-14,-9,0,6,2,-2,-1
2.269748,425,4,-22,-10,-3,-4,-3,1,-6
2.281491,426,11,17,-3,4,3,3,3,11
2.281511,427,-65,-16,6,-4,-10,-8,-6,-2
2.289314,428,34,-33,-28,-6,-3,-2,-16,-6
2.289330,429,-4,31,27,4,4,-1,19,-4
2.304329,430,6,-49,-7,-8,-15,-6,-2,-2
2.304346,431,11,1,1,4,1,2,1,6
2.305159,432,-15,16,-6,-1,0,0,-2,0
2.305178,433,-2,-22,-10,1,3,2,-5,2
2.327806,434,-29,0,-28,-4,1,0,-4,-2
2.327839,435,21,15,51,3,4,0,-1,-2
2.329438,436,6,4,7,0,-4,-2,2,0
2.329449,437,1,22,-11,-4,-2,-2,-2,-5
2.350070,438,-17,-15,-7,-1,-1,1,2,-1
2.350084,439,-14,-25,-21,-1,0,0,-3,0
2.350699,440,-4,11,5,-1,0,-1,0,-4
2.350711,441,23,17,-5,-1,0,-1,0,1
2.364232,442,-13,10,24,-1,-9,-5,-3,-5
2.364244,443,1,-18,-7,-3,0,0,-2,-4
2.364912,444,-17,8,2,2,2,2,6,2
2.364924,445,9,-12,2,-1,-1,-2,-9,3
2.387555,446,2,39,2,0,4,1,9,0
2.387576,447,6,-37,6,3,1,3,2,7
2.389123,448,15,47,-3,-2,-3,-2,-2,-2
2.389137,449,-17,-25,-7,-7,-11,-3,-6,-5
2.410041,450,57,-1,-10,-5,-3,-4,-3,1
2.410053,451,-26,9,-8,0,3,0,0,0
2.410712,452,-20,16,5,3,4,1,2,-1
2.410786,453,6,-4,7,3,3,0,-1,-3
2.424307,454,-1,23,11,3,-2,1,-2,5
2.424319,455,9,19,-20,-2,-3,-3,1,1
2.424908,456,28,-13,17,0,-3,1,0,-3
2.424914,457,-44,-49,-12,-8,-5,-2,-4,-13
2.448094,458,-20,-28,0,-1,3,-1,-4,0
2.448126,459,4,17,-4,-2,-5,-3,-3,-1
2.449075,460,2,-1,1,-2,-2,-1,3,-1
2.449086,461,13,13,2,4,3,3,5,12
2.471261,462,-3,11,-4,3,3,0,-3,2
2.471273,463,-17,-19,-6,-5,-9,-4,5,-2
2.471275,464,-7,-11,4,3,7,3,-2,-1
2.471277,465,16,-11,16,-3,-19,-10,-2,-4
2.486969,466,-3,2,3,-4,-3,-3,-9,-8
2.486991,467,6,-3,-12,-1,5,1,2,1
2.486994,468,-11,-21,14,3,0,-2,3,2
2.486995,469,-18,41,7,1,2,2,-2,1
2.507773,470,8,-9,-8,-5,-4,-3,-3,-6
2.507805,471,19,-10,5,0,2,0,-1,1
2.509683,472,-8,-8,-4,-1,2,0,1,2
2.509691,473,-6,-6,-15,-1,-1,-2,-3,3
2.531867,474,-11,1,1,-3,-8,-2,0,-2
2.531878,475,2,7,-5,0,0,2,0,-3
2.531880,476,7,85,-10,-1,1,0,-2,-1
2.531881,477,-10,-69,-5,-1,-4,-4,-3,2
2.544578,478,7,-3,6,-1,-2,-1,4,-6
2.545717,479,18,33,2,-1,-2,1,2,-2
2.545728,480,-1,-24,0,-3,-4,-2,-1,-3
2.545730,481,10,31,-2,1,7,2,1,-2
2.567483,482,0,-29,-20,0,2,-3,-3,4
2.567511,483,-2,33,9,-2,-8,-3,-5,1
2.569089,484,-11,-8,14,3,0,0,-1,-1
2.569107,485,20,-10,-17,-4,-1,1,-1,-7
2.591004,486,-33,11,5,3,3,1,-4,1
2.591020,487,-9,-4,-3,0,3,-1,1,2
2.591022,488,10,4,-17,-7,-7,-3,-3,1
2.591024,489,0,-23,3,3,4,2,-1,-2
2.604365,490,6,3,-6,3,4,1,3,6
2.604380,491,-32,34,7,-2,-7,-3,-1,-3
2.605837,492,21,-7,12,-7,-9,-7,-4,-10
2.605849,493,21,-8,-13,2,1,0,5,2
2.627866,494,-31,30,0,1,4,2,-3,3
2.627893,495,-3,-102,-23,-4,-7,-4,3,-1
2.629972,496,2,30,8,-5,-3,-1,-5,3
2.629987,497,12,29,0,1,3,-1,-2,1
2.650339,498,13,2,4,-1,-5,-3,3,1
2.650361,499,11,-2,-5,0,0,-1,-11,-3
2.652313,500,-3,-29,-15,-1,-1,-1,-1,0
2.652456,501,-17,25,-1,-3,1,-2,-2,-2
2.664489,502,-7,-16,8,2,2,1,-1,-4
2.664517,503,5,2,5,1,5,0,-1,2
2.666342,504,13,-1,-1,0,-3,1,1,-3
2.666353,505,-14,32,-7,-3,-1,-1,1,0
2.687456,506,4,-1,-3,0,2,0,-10,1
2.687476,507,6,-18,-10,-6,-6,-3,9,-7
2.688576,508,12,3,11,2,1,-3,-4,5
2.688589,509,-5,-11,-18,-5,-5,-3,2,-5
2.718763,510,-3,44,13,1,-1,2,0,-2
2.718803,511,48,-44,34,8,8,3,-6,-4
2.720811,512,-67,-8,-26,-5,-8,-1,3,5
2.720823,513,7,-16,-2,-3,-8,-4,-2,-3
2.723696,514,23,21,6,-4,-6,-5,-3,-4
2.723717,515,2,-11,-13,-2,3,2,1,2
2.732362,516,-13,-7,0,7,11,4,0,-6
2.732386,517,-13,6,5,-3,-6,-5,-3,-3
2.747781,518,18,-57,4,-3,-10,-5,2,-2
2.747806,519,-38,17,6,0,-1,-2,-11,2
2.748494,520,14,-12,-1,-3,1,-3,4,-5
2.748505,521,-20,13,-16,1,8,5,4,3
2.769982,522,17,47,28,2,-8,-4,-3,-5
2.770008,523,-26,-11,-20,-4,-1,-3,-5,8
2.771616,524,26,2,-19,-3,-4,-1,3,2
2.771629,525,-23,-13,17,1,0,0,-5,-4
2.784373,526,-8,8,-19,-1,3,1,6,2
2.784396,527,13,36,-14,0,2,1,-5,-6
2.786480,528,10,-37,24,6,3,1,-5,1
2.786492,529,0,31,5,-8,-13,-6,-2,-4
2.807515,530,12,-43,-17,-5,-2,-5,-3,0
2.807532,531,-40,64,0,0,-1,0,-2,2
2.809178,532,20,-25,-13,1,7,1,9,-1
2.809216,533,33,-7,4,-1,0,-1,-6,-8
2.830550,534,-23,-31,20,5,3,3,1,4
2.830577,535,23,1,-5,-7,-4,-4,2,-3
2.832562,536,13,67,6,1,1,-1,-6,-1
2.832567,537,-31,-46,5,2,2,0,-1,1
2.843606,538,10,-3,-26,-5,-4,1,2,-3
2.843621,539,-3,9,15,7,9,4,2,9
2.852951,540,-34,24,-7,-1,-3,1,-2,-1
2.852965,541,42,-17,3,-3,-3,-2,-2,10
2.868188,542,1,30,-15,-10,-9,-8,-1,-4
2.868201,543,2,-31,-12,-1,6,5,2,-10
2.869168,544,-51,0,-15,0,-2,0,-1,-2
2.869186,545,41,13,10,0,-2,-2,-3,-1
2.890240,546,0,-52,-1,-4,-2,-3,-5,-6
2.890261,547,23,37,-2,-1,-4,-4,0,-1
2.891862,548,-50,-17,-24,-6,3,-1,-2,-1
2.891872,549,-23,9,3,3,5,2,3,3
2.903953,550,-11,5,17,2,3,3,0,2
2.905276,551,8,5,5,-2,-2,-4,-1,-5
2.921672,552,-1,-28,16,6,2,1,-2,0
2.921685,553,-19,62,-23,-2,0,-1,3,0
2.928907,554,13,-60,-1,2,-7,-6,-5,0
2.928918,555,-16,10,2,-4,-2,-2,4,-7
2.928920,556,29,-46,-10,-6,-6,-3,-3,2
2.928961,557,-43,10,-2,1,9,4,4,-2
2.950339,558,12,51,-30,4,13,5,-10,-1
2.950363,559,42,-42,3,-6,-20,-8,4,0
2.951837,560,11,11,5,-5,-10,-6,-2,-3
2.951857,561,1,-9,-21,-1,1,0,-9,7
2.964043,562,-19,35,19,1,9,7,14,2
2.964067,563,-39,-45,9,7,7,2,-5,-3
2.973943,564,19,15,-13,-8,-3,-3,-3,-10
2.973955,565,21,-34,5,-3,-14,-6,-5,-9
2.987903,566,-6,-1,-15,0,-3,-1,0,4
2.989587,567,6,43,20,5,7,3,0,4
2.989605,568,-7,-44,1,-1,-9,-4,-1,2
2.989609,569,-26,-39,-4,-1,-4,-4,-2,-7
3.009974,570,22,9,6,-1,-2,-1,-2,-1
3.009996,571,4,10,12,-1,2,0,-9,-4
3.011637,572,-5,-25,-7,0,5,0,-1,-3
3.011702,573,21,-19,19,2,0,0,-1,4
3.023584,574,-11,17,-1,-4,1,0,15,-4
3.023607,575,1,15,-14,-3,4,3,3,2
3.034197,576,-10,-12,27,3,-1,-2,-8,-6
3.034210,577,24,45,-6,-2,0,0,2,7
3.047611,578,10,14,4,3,4,-1,-11,-7
3.047632,579,-10,-30,-1,-1,-4,-1,-2,-3
3.049148,580,28,7,0,-3,-4,-2,4,2
3.049167,581,-14,11,-9,-4,-1,0,0,-2
3.069990,582,-10,-34,12,2,-1,0,0,2
3.070012,583,-20,21,4,-1,-4,-2,-2,-1
3.071518,584,-2,7,-1,2,-1,1,-1,2
3.071532,585,4,-26,14,2,3,1,7,-6
3.083623,586,8,35,-2,-1,0,1,5,-3
3.083635,587,6,-25,-11,-3,-5,-4,0,7
3.092680,588,-20,5,5,5,3,2,-1,2
3.092694,589,17,3,-6,5,12,2,-1,-5
3.107637,590,16,-4,3,-9,-18,-11,-5,-4
3.107665,591,-1,-4,-2,-4,-6,-1,0,1
3.110056,592,-14,32,2,0,2,0,-5,-11
3.110068,593,-36,-2,-6,0,-1,-1,2,2
3.130779,594,-5,-41,-15,-5,-3,-2,-7,-3
3.130814,595,5,-13,8,2,2,-1,-1,-3
3.133658,596,5,3,-11,-2,2,0,0,7
3.133669,597,-13,39,11,0,-8,-3,0,-2
3.143765,598,25,-17,-8,-2,0,-1,-5,-8
3.143788,599,-6,9,-8,-4,-2,-6,-5,0
3.154065,600,-4,10,-9,-1,-1,0,3,1
3.154180,601,0,-9,3,1,-1,-2,-1,-4
3.167661,602,-11,1,5,1,3,2,-8,8
3.167680,603,-4,6,-14,-3,-1,-2,4,-11
3.169129,604,-17,-13,6,1,2,1,1,5
3.169197,605,30,-27,2,4,11,3,-4,0
3.189086,606,-18,-10,-4,-4,-7,-5,0,-14
3.189101,607,16,2,-9,-8,-12,-7,-8,0
3.198261,608,-4,4,-5,-4,-5,-4,3,0
3.198273,609,-6,-1,5,-3,-4,0,-2,2
3.203610,610,-17,29,2,5,10,3,-1,2
3.203626,611,8,-4,3,5,4,2,4,3
3.212583,612,-4,6,9,-1,-4,-2,-2,-1
3.212593,613,-1,30,-7,-1,1,1,-2,-4
3.227459,614,-14,-37,-2,1,3,-1,1,3
3.227501,615,10,-10,-13,-5,-9,-5,-7,-7
3.229010,616,26,-11,10,-1,-6,-4,-2,-5
3.229048,617,2,13,-3,-3,-3,-2,-10,7
3.250381,618,-7,21,11,1,3,0,8,-4
3.250398,619,-16,-7,-7,4,5,3,-2,6
3.251634,620,9,15,3,3,8,5,6,5
3.251660,621,-16,-27,4,-8,-19,-8,-2,-6
3.272468,622,-6,-8,-13,-8,-9,-6,-9,-6
3.272486,623,-1,-68,4,3,4,2,0,-2
3.274245,624,17,37,-11,-2,1,-1,-4,-2
3.274264,625,-38,-4,-10,2,3,1,6,1
3.287592,626,-10,0,16,3,2,1,-1,11
3.288703,627,33,17,0,0,2,2,1,-7
3.289070,628,2,-20,-22,-6,-3,-2,0,0
3.289077,629,1,-1,-1,1,-2,-1,2,-1
3.310029,630,-9,7,-11,-3,-3,-1,-4,2
3.310057,631,-20,-51,6,1,0,-1,-10,3
3.311335,632,26,-1,-8,-2,-2,-2,8,1
3.311347,633,-10,-18,-3,-1,0,-3,-6,-8
3.332742,634,1,4,0,0,-7,-4,-1,-1
3.332772,635,-27,29,3,2,9,4,0,-3
3.335194,636,-11,-14,4,2,-8,-7,-10,-3
3.335213,637,23,17,7,-4,-4,1,6,2
3.347829,638,-2,-21,-13,-2,-2,0,5,7
3.347902,639,-7,16,10,0,0,-2,-1,-3
3.349703,640,-1,15,7,1,1,-1,-2,-1
3.349711,641,-17,28,5,3,3,2,-1,-1
3.370557,642,17,-41,-1,-3,1,-1,-5,-5
3.370569,643,6,19,-3,1,3,1,6,0
3.371604,644,-18,28,-13,-2,-2,-3,0,13
3.371621,645,4,-17,-10,-4,-5,-4,-2,-4
3.392504,646,-16,-4,16,2,0,0,0,-4
3.392531,647,-7,-20,-8,0,-2,0,-9,1
3.393978,648,-8,40,2,-1,2,-2,4,-9
3.394009,649,15,-49,-4,-3,-7,-5,-7,-9
3.407134,650,-21,17,-5,0,0,0,2,9
3.407154,651,24,27,-5,0,1,2,2,4
3.414118,652,-17,-13,8,-1,-1,-1,-8,-9
3.414144,653,8,-13,-7,1,0,0,4,5
3.432487,654,6,65,-1,1,2,-1,4,0
3.432503,655,-24,-46,-5,-5,-5,-5,-1,-2
3.432507,656,16,-20,-5,-1,-1,2,-3,-1
3.432510,657,-3,7,9,-1,3,-1,-3,-5
3.452585,658,6,0,12,4,2,2,-3,5
3.452607,659,-3,55,0,-6,-7,-6,5,-3
3.454315,660,0,-28,-3,-3,-2,-3,-6,-4
3.454326,661,-7,-31,-2,1,2,-1,0,1
3.467448,662,-8,4,-1,1,4,1,-2,-3
3.467474,663,-4,-38,-24,-2,0,0,0,-1
3.473780,664,-14,4,37,-3,-11,-6,-10,-6
3.473803,665,-5,35,-2,-2,-2,-3,5,1
3.490088,666,20,-15,-2,0,0,1,-1,-2
3.490107,667,13,30,1,0,0,0,3,10
3.492251,668,19,-8,-11,-1,1,-1,-2,-3
3.492264,669,-1,-7,-4,0,4,1,-1,5
3.513083,670,-11,17,9,1,0,-1,-6,-3
3.513107,671,18,-24,-3,-2,-7,-5,0,-11
3.514769,672,-16,-33,-1,-2,-2,1,0,2
3.514775,673,16,26,-8,-3,1,2,-3,-7
3.526806,674,-2,-13,-12,-1,-1,-1,2,-1
3.526830,675,-12,32,12,1,-3,-1,-3,-1
3.533796,676,-8,-7,-9,-1,2,0,1,4
3.536019,677,10,6,6,6,11,5,0,2
3.550548,678,-15,-13,-11,-6,-9,-6,-2,-2
3.550578,679,-49,-23,5,-1,-7,-5,-13,-1
3.553104,680,64,3,-6,-5,-3,-1,8,-15
3.553117,681,12,-38,10,1,-1,-1,-2,0
3.572771,682,13,18,-3,0,4,0,2,2
3.572796,683,2,27,12,1,2,2,1,-1
3.573994,684,-24,-14,-12,1,5,2,-2,1
3.574006,685,0,36,26,4,-1,-3,0,3
3.587027,686,-17,4,-7,1,-1,-2,-4,-10
3.587044,687,16,-41,-2,-5,-6,-1,4,4
3.593617,688,26,8,3,-2,2,-1,0,-3
3.593638,689,-8,-22,-19,-3,-4,-3,-1,-2
3.610031,690,1,33,2,-2,-1,0,0,0
3.610054,691,3,-5,-2,-1,1,-1,-1,0
3.611586,692,-27,47,0,2,8,4,-1,4
3.611604,693,-2,-38,-9,1,0,-2,-12,1
3.633039,694,19,13,10,-5,-12,-4,9,-2
3.633063,695,-31,-15,-12,-2,1,-2,-9,-12
3.634049,696,68,-27,-11,-7,-7,-5,-2,-2
3.634066,697,-23,-6,-11,-3,2,1,-2,-3
3.646884,698,10,-12,13,4,4,1,-5,1
3.646901,699,10,13,-3,2,0,-2,0,-1
3.653762,700,-24,14,-3,3,5,2,1,5
3.653839,701,7,-10,26,-1,-16,-10,-4,0
3.670047,702,-12,44,-5,-1,3,0,-7,-6
3.670068,703,-14,-48,-20,-6,-9,0,9,1
3.672030,704,31,-45,9,0,1,-2,-5,-5
3.672042,705,-11,31,-20,-8,0,1,5,-2
3.692446,706,-1,-26,-4,0,0,-5,-4,-7
3.692467,707,23,4,-1,0,5,0,-5,7
3.693935,708,-41,21,0,2,0,-2,-5,2
3.693954,709,-9,2,11,1,-5,-3,9,-2
3.706825,710,77,-13,-12,-7,-5,-2,0,-4
3.706841,711,-22,19,6,0,-1,-2,-4,-9
3.713562,712,-26,-49,-6,-2,-2,-3,-1,-1
3.713578,713,9,47,-9,-1,2,1,-3,4
3.730316,714,-17,-26,1,0,-4,-2,-1,-1
3.730337,715,33,17,6,0,-1,-2,2,2
3.731626,716,-24,38,5,3,-3,-1,-1,3
3.731631,717,-9,-14,-1,2,7,1,-4,4
3.753009,718,24,-23,7,1,1,-1,3,1
3.753027,719,-6,61,-16,-6,-11,-7,-4,-22
3.754410,720,-17,-44,12,3,-3,0,-1,-6
3.754427,721,29,-1,-18,-5,-2,-3,0,1
3.768421,722,-17,-37,1,3,6,4,2,11
3.768439,723,-7,40,16,0,5,1,0,6
3.775698,724,2,34,-5,1,-4,-3,-8,2
3.775711,725,-26,-31,-2,-3,-1,4,9,-8
3.790015,726,21,16,-9,-5,-2,-2,-8,-2
3.790038,727,-31,-43,-1,-1,-3,-2,0,-4
3.791658,728,41,32,-6,-3,-4,-3,-4,-1
3.791735,729,-5,-11,4,0,0,-1,-5,1
3.812480,730,-29,-62,6,1,5,3,3,-3
3.812492,731,4,18,3,3,6,2,0,3
3.813899,732,-17,13,-7,-8,-8,-2,-1,2
3.813910,733,15,-4,-1,3,-8,-5,0,-4
3.828611,734,2,30,13,-2,-2,-4,-1,-5
3.828622,735,-4,-18,14,5,3,2,2,5
3.836818,736,-10,-26,4,1,3,2,2,2
3.836832,737,-20,-35,8,1,-1,-2,-7,-4
3.850180,738,-3,0,-19,-7,-6,-5,-5,-4
3.850200,739,28,-15,-11,-2,-1,-1,-6,5
3.852056,740,-9,27,0,1,1,3,13,1
3.852068,741,5,12,0,-4,-5,-3,-3,1
3.872989,742,-35,12,4,2,-2,0,2,6
3.873003,743,14,-5,-2,-3,-2,-2,-5,-2
3.874007,744,-1,-26,2,2,3,-1,2,4
3.874018,745,-16,66,-2,-3,3,4,5,-1
3.886219,746,13,-19,0,-1,-3,-2,-4,-2
3.886245,747,16,9,-11,-6,-6,-4,2,-2
3.895414,748,-4,-22,-2,-2,1,1,-9,-6
3.895427,749,4,19,13,3,-1,-2,2,-2
3.910037,750,-7,32,-10,-1,1,0,-3,2
3.910052,751,-4,13,3,1,-2,-2,1,1
3.911409,752,-5,-54,24,3,-1,-1,-1,-9
3.911423,753,-7,10,-14,-2,3,0,-4,1
3.934975,754,2,-23,-10,-3,1,-1,-5,-2
3.934987,755,-14,-12,-4,1,6,1,11,1
3.934989,756,23,39,0,0,-1,0,2,2
3.934991,757,35,9,-10,-4,-9,-3,-3,2
3.946198,758,-11,-30,7,-1,-3,-3,-3,-5
3.946220,759,-5,8,-4,-1,2,1,-3,0
3.956164,760,-21,3,-9,-4,2,-3,-2,-3
3.956179,761,-8,-16,7,1,2,2,2,-1
3.970270,762,24,45,-7,1,0,1,-3,-2
3.970288,763,-21,-10,-12,-3,-1,-4,-4,-3
3.971825,764,-8,-2,3,-2,-6,-1,6,4
3.971837,765,-5,-24,2,-3,-7,-5,-5,-1
3.993557,766,5,16,-9,-1,-3,-2,1,6
3.993567,767,6,-3,0,1,3,1,-1,-1
3.993990,768,2,2,-8,0,1,-2,-2,-3
3.993996,769,13,1,-4,-3,1,-2,1,3
4.006268,770,-5,-2,1,-1,0,0,1,-1
4.006284,771,17,-1,18,4,2,1,-3,1
4.016093,772,-23,-3,-10,0,-1,-1,3,-2
4.016104,773,-10,-12,-5,-7,-7,-3,1,-4
4.030627,774,-5,-18,6,-1,-3,-2,-2,-1
4.030647,775,7,28,3,-1,-2,-4,-5,-7
4.032012,776,-13,-11,6,1,-1,0,-6,4
4.032025,777,23,-19,-5,1,7,0,-2,0
4.052800,778,-43,-1,13,3,1,0,3,-3
4.052830,779,-1,-23,-2,-1,2,2,-5,5
4.054679,780,16,12,1,2,3,1,6,0
4.054692,781,-15,-17,-16,-8,-8,-5,-5,-7
4.066635,782,-3,-37,-6,-2,-3,-1,0,0
4.066665,783,13,-23,0,0,-2,-1,-1,-4
4.076393,784,22,37,-2,0,3,-2,-6,-1
4.076404,785,-20,-4,9,2,4,1,-1,2
4.090169,786,-5,1,0,-1,1,1,-3,-5
4.090193,787,-15,57,4,-4,-4,-1,3,6
4.091552,788,5,-80,-10,-3,-5,-2,-3,-4
4.091568,789,-18,20,-4,-1,0,-1,-1,1
4.112939,790,8,6,8,0,-2,-2,-9,-3
4.112967,791,15,-4,-7,0,1,-1,11,1
4.114486,792,4,28,1,-5,-6,-4,-4,1
4.114498,793,15,-2,11,3,-2,-1,-4,-2
4.126481,794,-25,-3,-13,-6,0,-2,-1,-8
4.126511,795,4,-18,-12,-2,0,0,-10,0
4.137267,796,-4,21,17,-1,3,-1,2,0
4.137280,797,-27,-11,9,7,7,5,1,0
4.150590,798,-5,25,1,-5,-12,-6,-3,-3
4.150614,799,19,8,5,-1,-5,-1,0,1
4.152443,800,-9,26,-18,-6,-3,-1,-3,0
4.152505,801,21,-69,31,11,6,0,-2,-2
4.172570,802,-4,9,-7,0,3,0,0,-3
4.172594,803,-18,18,2,-1,0,-3,0,0
4.174807,804,-5,-32,-7,-2,-3,-3,-3,2
4.174835,805,19,20,-17,-6,-2,1,1,-4
4.195090,806,0,5,1,1,4,3,-4,-1
4.195111,807,23,-53,0,-1,-3,-3,5,-3
4.196413,808,-4,13,-4,-4,-5,-2,-3,1
4.196426,809,-16,-13,-14,-4,-3,-3,-3,-5
4.209990,810,17,-17,6,1,0,-1,-1,2
4.210006,811,-26,27,-9,0,7,4,-1,2
4.212117,812,6,9,13,2,3,2,-5,-2
4.212127,813,21,10,-7,-7,-11,-4,-6,-4
4.232608,814,22,-13,-8,-4,1,0,8,7
4.232630,815,-48,-20,-2,-2,-6,-6,-4,-11
4.234495,816,-7,13,6,1,1,-3,-2,-5
4.234507,817,8,35,3,0,11,0,-1,1
4.254998,818,22,-12,-9,-5,-11,-1,0,2
4.255020,819,-6,8,13,0,-7,-5,-6,-6
4.256535,820,-29,-14,-20,-2,-3,-1,-3,-4
4.256566,821,-26,-16,11,0,1,1,-3,6
4.268683,822,28,28,1,-1,3,-3,6,-7
4.268734,823,2,-62,-2,0,7,3,0,2
4.278615,824,4,43,-4,1,0,-2,-4,-1
4.278632,825,-8,12,6,-6,-11,-6,-1,-1
4.292812,826,-6,0,-9,1,1,-1,-3,5
4.292834,827,17,-8,-10,-4,-3,-1,-3,-4
4.294048,828,-33,-46,-15,-4,0,3,4,4
4.294163,829,-4,-2,3,1,1,0,-4,-15
4.315394,830,-28,-3,-3,-1,0,0,2,-2
4.315475,831,25,8,4,-3,-1,-1,2,-6
4.316557,832,17,-11,-1,2,3,1,0,9
4.316574,833,13,27,-11,-4,-3,-2,-2,2
4.330158,834,5,-12,1,1,0,-1,-6,2
4.330175,835,-22,30,1,3,7,4,0,2
4.331430,836,-2,4,10,-1,-6,-4,-1,-6
4.331444,837,24,-35,-24,-6,-7,-6,0,-2
4.352717,838,-5,27,16,3,-1,2,7,1
4.352735,839,-10,37,-2,-3,-3,-2,-3,-4
4.354136,840,10,1,-1,2,2,0,2,-2
4.354157,841,12,-57,-12,-8,-10,-5,-5,-7
4.375149,842,-23,4,-6,0,2,1,-1,-2
4.375166,843,8,40,-7,2,0,0,-1,2
4.376520,844,-15,-36,-16,-5,-2,-4,-2,2
4.376583,845,-21,25,17,7,4,3,5,2
4.389411,846,28,6,-8,-4,-1,-1,-8,-4
4.389428,847,0,-23,5,2,-1,1,3,0
4.396340,848,22,22,8,-1,2,0,2,1
4.397830,849,-22,21,-7,-1,0,0,-3,3
4.412647,850,-24,-53,5,-1,-2,-1,-13,-2
4.412669,851,-38,-21,4,2,3,0,7,-5
4.414514,852,14,15,-1,-8,-18,-7,-5,-5
4.414529,853,8,2,17,3,2,1,4,4
4.435161,854,-11,30,-5,-2,-4,-2,-4,-4
4.435185,855,14,-12,-5,0,3,-1,-2,2
4.436628,856,6,-11,-3,0,6,2,0,2
4.436645,857,3,-8,-4,-3,-4,-2,-2,-2
4.449512,858,12,39,-4,0,3,2,2,1
4.449530,859,0,-16,9,-1,1,1,-2,0
4.456435,860,-3,26,3,-1,-8,-3,-1,-2
4.456451,861,-7,-27,9,1,2,-1,-4,2
4.472522,862,9,0,-7,1,0,-2,4,0
4.472543,863,-3,-4,-11,-4,-4,-3,-4,-2
4.474454,864,1,-7,5,2,4,0,-3,-3
4.474469,865,3,39,-11,-2,1,0,0,-2
4.495563,866,-5,17,2,0,2,0,0,-4
4.495574,867,11,-39,9,0,-4,-2,-3,5
4.496431,868,-11,20,-7,-2,-8,-6,-1,-3
4.496436,869,4,-4,10,-1,0,2,10,-1
4.510340,870,19,-26,-1,-2,1,2,-1,-1
4.510351,871,-15,33,-5,-1,1,-2,-6,-4
4.516216,872,3,-50,-3,0,0,0,-4,-1
4.516237,873,0,11,-3,1,0,0,-1,1
4.532714,874,1,-12,7,-3,-5,-1,1,1
4.532736,875,0,19,5,-1,0,0,-3,0
4.534556,876,5,10,1,1,-2,-3,-2,-2
4.534568,877,-2,25,-19,-2,-1,0,-1,-1
4.555524,878,11,8,13,1,-6,-4,-4,-1
4.555540,879,-27,-42,-18,-5,-2,-2,0,0
4.556555,880,-42,-13,16,2,4,0,1,1
4.556574,881,26,3,6,2,4,-1,-7,-11
4.569499,882,-7,-26,-9,0,-1,-4,0,2
4.569538,883,31,51,-5,-2,-5,-3,2,1
4.576470,884,22,-19,0,1,6,1,-10,-1
4.576497,885,-37,-14,-8,-2,-3,-3,8,3
4.592668,886,6,-8,15,-1,1,0,4,-4
4.592687,887,11,1,-10,-2,-5,-4,-3,-1
4.594230,888,48,7,4,-1,-1,1,2,2
4.594235,889,3,38,-5,2,2,2,-7,3
4.614934,890,-21,-46,-29,-2,-2,-1,0,1
4.617132,891,9,-36,19,4,0,0,2,-4
4.617143,892,-17,14,-2,0,2,-1,-3,-1
4.617145,893,-6,8,3,-3,-3,-1,-1,-2
4.629588,894,-4,-2,-16,-4,-3,-1,3,3
4.629616,895,0,43,5,-1,0,0,-4,2
4.636163,896,21,-24,-1,-2,-3,-3,-4,-6
4.636181,897,-20,-21,2,-2,1,-2,-2,-4
4.652611,898,-10,23,8,1,-4,-2,-2,-2
4.652639,899,9,47,-18,-5,-1,-1,-11,-2
4.654220,900,-10,-65,-5,1,2,1,7,-4
4.654268,901,10,17,-4,-5,-6,-5,1,2
4.675191,902,-20,-8,4,0,0,0,3,-3
4.675220,903,-12,15,-2,3,2,2,0,-1
4.678136,904,-10,-9,-6,-2,1,1,-3,-5
4.678148,905,13,-10,-2,-1,-8,-4,-5,0
4.688860,906,-1,16,-6,0,-1,-1,-4,0
4.688882,907,9,-52,4,-2,-2,-5,1,-2
4.698954,908,-30,3,-7,-3,1,0,-1,2
4.698965,909,15,8,-10,-1,2,2,3,0
4.712445,910,26,-9,24,4,-1,-1,-4,-4
4.712466,911,-22,-16,-6,-4,-3,0,2,0
4.713856,912,22,12,-5,0,0,-1,1,0
4.713879,913,-3,-8,0,0,0,-1,-5,0
4.735124,914,-14,1,0,-2,2,0,-9,-2
4.735149,915,-15,6,-1,-2,-8,-3,7,-6
4.736908,916,1,25,-1,-3,-3,0,-3,-4
4.736918,917,-6,-26,9,0,0,-1,-4,4
4.748709,918,-1,22,-21,0,2,-1,-1,2
4.748731,919,8,-61,20,0,1,0,-5,3
4.758778,920,-15,33,-14,-3,-3,-1,5,-1
4.758789,921,6,5,9,1,-3,-1,0,-3
4.772436,922,3,-5,1,1,1,-2,-1,-3
4.772455,923,8,36,-14,-5,-4,-4,-3,2
4.774257,924,6,10,35,3,0,-2,-3,-3
4.774279,925,-50,-35,-4,0,3,1,-4,-7
4.795043,926,2,-18,8,-3,-1,0,1,-3
4.795064,927,-4,-4,-3,2,5,2,1,-4
4.797245,928,22,-1,-14,-7,-10,-4,-2,2
4.797255,929,7,33,13,3,0,-1,-2,-2
4.808901,930,-17,2,-4,0,0,0,0,0
4.808923,931,9,-6,6,0,0,1,7,4
4.818813,932,-9,3,-6,1,1,-2,-3,-3
4.818831,933,-5,35,9,-1,-2,-2,1,2
4.832489,934,4,-44,-15,-2,-1,-1,-2,-3
4.832507,935,14,9,4,1,2,-1,-8,-2
4.834069,936,-16,-10,6,1,-1,0,4,-4
4.834087,937,15,-14,-13,1,2,-1,-3,3
4.862977,938,3,30,11,-3,-5,-3,-2,3
4.863001,939,-11,27,-2,0,-7,-1,0,-9
4.864277,940,3,-26,1,-2,-4,-3,-6,-3
4.864294,941,5,-14,-12,-4,1,0,0,0
4.868862,942,-4,16,3,1,2,1,0,0
4.868893,943,-9,-9,-5,0,1,-1,0,2
4.877724,944,-22,11,0,2,2,2,-8,2
4.877747,945,27,2,2,1,1,1,8,0
4.892733,946,-19,8,-8,0,1,0,-3,-1
4.892756,947,11,15,-7,-4,-5,-3,-3,-4
4.894053,948,20,9,3,1,-3,0,3,1
4.894065,949,-14,11,5,-6,-5,-2,-2,-2
4.915090,950,-4,-17,-8,-1,-2,-2,-2,2
4.915111,951,-1,-1,14,3,2,0,0,-3
4.916706,952,-20,-15,-4,-1,4,1,1,-3
4.916716,953,42,23,-28,-1,1,0,-3,4
4.929271,954,-21,-43,40,-1,-3,-3,6,-7
4.929309,955,4,-16,6,-2,-7,-5,-8,-3
4.938241,956,2,64,-6,-4,-4,-3,0,2
4.938257,957,-41,-21,-28,-3,-2,1,-6,1
4.952645,958,26,15,-13,-3,1,-1,6,-1
4.952666,959,20,5,-10,0,4,4,3,-1
4.953933,960,-4,-31,16,5,2,-2,-2,-1
4.953944,961,-26,4,-4,-1,1,0,-2,1
4.975584,962,24,17,-6,-5,-9,-3,-6,-5
4.975610,963,1,-32,6,3,1,0,1,2
4.977752,964,-30,17,-10,-6,-4,-1,0,-4
4.977757,965,-8,-52,9,-1,2,0,-4,-13
4.989059,966,-2,23,19,8,6,3,2,6
4.989097,967,-6,22,6,1,0,-1,0,2
4.998975,968,2,-102,-20,-6,-1,-2,-10,-5
4.998985,969,36,48,6,-2,-15,-8,5,-5
5.013085,970,-4,2,-15,-5,-5,0,1,-1
5.013168,971,16,20,-6,-4,0,-1,-4,6
5.013957,972,-21,14,10,8,7,4,-1,2
5.013969,973,-18,-31,-5,-1,6,0,-3,-1
5.035297,974,1,-41,-5,-3,-4,-6,-6,-2
5.037218,975,12,12,9,-5,-12,-2,1,-5
5.037230,976,3,3,-10,-1,0,0,4,2
5.037234,977,11,55,16,5,-1,-2,-5,-2
5.048917,978,-7,0,4,-1,3,1,-6,-5
5.048958,979,-26,-23,-12,-3,3,1,6,-2
5.057930,980,16,38,15,-2,1,0,1,-2
5.057950,981,-48,-58,-21,3,-3,-1,1,4
5.072764,982,20,49,-17,-2,-5,-2,-3,4
5.072781,983,17,-9,9,-2,-6,-4,-4,-6
5.073955,984,-56,-63,-23,-8,-6,-3,-2,-11
5.073966,985,-6,29,15,2,6,1,4,5
5.094896,986,28,-80,-16,-1,-1,-3,-5,-4
5.094921,987,-61,-11,-9,-2,3,3,4,6
5.096919,988,32,25,5,0,0,1,-5,-5
5.096924,989,1,-31,4,-1,-4,-3,-12,3
5.118590,990,-9,107,-2,1,0,0,9,4
5.118602,991,12,-43,19,6,5,3,11,-3
5.119264,992,48,-69,-11,-8,-11,-9,-4,2
5.119326,993,-8,-31,10,-3,0,1,0,-1
5.133043,994,3,55,-17,-1,1,1,0,3
5.133053,995,-5,4,4,2,7,-1,-9,-2
5.139473,996,-28,33,3,1,-3,-2,1,3
5.139501,997,31,35,-12,-7,-5,-1,5,4
5.155066,998,1,-47,24,2,-1,-1,-5,-3
5.155087,999,-33,-8,-6,-2,5,2,-2,3
5.157298,1000,-5,14,-2,3,3,-1,-2,-13
5.157349,1001,24,-5,-21,-10,-17,-10,-13,1
5.178385,1002,-32,25,4,-3,-4,0,14,2
5.178397,1003,4,7,-12,0,-3,-1,-1,-7
5.179010,1004,17,28,-4,1,5,3,4,15
5.179020,1005,-15,3,13,3,6,5,0,2
5.193484,1006,-36,-28,1,1,1,-3,-11,-11
5.193496,1007,44,18,5,-1,2,-1,-5,-2
5.194442,1008,9,-68,-19,2,4,0,-9,-2
5.194451,1009,0,45,45,0,-13,-8,6,-11
5.215060,1010,25,3,0,-3,-6,0,4,3
5.215082,1011,-1,-23,-31,-2,2,-2,-11,7
5.216429,1012,-34,33,2,2,3,1,10,3
5.216441,1013,48,5,16,2,-4,-4,-4,-12
5.237459,1014,-9,-15,-4,-2,0,0,-2,3
5.237475,1015,10,29,-11,-2,-2,-2,-5,-2
5.239308,1016,-4,-8,18,4,2,0,2,3
5.239326,1017,-60,-49,-1,5,7,4,7,9
5.252802,1018,48,-39,-14,-10,-7,-5,-7,-15
5.255037,1019,-13,25,3,-4,-4,-5,-14,-5
5.255050,1020,-1,90,-7,0,-5,-1,1,5
5.255052,1021,3,-31,12,3,10,5,2,-3
5.275257,1022,2,-43,19,6,8,1,-4,-6
5.275280,1023,-15,9,-12,-6,-16,-7,3,1
5.276928,1024,75,25,-7,-3,-7,-3,-4,-2
5.276942,1025,-49,-15,-32,-7,0,1,4,-2
5.297396,1026,-34,-7,7,1,6,3,-12,-4
5.297413,1027,-1,0,3,0,-1,0,9,-4
5.299005,1028,-20,1,12,0,-2,-3,-5,-12
5.299017,1029,32,-5,-13,1,5,0,-5,6
5.311713,1030,6,-52,3,-1,-5,-5,-8,4
5.311728,1031,-20,20,13,1,-2,-3,8,0
5.318655,1032,-23,26,-3,0,-3,0,2,-2
5.318672,1033,-6,-21,-3,1,5,2,-5,-7
5.335326,1034,-2,31,-6,-3,1,-1,2,-3
5.335501,1035,21,-8,-4,1,-5,-1,-8,6
5.337739,1036,13,18,18,2,4,1,7,0
5.337750,1037,2,39,-13,-4,-6,-6,3,4
5.357630,1038,-36,23,26,1,1,0,-6,-5
5.357652,1039,-17,-47,-9,-8,-5,-2,-14,-3
5.359325,1040,0,-22,11,1,-2,-2,1,1
5.359364,1041,17,34,-11,-3,1,0,8,-1
5.371882,1042,-6,-20,-15,-3,-4,-3,5,3
5.371898,1043,-1,19,15,4,6,0,-8,-4
5.378826,1044,-12,0,-6,-1,3,0,-4,2
5.378842,1045,6,0,0,-2,-4,-4,-7,0
5.394949,1046,22,13,-2,-1,-1,0,1,6
5.394967,1047,-41,-30,-1,-2,1,-4,1,-3
5.396511,1048,-6,-28,-16,-5,-8,-2,-6,-6
5.396528,1049,30,21,5,-1,-2,1,1,-3
5.420162,1050,-16,2,-7,3,-1,-1,4,-1
5.420173,1051,16,-27,8,-1,-3,-1,7,4
5.420175,1052,26,-18,-6,-3,0,-3,-1,-4
5.420176,1053,-7,13,6,-1,2,1,-5,-8
5.431948,1054,-25,13,-4,0,-1,1,0,2
5.431969,1055,55,19,6,3,4,1,2,-1
5.438703,1056,13,-2,-1,-3,-8,-4,-2,1
5.438964,1057,-36,-31,-6,-3,-5,-1,1,-6
5.455125,1058,13,-10,-6,-3,-1,-2,-1,0
5.455148,1059,-9,10,-18,-4,-2,-1,1,-9
5.456664,1060,12,-14,3,-2,4,2,-2,5
5.456713,1061,-2,12,3,3,3,0,-7,4
5.477733,1062,15,-10,-13,2,1,-1,3,-1
5.477762,1063,-9,48,-7,-1,-2,-1,0,-2
5.479333,1064,-22,-43,-5,-1,2,-3,-6,-1
5.479345,1065,7,-3,9,-6,-7,-3,0,-4
5.492320,1066,6,40,2,-1,1,-2,4,-3
5.492352,1067,24,-22,-5,0,1,2,-1,12
5.499057,1068,-37,54,-3,-3,-1,-2,-5,-11
5.499085,1069,25,-69,10,5,4,2,7,-3
5.515269,1070,29,32,-3,-2,-3,-1,-10,-6
5.515293,1071,-17,-39,-8,-2,-1,-1,1,2
5.518499,1072,-3,-1,-8,-8,-4,-4,-7,-6
5.518513,1073,-23,7,-15,-5,-4,-4,-3,-3
5.537505,1074,-18,-7,3,1,-1,0,-1,-3
5.537530,1075,31,35,12,2,6,0,-1,4
5.539242,1076,-29,-9,-4,4,0,4,2,-1
5.539253,1077,61,-23,-3,-3,-7,-5,-14,-2
5.552130,1078,-41,16,-9,-3,-3,-1,6,2
5.552161,1079,-20,34,6,-3,-3,0,-7,-3
5.558993,1080,-16,-87,4,3,6,7,20,11
5.559021,1081,-5,7,15,2,4,-4,-14,-9
5.575264,1082,37,54,4,-2,-6,-2,-5,-2
5.575283,1083,-17,6,7,3,3,0,-2,-5
5.577182,1084,-16,-23,-19,-2,3,1,-1,3
5.577192,1085,33,29,1,-2,-1,1,3,6
5.597567,1086,-14,-33,-4,-2,-4,0,-1,-1
5.597587,1087,1,39,17,0,-4,-4,0,-4
5.599031,1088,11,24,1,3,2,1,-2,4
5.599036,1089,-37,12,-17,-1,7,4,2,-9
5.611325,1090,9,-4,2,0,-1,-1,-2,10
5.611354,1091,-41,-36,-29,-7,-12,-4,-7,-12
5.620647,1092,48,-6,17,-4,-7,-6,3,-7
5.620658,1093,-6,28,-17,-2,3,1,-4,1
5.635063,1094,-19,5,29,3,4,0,5,-6
5.635081,1095,-1,-29,-9,4,7,2,-3,-3
5.636644,1096,-11,25,0,2,0,0,0,6
5.636659,1097,46,-11,-5,-8,-9,-6,-4,-7
5.657707,1098,-13,-49,-8,-3,0,-1,-3,-1
5.657729,1099,16,14,8,-2,-3,1,2,2
5.659725,1100,-3,-17,-2,1,3,-4,-8,1
5.659802,1101,-7,-9,9,6,2,5,8,7
5.671543,1102,29,-28,-6,-2,4,1,-6,-5
5.671564,1103,5,17,-4,-2,-7,-6,-10,-1
5.681799,1104,-33,-8,16,1,-7,-3,8,2
5.681814,1105,-7,26,-16,-2,2,1,-3,-2
5.695022,1106,37,-7,-5,2,2,-2,-4,8
5.695035,1107,-35,-65,-11,-4,-4,0,5,-1
5.696388,1108,5,47,20,-2,-9,-6,-8,-2
5.696396,1109,16,-17,-10,-3,-4,-3,2,-4
5.717592,1110,-53,44,1,5,5,2,3,3
5.717609,1111,70,-41,13,-2,-4,-4,-2,-3
5.719034,1112,-15,41,-5,-4,-1,-2,-3,-3
5.719044,1113,-26,5,-12,-1,2,0,3,7
5.731062,1114,-9,41,5,0,3,0,2,-2
5.731084,1115,5,-49,11,1,0,-1,-2,-2
5.739992,1116,-17,16,-3,0,3,0,3,-5
5.740005,1117,-9,3,0,0,-5,-1,3,1
5.755470,1118,22,-62,-13,-7,-5,-3,-7,-3
5.755488,1119,-17,43,-9,-2,0,-2,3,-2
5.756545,1120,-2,-14,-1,-1,1,3,-4,12
5.756556,1121,0,-9,14,1,0,0,-2,-8
5.777908,1122,-2,4,-6,-6,-7,-3,1,3
5.777935,1123,6,-47,0,2,6,3,0,1
5.780120,1124,0,17,-5,0,-5,-1,-2,-3
5.780132,1125,-33,18,17,0,-3,-5,0,-1
5.791483,1126,13,17,-16,0,-4,-4,-5,-4
5.791504,1127,-4,-44,-2,-3,-3,-2,-3,-4
5.801190,1128,10,-7,-7,0,4,3,-2,-1
5.801203,1129,-2,11,-3,-3,-4,-3,-5,0
5.815058,1130,-3,-14,22,1,1,2,-4,-4
5.815068,1131,-6,25,-4,0,-2,-2,8,11
5.816494,1132,18,-33,-5,-3,-4,-3,-7,-7
5.816505,1133,37,0,-1,3,5,3,6,4
5.837461,1134,-26,-25,-17,-4,1,-1,-2,0
5.837482,1135,16,-19,-6,0,0,1,0,-2
5.838941,1136,-18,7,14,-3,-6,-5,-3,0
5.838948,1137,7,8,-10,-1,-1,0,-3,4
5.851299,1138,13,22,-2,-4,-5,-3,0,-10
5.851316,1139,15,49,-3,2,4,2,0,2
5.860914,1140,21,-25,-2,-2,-4,-4,-5,-6
5.860927,1141,-25,-14,15,5,4,1,4,2
5.875367,1142,-8,-50,5,3,3,0,4,5
5.875378,1143,-1,98,-1,-6,-7,-2,-2,-3
5.876525,1144,18,-30,-14,-2,0,0,-4,-5
5.876542,1145,-25,-21,2,-1,-2,1,3,-2
5.897682,1146,-7,-7,-1,1,-1,0,-5,-3
5.897701,1147,6,9,-2,1,3,1,4,2
5.898956,1148,21,18,-7,2,4,0,-4,6
5.898968,1149,3,9,-8,-6,-8,-8,-7,-7
5.911323,1150,-27,16,13,-2,-2,1,5,0
5.911345,1151,-10,-35,3,3,2,0,-4,1
5.920753,1152,-14,21,-11,-5,-7,-1,3,-3
5.920764,1153,6,-43,3,-2,5,-1,-6,-5
5.936599,1154,25,-2,-7,-3,-7,-5,-2,3
5.936610,1155,-13,1,1,0,-2,-1,0,3
5.936613,1156,0,9,9,2,6,3,2,3
5.936614,1157,-4,-3,-1,-1,-3,-3,-4,-1
5.957853,1158,-4,49,-5,-3,-4,0,4,3
5.959757,1159,-8,-47,-5,-4,0,-3,-9,-8
5.959767,1160,-10,-32,7,3,0,0,6,2
5.959769,1161,4,14,-5,2,2,4,6,3
5.971766,1162,24,-1,-11,-4,-1,-2,-5,-4
5.971788,1163,-14,46,-7,1,1,0,3,0
5.981968,1164,21,-7,15,-8,-9,-3,-9,-4
5.981978,1165,-26,8,2,4,3,1,-3,5
5.996910,1166,14,-40,-2,-3,-6,-3,0,-6
5.996921,1167,11,28,-9,-1,2,0,-2,-1
5.996923,1168,-15,-23,-17,-2,3,0,-3,-8
5.996925,1169,15,20,1,1,1,-2,1,2
6.017675,1170,-26,-11,4,-4,-8,-3,1,1
6.019806,1171,-19,-32,-10,0,-5,-3,-3,-3
6.019817,1172,59,87,35,1,0,-2,-2,-5
6.019819,1173,-6,-65,-3,-1,-1,-2,-10,1
6.031143,1174,-16,2,-6,2,9,2,9,-4
6.031162,1175,-9,-15,-1,-2,-6,-4,-3,0
6.040199,1176,2,1,-14,-1,-2,-1,1,1
6.040209,1177,5,57,-6,-2,0,-1,-6,-1
6.055039,1178,-8,-12,19,6,2,-1,-7,0
6.055061,1179,-1,7,1,-4,-2,-1,-1,-1
6.057234,1180,-20,-15,-9,0,4,3,0,1
6.057250,1181,-3,11,7,-1,-1,-1,3,0
6.077997,1182,10,-6,-17,-5,-10,-4,-1,4
6.078026,1183,-6,22,23,2,-2,-4,0,-5
6.079442,1184,0,6,-9,1,1,-1,-4,0
6.079449,1185,19,-14,1,-1,4,2,1,1
6.102784,1186,8,5,-8,0,1,0,-1,-1
6.102799,1187,-12,57,10,-1,1,1,1,0
6.102804,1188,4,-44,4,1,3,-1,-3,-5
6.102807,1189,-46,-18,-9,-2,0,0,0,-1
6.122454,1190,-1,12,0,-5,-12,-5,4,1
6.122475,1191,25,-9,-19,-5,0,-2,-6,-5
6.124108,1192,-7,8,7,0,-8,-1,1,8
6.124117,1193,12,12,10,-1,0,2,-2,1
6.137796,1194,11,0,-5,-2,5,0,-3,0
6.139934,1195,-20,-24,-10,-2,1,-1,1,-6
6.139946,1196,5,-30,-3,0,0,-1,0,-8
6.139948,1197,1,-1,-6,-1,-1,-3,-7,-4
6.160280,1198,-5,21,2,1,-4,1,-2,0
6.160311,1199,-14,16,9,-2,-3,-1,3,2
6.162744,1200,7,12,1,-2,-4,-3,-2,-1
6.162800,1201,-17,-5,-12,-2,-1,-3,0,-2
6.175376,1202,-15,3,-6,-2,-2,-2,-4,-4
6.175405,1203,14,-18,9,2,3,2,0,0
6.177653,1204,-20,-10,-9,-2,0,-1,0,1
6.177668,1205,-7,-23,0,-3,-5,-2,2,-2
6.197928,1206,34,16,5,3,3,2,1,5
6.198105,1207,-10,-24,-8,-3,-6,-2,-2,-6
6.199071,1208,-23,-8,-2,-2,-1,0,7,-3
6.199085,1209,17,29,-28,-4,-3,-3,-2,9
6.219990,1210,1,-37,45,9,10,2,-6,-2
6.221614,1211,32,-4,3,-1,-3,-3,-2,-3
6.221628,1212,-19,26,-4,-1,0,0,2,2
6.221629,1213,-6,-27,2,-2,0,-2,0,-6
6.234943,1214,4,11,-17,-3,-1,-2,-9,-4
6.234964,1215,-57,3,3,3,5,2,0,6
6.241178,1216,34,-9,-1,0,-2,0,0,-1
6.241193,1217,-9,26,1,-5,-9,-7,-9,-15
6.257718,1218,24,5,-10,0,1,2,-1,0
6.257741,1219,-18,-60,4,-2,-6,-4,0,-6
6.258994,1220,16,-9,-17,-3,-3,-2,6,12
6.259070,1221,4,25,15,3,0,1,-1,3
6.280419,1222,-25,13,-1,1,1,-1,2,0
6.280459,1223,23,11,-9,1,5,0,-3,3
6.282469,1224,-5,36,1,-3,-2,-4,-7,-6
6.282474,1225,-14,-29,5,1,0,3,3,-2
6.294261,1226,-19,-27,-3,-4,1,-1,-5,-6
6.294276,1227,20,35,-3,-2,0,-1,1,5
6.301755,1228,-32,-30,-8,0,-3,-4,-8,-10
6.301798,1229,39,-4,-9,-6,-6,-4,-7,-4
6.317466,1230,-4,-13,0,0,1,-1,5,2
6.317483,1231,-8,13,-9,-3,0,2,2,-6
6.319184,1232,17,53,26,8,6,2,-1,1
6.320201,1233,-30,0,-13,-2,2,-2,-4,0
6.340285,1234,5,17,-1,-1,-9,-4,-4,0
6.340305,1235,12,-67,-8,-3,-7,-4,-2,1
6.342265,1236,-14,10,-8,-3,-1,0,-1,0
6.342270,1237,-30,-28,7,-3,-3,-3,-3,-4
6.354790,1238,28,-6,18,3,1,0,3,1
6.354811,1239,-13,-11,-8,-2,-3,1,6,-7
6.361151,1240,2,-10,-4,-2,-1,-2,-4,0
6.361167,1241,16,2,7,1,1,0,4,0
6.377524,1242,-19,26,-14,-1,1,-1,-5,0
6.377541,1243,8,-16,4,0,1,-1,-5,2
6.378932,1244,-4,-2,2,1,0,-1,2,1
6.378944,1245,5,5,10,1,1,1,-1,0
6.400006,1246,-26,-2,-7,-2,0,0,2,-3
6.400025,1247,48,4,0,1,-5,-5,-2,0
6.402013,1248,-1,-7,12,-3,3,1,-3,-2
6.402029,1249,8,7,0,-2,-7,-5,1,2
6.414616,1250,-10,24,-1,-3,-1,0,3,2
6.414638,1251,-26,-49,26,1,5,1,-5,-7
6.421104,1252,7,-15,-36,-5,-2,-2,-3,3
6.421123,1253,18,27,48,8,4,-2,-2,-5
6.437516,1254,-17,28,-6,-1,3,3,-2,-5
6.437534,1255,24,12,-11,-1,0,-3,-12,8
6.439039,1256,-13,8,-13,-6,-7,-3,14,-4
6.439056,1257,4,-24,-12,-3,-3,0,-6,-1
6.459981,1258,4,-20,-6,-2,0,-1,-1,3
6.459998,1259,-31,56,5,0,3,-1,-3,-5
6.461563,1260,0,-59,-3,-1,0,-2,-9,-3
6.461579,1261,-10,0,-20,-4,-1,2,5,1
6.474440,1262,21,-4,14,-2,-3,-2,-1,-3
6.475279,1263,7,30,-11,1,1,0,-1,2
6.481243,1264,-19,-11,8,-2,-1,-2,-3,-2
6.481262,1265,0,-17,2,2,4,2,4,-4
6.497442,1266,38,-27,-16,-4,-14,-9,-17,-5
6.497528,1267,0,35,11,1,-1,1,12,11
6.499009,1268,-26,56,7,-1,1,0,1,-8
6.499027,1269,3,-44,0,3,2,-1,-5,0
6.519074,1270,-14,10,-15,-5,0,-1,1,-6
6.519093,1271,-9,11,4,-1,1,0,5,-3
6.527592,1272,-12,-15,-17,2,-1,2,-1,7
6.527609,1273,25,66,-1,-6,-1,-2,-2,-4
6.534541,1274,-10,-34,-1,0,-1,0,-2,-2
6.534566,1275,-12,-15,-8,-2,-4,-2,-4,-2
6.541924,1276,-24,20,15,1,1,-1,-2,-2
6.541937,1277,19,-8,-5,1,0,-1,-3,-6
6.557574,1278,-16,-31,-3,-3,-5,-5,-1,-2
6.557587,1279,2,17,13,-1,0,-1,-2,-4
6.559144,1280,17,21,10,-1,0,0,-5,2
6.559169,1281,-10,2,-5,4,-1,0,4,5
6.580109,1282,-10,15,-2,-3,-3,0,-3,-7
6.580126,1283,9,1,-20,-3,-5,-1,2,2
6.582376,1284,9,-67,17,4,3,-2,-8,-1
6.582388,1285,-2,10,-3,-6,-6,-1,8,0
6.593749,1286,1,-7,-6,1,5,-2,-2,-1
6.593765,1287,-41,-2,-9,-3,-1,1,3,-1
6.602792,1288,55,13,0,-3,-4,-5,-7,-1
6.602816,1289,-29,-11,-8,0,1,1,0,-2
6.617600,1290,-26,-1,7,3,10,5,3,6
6.617619,1291,25,38,7,-2,-4,-6,-7,0
6.619113,1292,-6,-86,-11,-5,-10,-2,2,2
6.619140,1293,1,39,14,0,6,-1,-5,-3
6.639965,1294,-13,38,10,4,2,1,3,-1
6.639983,1295,-6,-12,-13,-1,1,4,6,-2
6.641530,1296,17,46,-20,-3,1,-1,-1,-4
6.641571,1297,-19,-38,21,3,0,-2,0,2
6.653818,1298,8,-26,1,0,1,1,-1,2
6.653838,1299,27,-1,-6,-3,-5,-6,-5,-1
6.662577,1300,43,-2,-13,-3,-3,-1,4,-2
6.662631,1301,-59,24,-6,-6,-5,0,-4,-5
6.677446,1302,-20,30,13,4,4,1,0,2
6.677461,1303,-5,-32,-8,0,-3,-2,-2,0
6.679029,1304,9,7,14,-4,-2,-1,-3,-4
6.679147,1305,26,20,-33,-2,5,0,-2,7
6.699948,1306,19,16,13,-1,-3,2,9,-8
6.699967,1307,-27,-77,14,0,-8,-5,-7,-2
6.701609,1308,18,29,-1,2,2,0,0,3
6.701629,1309,-7,-19,3,0,-1,-2,-3,-2
6.713879,1310,14,54,-29,-7,1,3,-4,7
6.713906,1311,-57,-27,13,0,1,-1,7,2
6.722959,1312,9,2,7,3,1,0,-1,-4
6.722976,1313,13,24,-8,-4,-3,-3,0,2
6.737881,1314,23,-51,-8,-2,-6,-7,-3,-5
6.737894,1315,-10,26,-2,2,8,4,-2,-1
6.739043,1316,-26,19,10,0,0,0,0,8
6.739073,1317,-19,11,-7,-3,0,1,2,-3
6.759983,1318,-2,4,5,-1,-1,-3,0,5
6.759999,1319,8,-22,-5,4,4,1,-3,-7
6.761473,1320,-10,65,8,-4,-5,-2,-2,-10
6.761526,1321,79,-66,-6,-4,-12,-6,-5,-3
6.773549,1322,-25,-20,-1,-3,-2,-1,-4,1
6.773565,1323,10,-21,-8,-4,-2,5,-3,-3
6.783781,1324,-30,25,2,6,4,-7,12,5
6.783798,1325,-25,-13,6,2,1,3,-4,3
6.804920,1326,41,3,-2,-2,-1,-2,1,-6
6.804936,1327,8,28,-10,-4,-1,-1,-1,-1
6.806661,1328,-1,-42,-10,-1,0,2,-5,-9
6.806677,1329,-24,7,1,1,0,-3,0,1
6.819972,1330,-7,-20,10,-1,-1,0,-1,12
6.819988,1331,31,100,-12,0,5,0,-2,-7
6.821478,1332,-50,-61,4,-1,-6,-1,0,3
6.821500,1333,-9,7,-5,0,-2,-2,-2,-7
6.833882,1334,-11,-13,-5,-2,1,2,-5,-4
6.833910,1335,47,14,-1,-2,2,-1,2,-6
6.844310,1336,-25,-13,-2,-1,-3,-1,2,5
6.844320,1337,15,3,6,0,0,1,0,-1
6.859159,1338,-32,5,-7,-1,-4,-3,-1,6
6.859175,1339,-12,-23,10,-1,-1,-1,-3,1
6.859180,1340,16,6,-4,2,5,3,-5,-2
6.859182,1341,-29,7,14,-2,-2,-1,4,0
6.880176,1342,19,-53,-2,2,-8,-6,-2,-7
6.880200,1343,54,-16,17,-3,-1,-4,-7,-12
6.881973,1344,4,30,-11,0,2,5,4,3
6.881982,1345,16,-38,-17,-4,-5,-4,-3,-4
6.893994,1346,27,8,-6,0,2,0,0,0
6.894022,1347,-75,-19,-5,-3,-3,-2,-2,7
6.904214,1348,14,47,5,1,4,0,-3,-6
6.904227,1349,-14,-36,-11,-1,0,-2,-5,4
6.919600,1350,-22,10,2,-2,-5,-3,-4,-3
6.919613,1351,46,-8,1,-1,-7,-1,12,-1
6.919615,1352,-2,12,-6,-1,-1,0,-7,-1
6.919617,1353,-7,-16,-2,0,3,1,0,-7
6.940760,1354,10,-44,4,-2,-3,-4,-7,2
6.940788,1355,-26,52,-1,0,-6,-1,-3,3
6.941961,1356,-5,-55,-23,-12,-9,-6,0,-6
6.941966,1357,37,22,-3,1,0,0,-3,-6
6.953705,1358,-8,9,7,2,5,3,3,-3
6.953726,1359,-17,-11,7,2,2,1,-2,2
6.963738,1360,-1,1,6,0,-2,-2,-3,-7
6.963754,1361,-10,45,-10,0,2,0,0,11
6.977636,1362,2,-44,0,3,5,0,1,-13
6.977660,1363,0,-37,-16,-4,1,-1,0,2
6.979191,1364,17,57,-12,2,2,-1,-9,-6
6.979207,1365,-1,-81,32,-4,-7,-3,8,1
7.000279,1366,-16,21,2,1,2,2,0,4
7.000304,1367,9,62,0,2,4,1,-6,3
7.002399,1368,-9,-63,-4,-3,-2,1,6,0
7.002414,1369,0,-11,-14,-3,-1,-2,-6,-4
7.022662,1370,-8,10,-8,-1,-1,-2,2,-1
7.022684,1371,-14,-13,9,2,0,0,1,2
7.024552,1372,3,35,7,1,3,1,-5,3
7.024563,1373,16,11,7,1,-2,-2,2,-1
7.037712,1374,-13,-20,-5,-5,-5,-5,-6,-9
7.037785,1375,-4,-9,-9,-3,-9,-6,-5,-2
7.039233,1376,-5,-2,21,3,3,1,2,7
7.039248,1377,-4,29,-17,-3,-1,0,-3,5
7.060862,1378,7,-24,1,1,0,-1,-2,-5
7.060886,1379,0,18,0,-1,-2,-3,0,-1
7.063105,1380,-3,-18,-2,0,4,3,-11,-9
7.063116,1381,-35,3,-3,-2,-6,1,11,1
7.082663,1382,66,8,8,5,1,-1,-3,-6
7.082685,1383,17,-24,-17,-3,-1,-2,-4,-5
7.084476,1384,-9,-9,8,-2,-4,-4,0,0
7.084489,1385,0,2,-6,0,4,-1,-7,-1
7.096982,1386,-36,15,-11,-4,-1,2,3,1
7.097012,1387,-7,-34,4,2,4,2,2,4
7.103652,1388,26,42,-3,-6,-6,-8,-7,-10
7.103675,1389,5,22,15,2,-4,0,3,0
7.120103,1390,3,21,0,0,0,0,2,4
7.120120,1391,-8,13,-9,-5,-9,-5,-9,-3
7.122077,1392,-27,-74,-3,-2,2,1,2,-7
7.122089,1393,-1,14,-8,-4,-3,-2,0,2
7.142524,1394,2,4,7,-2,2,2,-1,0
7.142547,1395,-11,29,23,9,9,4,7,3
7.144717,1396,-25,-22,-5,0,-7,-2,4,3
7.144729,1397,53,-23,2,0,-1,-2,-10,-9
7.156986,1398,-34,14,-35,-8,-3,-1,3,-1
7.157007,1399,17,-52,-2,-3,-3,-2,-6,0
7.163773,1400,1,33,-12,-2,0,-1,2,-2
7.163861,1401,13,6,46,12,12,5,1,5
7.179931,1402,-17,8,5,-4,-7,-3,0,1
7.179953,1403,8,5,0,-5,-5,-4,-6,-10
7.181638,1404,-6,10,-26,-6,-2,-1,-2,10
7.181661,1405,-2,-35,32,3,-1,-3,3,-4
7.202587,1406,12,29,-15,2,3,3,5,5
7.202603,1407,-25,-28,-15,2,2,1,-1,-4
7.204052,1408,14,-68,6,-3,-4,-4,-5,-3
7.204065,1409,-17,33,-1,-12,-8,-2,-8,-2
7.216800,1410,1,-18,7,-4,-4,0,1,2
7.216823,1411,-1,22,1,10,6,4,4,-1
7.223612,1412,-6,-22,19,2,-1,-1,1,11
7.223630,1413,-37,-6,-20,11,7,6,5,3
7.239932,1414,68,33,30,-4,-3,-8,-9,-10
7.239949,1415,-1,4,-6,-5,-4,-3,-2,-3
7.241505,1416,7,-29,-3,-3,2,-2,-5,-7
7.241523,1417,-12,25,-27,-1,-2,-3,3,-2
7.262585,1418,-32,-29,3,2,-1,2,6,1
7.262611,1419,-9,-2,0,0,8,2,-2,1
7.264082,1420,22,-5,7,-2,-4,-3,-9,-4
7.264100,1421,8,-16,1,-4,-6,-4,6,2
7.276754,1422,-19,-1,-24,-2,-3,0,-4,-5
7.276770,1423,34,1,18,-12,-5,-3,0,0
7.283489,1424,-50,4,3,8,2,4,1,-2
7.283503,1425,7,25,-1,3,5,1,-10,-3
7.300152,1426,-9,-6,7,2,2,-3,-7,-6
7.300194,1427,1,6,1,-1,-3,-2,5,4
7.301592,1428,16,32,-1,-2,1,3,4,0
7.301615,1429,-6,5,-4,0,-3,-2,-6,-5
7.322792,1430,2,-30,1,0,-3,-1,-1,0
7.324014,1431,-10,-19,-5,-1,1,1,0,1
7.324102,1432,16,37,10,2,-1,0,1,-4
7.324114,1433,-22,-27,2,2,2,0,-4,0
7.336083,1434,20,3,-24,-15,-8,-5,-5,-3
7.336100,1435,4,6,-2,4,-2,0,-8,0
7.345523,1436,-57,22,27,12,0,1,16,1
7.345536,1437,74,-22,-13,-14,-6,-5,-10,-9
7.360466,1438,-13,30,-10,6,4,0,-9,1
7.360490,1439,-7,-34,-4,-4,-1,-2,0,-3
7.362273,1440,-10,40,-10,-4,4,1,5,6
7.362286,1441,1,13,-5,6,5,1,0,6
7.382634,1442,-8,28,7,-3,-2,1,2,-5
7.382657,1443,-5,-26,0,-4,-4,-3,-6,-6
7.384132,1444,-2,9,-15,-1,-1,-1,-2,-2
7.384152,1445,-7,7,-14,-4,-3,-2,2,1
7.396196,1446,14,-9,7,8,7,3,-1,-2
7.396215,1447,3,35,-11,-2,-3,-1,-1,6
7.405379,1448,19,-4,-3,-8,-8,-6,0,-3
7.405394,1449,-11,-6,1,0,-3,0,4,3
7.419985,1450,-8,-19,17,7,2,0,1,9
7.420005,1451,-15,41,1,-3,-3,-4,-4,-2
7.421526,1452,48,-76,-17,-8,-4,-4,-7,-5
7.421542,1453,-7,14,-5,-1,2,1,-2,-2
7.442450,1454,-12,6,4,1,-1,-1,3,2
7.443443,1455,18,-9,-3,0,1,2,2,-1
7.444004,1456,-4,-35,-2,-1,-1,-2,-3,0
7.444055,1457,-3,10,-4,-3,-2,-3,-5,-10
7.456217,1458,-24,9,-13,-7,-1,0,-2,-4
7.456239,1459,-10,-62,2,2,6,1,-12,2
7.465126,1460,39,43,10,-2,-9,-2,7,-3
7.465137,1461,-25,-26,-3,-6,-7,-7,-7,-5
7.480090,1462,11,-10,-8,-3,-5,-4,-4,-2
7.480165,1463,-2,36,8,1,7,3,1,0
7.481601,1464,-16,-8,-7,4,-2,-4,-5,-3
7.481702,1465,-4,27,7,-6,2,3,2,10
7.502951,1466,0,26,5,3,-2,-6,-3,-3
7.502967,1467,-16,-6,-3,-1,-8,-5,3,0
7.504688,1468,23,23,1,3,8,0,-4,-1
7.504699,1469,-19,9,0,-3,-1,0,5,-4
7.516147,1470,20,-29,-11,4,8,4,2,8
7.516169,1471,8,-1,10,5,-4,-1,6,-7
7.525664,1472,-15,38,12,2,-4,-1,-3,3
7.525677,1473,17,-38,-8,-10,-6,-8,-13,-4
7.540099,1474,-4,38,11,-5,0,2,1,1
7.540120,1475,-11,50,-6,3,6,2,4,2
7.541644,1476,-17,-62,-10,-7,-11,-5,-6,2
7.541669,1477,13,5,2,4,-1,0,3,2
7.562804,1478,-7,-22,-13,-5,-1,-4,-4,-4
7.562854,1479,15,26,3,-4,-4,-2,0,1
7.564241,1480,5,-8,-8,-5,0,-2,-4,-5
7.564253,1481,-8,16,6,-4,-4,-3,-6,4
7.576174,1482,2,-13,5,1,-2,-3,9,-3
7.576198,1483,-4,49,3,7,5,1,0,1
7.585298,1484,-24,-90,5,0,0,1,-4,-5
7.585312,1485,2,39,3,-2,-3,-1,1,-1
7.599968,1486,8,-20,-20,-11,-7,-2,-14,-8
7.599990,1487,-20,-31,-2,-1,-1,-2,2,-8
7.601569,1488,29,86,-2,8,10,5,5,6
7.601586,1489,-20,-75,3,-1,9,2,1,-4
7.622578,1490,9,7,-9,-6,-9,-6,-3,-3
7.622598,1491,-20,-6,-3,1,-5,0,1,3
7.624046,1492,-1,21,-8,0,0,-1,-1,3
7.624059,1493,16,14,-4,0,8,1,-8,-8
7.636590,1494,8,-49,23,12,7,5,15,0
7.636605,1495,-32,-56,-7,-7,-13,-8,-7,-4
7.644994,1496,41,6,-10,-10,-5,-3,-2,-1
7.645009,1497,-8,17,19,1,1,0,-1,0
7.659981,1498,-12,17,-22,1,7,1,-1,1
7.660002,1499,3,-24,1,-5,-2,-1,-1,3
7.661392,1500,-7,-36,25,4,-2,0,-6,0
7.661441,1501,2,5,-1,4,6,2,13,-7
7.682710,1502,-18,7,-2,-11,-4,-2,-8,-3
7.682730,1503,-14,-20,-9,8,3,-1,-1,-5
7.684194,1504,-19,36,-7,4,6,2,1,3
7.684252,1505,16,-13,-6,1,-10,-3,0,4
7.696124,1506,-16,-13,5,-5,-2,-2,-3,-3
7.696145,1507,35,22,2,-3,5,1,-7,-4
7.705066,1508,-24,48,-25,-4,-2,-1,0,2
7.705087,1509,7,-88,60,5,-9,-4,-3,-5
7.720081,1510,20,39,-4,0,-3,0,1,2
7.720096,1511,-41,-40,-17,-8,-1,0,-4,-3
7.721439,1512,31,-24,-22,4,6,2,3,-3
7.721457,1513,-5,40,-19,2,6,0,0,7
7.742466,1514,-17,20,27,-8,-25,-10,0,1
7.742488,1515,29,1,15,-1,4,2,2,-6
7.744045,1516,-12,-49,8,3,1,-1,1,-3
7.744064,1517,9,18,-15,-5,-2,-2,-5,-2
7.756400,1518,-2,-73,-9,3,15,5,-1,5
7.757561,1519,29,67,5,2,-8,-4,-3,0
7.765039,1520,-24,63,28,-7,-13,-5,-6,-10
7.765066,1521,-5,-54,-32,-7,-11,-3,3,4
7.779969,1522,-17,-36,1,6,9,4,3,7
7.779981,1523,35,-26,-4,-7,-4,-6,-7,-12
7.781567,1524,-29,27,16,-3,5,-1,-5,2
7.781583,1525,-7,43,-56,2,-3,-5,-16,-6
7.802645,1526,-18,-13,24,4,-2,-3,9,6
7.802666,1527,-8,-12,11,-4,0,5,2,2
7.803978,1528,-3,4,2,-5,8,0,-3,0
7.803992,1529,16,5,-4,1,-4,-3,-1,-1
7.816223,1530,21,17,-14,0,-7,-1,-5,-4
7.816238,1531,14,26,-14,2,4,-2,-4,-1
7.825064,1532,-7,16,-20,0,4,1,5,-2
7.825078,1533,-22,-54,53,10,-4,-2,-5,-4
7.839884,1534,46,-7,-4,-3,4,0,4,8
7.839897,1535,4,-14,10,1,-3,-1,1,2
7.841519,1536,-2,2,-25,-13,-9,-2,0,3
7.841540,1537,-13,-4,-6,-5,6,0,1,-2
7.862464,1538,28,-4,-3,7,4,-2,-5,-7
7.862482,1539,-35,50,24,3,0,-1,8,-3
7.863919,1540,36,28,1,-3,-4,-6,-8,-4
7.863937,1541,-8,2,-21,-2,3,3,7,6
7.876231,1542,0,9,9,-2,-5,-2,-7,-9
7.876246,1543,-10,-28,-6,-4,-3,-5,-6,-5
7.885095,1544,1,-57,9,2,-3,-1,-2,4
7.885125,1545,-2,28,13,-1,-5,-1,-2,-1
7.899716,1546,-5,38,-18,-4,3,1,-3,3
7.899728,1547,10,22,27,17,14,6,-12,15
7.906676,1548,-72,-73,-8,-1,-11,-6,9,-23
7.906698,1549,22,16,-5,-6,4,1,2,5
7.921904,1550,-6,-11,-11,-3,-4,-2,-3,-5
7.921921,1551,-18,-7,0,-11,-8,-3,0,2
7.923640,1552,6,-2,4,5,0,0,-4,1
7.923651,1553,-2,44,6,4,3,1,1,5
7.946033,1554,-21,42,10,0,-6,-2,-2,-13
7.946044,1555,4,-18,-18,-3,2,0,1,-6
7.946046,1556,35,8,-15,-5,3,-1,1,18
7.946047,1557,-29,19,17,-1,-1,-2,2,-5
7.958737,1558,5,-68,17,13,11,4,0,14
7.958758,1559,-40,-49,-22,-8,-19,-4,2,-15
7.967117,1560,9,-11,-1,-6,-9,-5,-3,-10
7.967145,1561,37,-5,-17,-8,-2,-2,-2,-4
7.982093,1562,-10,67,-25,2,2,1,7,3
7.982125,1563,13,7,1,1,10,3,0,9
7.983820,1564,-13,12,29,7,5,3,1,-1
7.983831,1565,-12,-17,-10,-5,-3,0,-5,-3
8.005775,1566,0,15,-8,-6,-2,0,1,-4
8.005790,1567,43,38,-3,7,2,-2,8,7
8.005794,1568,-26,-12,13,0,4,3,-6,-1
8.005797,1569,-14,-41,-11,-4,-7,-3,-4,-9
8.018683,1570,9,-24,-15,-19,-20,-10,-7,-5
8.018705,1571,0,-4,-6,-1,-4,-4,-4,-4
8.027005,1572,28,35,3,10,9,1,2,5
8.027025,1573,0,25,-2,4,10,2,0,4
8.041825,1574,-23,2,19,9,0,0,0,0
8.041847,1575,-9,-8,-21,-8,-2,-2,-1,4
8.042830,1576,9,-16,-12,-1,6,4,6,0
8.042847,1577,-21,23,6,-2,4,2,5,-4
8.065442,1578,-22,-48,2,-3,-14,-3,-1,1
8.065459,1579,-12,-61,21,2,-6,-5,-5,-2
8.065461,1580,16,-31,-32,-12,-8,-4,-5,-4
8.065462,1581,-2,61,17,4,2,-3,-4,-4
8.078539,1582,11,57,3,1,8,1,3,0
8.078558,1583,-3,7,0,6,6,4,-1,4
8.086855,1584,-1,-2,-14,-3,-2,-2,1,2
8.086877,1585,28,-26,-2,-5,-4,0,-2,0
8.110592,1586,-47,20,5,6,3,-1,-5,-4
8.110603,1587,3,27,13,4,6,2,1,4
8.110694,1588,2,-41,-5,-13,-16,-4,6,-12
8.110700,1589,43,-83,-15,-5,-8,-5,-2,-5
8.124467,1590,5,3,8,-2,-3,1,-2,-1
8.124502,1591,8,22,-12,-10,2,-2,-1,-2
8.125643,1592,-12,15,14,11,5,3,-2,3
8.125655,1593,-21,4,12,10,4,3,1,4
8.138848,1594,23,18,-5,-1,2,0,3,-1
8.138869,1595,-3,-17,19,3,0,-3,-3,4
8.146906,1596,-24,45,20,3,2,0,-4,5
8.146928,1597,-9,-84,-44,-12,-9,-4,-1,-8
8.162294,1598,6,25,-17,-12,-6,-4,-8,-18
8.162316,1599,7,5,28,9,-2,0,3,-4
8.162566,1600,5,22,-8,-5,-2,-2,-4,7
8.162649,1601,-2,29,-2,3,2,0,-2,-1
8.184789,1602,-8,-17,15,2,8,3,1,4
8.184811,1603,35,46,-14,3,6,1,-10,5
8.192066,1604,5,-94,24,2,-7,-3,6,-12
8.192089,1605,-28,-56,-2,-3,-12,-4,-3,-2
8.199088,1606,17,22,-25,-15,-10,-4,-4,-6
8.199107,1607,-34,12,-5,-6,-3,-1,1,-3
8.207134,1608,20,-1,2,11,10,0,-6,5
8.207171,1609,-17,36,4,-11,0,0,0,-5
8.221759,1610,6,-17,10,2,3,1,2,14
8.221779,1611,-6,11,-16,0,-3,-5,-2,-9
8.222657,1612,-35,9,1,5,4,2,-6,1
8.222672,1613,1,-1,-22,-8,-6,-3,6,-7
8.244525,1614,-3,-51,4,0,-10,-3,-3,-7
8.244549,1615,21,34,-8,-11,0,-1,2,0
8.246466,1616,34,47,-18,4,-3,-3,-11,1
8.246481,1617,-52,0,30,9,8,2,5,0
8.258696,1618,17,10,0,3,10,2,-4,4
8.258711,1619,10,-10,-12,-11,-8,-4,5,10
8.267264,1620,-41,-16,3,-5,-8,-3,0,-3
8.267292,1621,32,6,0,-3,-2,2,-4,-1
8.282079,1622,2,0,-8,2,5,0,1,1
8.282100,1623,-22,-25,36,8,1,-5,-9,-14
8.283427,1624,7,-17,6,-5,-1,0,2,-1
8.283435,1625,-1,-50,-14,-1,1,0,-2,4
8.304423,1626,-10,6,5,2,-3,-4,-1,-7
8.304445,1627,24,26,-22,-8,-3,2,2,1
8.305525,1628,-25,36,-8,-5,3,-1,2,1
8.305533,1629,3,7,21,9,3,-1,-1,-11
8.318731,1630,3,16,1,-3,0,-2,2,8
8.318748,1631,21,-43,-5,2,-1,3,9,-2
8.326960,1632,20,7,-35,-11,-8,-2,-1,1
8.326980,1633,-5,6,-4,-3,2,1,2,13
8.341778,1634,4,-19,17,7,-3,-4,-8,-2
8.341799,1635,15,-17,-26,-4,-2,1,2,-2
8.342747,1636,7,37,5,-4,4,1,6,-2
8.342757,1637,4,-5,-14,-3,1,-2,-9,-2
8.364210,1638,-12,2,0,0,-6,-4,-1,1
8.364228,1639,4,3,-16,-5,-4,-1,-2,-3
8.365449,1640,-13,-8,18,0,-4,-3,-1,-5
8.365462,1641,38,46,-9,-1,-1,-2,-1,0
8.378762,1642,-10,-9,9,-1,1,-1,-3,-2
8.378780,1643,3,-10,6,2,9,8,17,0
8.387253,1644,-21,-7,-6,-4,-8,-4,-4,-2
8.387285,1645,-26,-18,12,1,-7,-2,-2,-1
8.401845,1646,10,-7,10,-3,1,0,-3,-2
8.401872,1647,27,33,-21,-1,2,-2,-8,6
8.402656,1648,-47,-52,39,3,-2,-2,-1,-5
8.402679,1649,28,42,6,1,4,1,2,9
8.424502,1650,-4,6,-28,-5,2,1,0,-1
8.425931,1651,-23,-16,-7,-2,-6,-5,-8,-3
8.425948,1652,29,30,-3,1,1,3,9,-5
8.425950,1653,-8,5,-14,-8,-4,-1,-5,-3
8.438740,1654,-7,29,9,6,1,0,6,11
8.438767,1655,-22,-28,0,3,7,-2,-11,-10
8.446782,1656,33,6,-11,-4,-5,-4,0,0
8.446799,1657,-19,49,-5,-6,-1,1,3,-2
8.461740,1658,-13,-8,-13,3,2,-1,1,-2
8.461757,1659,-25,-63,5,-7,-9,-2,-2,0
8.462474,1660,-1,-15,4,11,-1,-5,-11,-6
8.462544,1661,24,78,15,2,4,1,2,1
8.484466,1662,21,-35,-19,-4,-7,-2,1,-2
8.484496,1663,-76,18,-11,-3,-5,-5,-3,-9
8.485835,1664,31,-8,-18,-4,8,1,-14,9
8.485859,1665,14,13,47,10,3,-1,12,4
8.498539,1666,-19,42,-3,-7,-3,0,0,1
8.498556,1667,30,-9,1,-1,-1,2,1,2
8.506865,1668,-33,-66,-17,-8,2,-1,-1,-4
8.506883,1669,-3,-34,24,17,13,1,-15,-3
8.521767,1670,-7,-11,-6,-12,-21,-4,8,-5
8.521786,1671,60,47,0,-9,-14,-4,1,1
8.522530,1672,-30,33,15,-1,3,0,1,4
8.522550,1673,7,-18,11,7,7,1,-8,0
8.544334,1674,20,18,2,3,5,3,8,1
8.544359,1675,5,-41,-4,-6,-8,-6,-11,-3
8.545686,1676,10,-57,-14,-1,5,0,1,0
8.545698,1677,-26,13,16,1,-2,-2,-1,-3
8.559363,1678,18,22,1,4,-3,-1,-7,-1
8.559389,1679,-39,55,-2,-10,-5,-4,-3,-7
8.560589,1680,45,-18,4,4,2,1,3,2
8.560609,1681,0,10,-15,-11,-8,-4,-2,-4
8.581953,1682,-77,-77,-14,8,7,1,-3,-1
8.581972,1683,1,61,13,-3,0,-1,1,5
8.582648,1684,-2,0,-7,7,3,6,0,-11
8.582664,1685,18,-33,-28,-8,-3,-2,5,-7
8.604377,1686,-9,27,-4,2,13,3,2,-4
8.605682,1687,-24,-35,-1,3,-7,-5,-13,10
8.605700,1688,14,27,15,-4,-4,-2,10,0
8.605704,1689,1,-1,-19,-7,-16,-3,1,0
8.618811,1690,33,5,-7,-3,2,0,-7,0
8.618837,1691,-9,-1,-1,9,16,2,-1,-4
8.626894,1692,23,39,14,-8,-11,0,-4,5
8.626914,1693,-26,-84,6,14,0,0,0,-4
8.641728,1694,20,5,18,4,8,0,2,-1
8.641746,1695,8,6,4,-5,-8,-3,2,-3
8.642502,1696,-27,53,7,-9,5,-3,-7,-7
8.642522,1697,-18,-59,-37,2,-3,-2,-12,0
8.664196,1698,-20,0,21,1,-10,-2,6,-2
8.664214,1699,0,-11,24,2,1,0,1,8
8.665085,1700,32,42,-7,8,3,2,2,2
8.665141,1701,1,112,0,-7,2,-1,-1,5
8.678584,1702,-38,-44,-5,-1,1,0,-4,3
8.678601,1703,40,41,5,0,0,0,0,-8
8.686867,1704,-18,-53,-7,-1,4,0,4,4
8.686898,1705,27,33,-15,-3,0,-2,-3,-1
8.701845,1706,-34,-26,-14,-6,-6,-2,0,1
8.701870,1707,-1,-7,3,2,8,6,9,-7
8.702687,1708,-31,-25,8,-9,-18,-5,-7,-9
8.702783,1709,29,5,9,-3,-2,0,9,4
8.724334,1710,28,69,6,3,1,-2,-5,7
8.724352,1711,-60,-103,-17,-5,-11,-1,-9,-2
8.725292,1712,37,-23,3,3,7,1,4,2
8.725305,1713,-9,8,-12,-4,-4,-3,-3,-9
8.747504,1714,-30,-81,-14,-6,0,0,-1,-7
8.747524,1715,-25,54,5,14,11,2,0,11
8.748165,1716,-19,39,-3,-2,-4,-2,-4,-14
8.748180,1717,20,-30,-16,-6,-7,-1,-3,8
8.761751,1718,11,13,-2,-10,-1,0,-2,-2
8.761771,1719,7,-21,-10,-6,-4,-6,-4,0
8.762570,1720,6,4,-11,-3,-11,-4,1,6
8.762627,1721,-47,-23,2,3,4,0,-2,-8
8.784496,1722,-1,18,13,5,2,-2,-2,-3
8.784533,1723,24,54,-11,-8,0,2,13,7
8.785818,1724,-3,0,-5,5,2,-2,-3,-6
8.785834,1725,-32,-7,14,3,1,0,-5,-6
8.798717,1726,22,15,1,-6,-8,0,4,-3
8.800557,1727,5,-29,-49,-12,7,-1,0,-6
8.806926,1728,-7,86,22,9,-6,-4,-6,8
8.806942,1729,-18,-50,10,-4,-9,0,0,-2
8.822065,1730,16,-4,-9,-2,1,-2,-7,-4
8.822088,1731,25,18,1,-6,-9,-5,-10,-4
8.822546,1732,-9,17,-10,6,17,6,12,6
8.822567,1733,-5,14,6,3,-3,-3,-7,8
8.844542,1734,7,36,9,-6,-11,-1,7,-9
8.846602,1735,-9,-73,9,3,-4,-3,-7,-6
8.846618,1736,13,34,-2,4,8,1,-4,0
8.846623,1737,2,-20,-2,4,4,-2,-1,-4
8.858934,1738,12,-35,27,4,9,4,-1,6
8.860252,1739,12,-5,3,0,-8,0,0,-3
8.866731,1740,-10,-15,-19,-13,-12,-6,-4,-4
8.866748,1741,12,-41,8,4,8,1,4,-2
8.881692,1742,8,30,2,11,16,3,-16,3
8.881704,1743,-15,3,-27,4,-3,-2,10,-5
8.882383,1744,-25,-56,21,-6,-8,2,3,5
8.882393,1745,6,-5,-14,-15,-5,-3,-2,-3
8.904258,1746,15,-6,-4,-1,1,0,-3,-3
8.904280,1747,-2,11,-1,9,12,3,-1,9
8.905593,1748,10,72,14,-6,-11,-3,-5,-9
8.905604,1749,-6,-35,-7,-5,-4,2,0,5
8.927559,1750,7,2,-8,-1,-3,-3,1,-5
8.927575,1751,-9,10,11,6,10,4,2,-4
8.928282,1752,-3,31,18,4,2,-2,-2,2
8.928354,1753,2,24,10,-4,-8,-4,-10,4
8.942128,1754,14,7,-16,-5,-9,-3,15,9
8.942140,1755,27,0,46,0,-10,-3,1,-19
8.942539,1756,-63,-128,-30,-4,9,3,3,-5
8.942559,1757,28,46,0,-2,3,0,-2,5
8.964567,1758,-2,30,-28,-7,-8,-3,-6,-2
8.964589,1759,-14,14,2,-2,-2,0,-5,0
8.966767,1760,10,-13,-20,-8,-1,3,1,4
8.966788,1761,7,-15,26,6,6,0,5,-9
8.987523,1762,-9,5,13,-3,-4,-4,-5,-6
8.987584,1763,-14,39,-16,8,13,3,-8,10
8.988321,1764,44,-24,26,-1,-6,-2,11,-2
8.988333,1765,-51,12,-31,-9,-12,-4,-6,-9
9.002817,1766,16,-15,-5,-2,1,-2,-2,-5
9.002833,1767,-11,-41,-24,-8,-10,-3,-3,2
9.002835,1768,10,19,-10,6,12,0,-6,1
9.002837,1769,15,67,0,-2,-2,1,7,6
9.024748,1770,-34,-94,-1,0,-4,0,-1,-6
9.024780,1771,0,16,26,-12,2,-2,-4,-5
9.026354,1772,11,34,-14,12,-1,-1,-2,-3
9.026364,1773,12,-7,-3,1,2,-1,-10,-2
9.048599,1774,-19,12,3,-2,-8,-1,14,-7
9.048616,1775,39,37,-23,-11,-10,-2,4,4
9.048619,1776,-49,-40,48,8,7,-2,-3,-2
9.048623,1777,15,51,-16,10,9,4,-1,2
9.063016,1778,-14,-102,5,-6,-13,-7,-10,1
9.063033,1779,-22,0,-4,0,-8,-2,-2,-2
9.063037,1780,37,50,-27,-12,-8,-5,-4,-5
9.063041,1781,3,8,-15,1,13,3,3,4
9.084587,1782,6,4,28,6,-3,-1,-21,4
9.084604,1783,-32,-38,-10,-7,-9,-4,17,-9
9.086095,1784,26,69,22,2,5,-1,-3,-3
9.086110,1785,-25,-44,-2,-3,-11,-6,-16,-5
9.107752,1786,6,118,20,-8,0,2,11,-2
9.107763,1787,7,-31,22,11,-2,2,-8,10
9.108157,1788,5,46,-24,-2,8,2,1,5
9.108172,1789,-8,-2,2,6,14,1,5,-2
9.122149,1790,-35,-4,-8,-11,-20,-7,-19,-1
9.122164,1791,16,-66,-3,-3,1,2,5,-5
9.122486,1792,-4,-36,0,2,-2,-1,-1,-4
9.122499,1793,23,32,15,3,6,2,6,4
9.144336,1794,14,-12,2,6,3,-2,-6,3
9.144353,1795,0,64,41,16,10,0,3,4
9.145419,1796,-38,-85,-26,-5,-3,6,12,3
9.145428,1797,2,9,-16,-4,-7,-3,-4,-9
9.168011,1798,-4,74,-1,-4,8,1,3,2
9.168028,1799,-19,-33,1,5,-1,-1,-9,-3
9.168186,1800,-2,1,0,-5,-6,-1,-5,3
9.168315,1801,5,29,-5,-6,-7,-2,1,-8
9.182982,1802,-5,-31,-23,-5,-5,-3,2,-5
9.182993,1803,10,0,-11,-6,0,0,0,-1
9.182995,1804,7,-15,-23,-2,6,0,-11,1
9.182996,1805,-25,-39,-9,-6,-12,-1,16,-3
9.204354,1806,17,43,-4,0,-4,-1,-3,-3
9.205717,1807,-17,-40,21,1,5,-2,2,-4
9.205728,1808,34,8,-9,-4,2,-4,-4,7
9.205730,1809,3,8,35,4,-9,-3,-12,3
9.227462,1810,-23,1,-2,2,6,2,6,-5
9.227477,1811,-4,27,-10,1,11,4,2,9
9.228132,1812,0,-18,-19,-7,-9,-4,-1,-18
9.228145,1813,6,53,-25,-10,-11,-3,-1,4
9.242942,1814,23,-52,31,10,6,3,-7,5
9.242955,1815,-18,72,-52,-5,-5,1,11,2
9.242958,1816,-27,-80,50,7,-1,1,4,-4
9.243002,1817,14,14,-9,-2,4,0,-1,0
9.264435,1818,20,23,4,1,3,-1,-3,-8
9.264465,1819,2,24,-20,0,3,2,-6,6
9.265628,1820,-20,-54,4,1,2,1,-9,1
9.265644,1821,16,25,15,7,2,2,12,0
9.287902,1822,-6,-9,-24,-8,-3,-1,3,1
9.287916,1823,-29,-60,9,-5,-7,-5,-11,-20
9.288165,1824,31,89,-15,-5,-4,-7,-4,7
9.288179,1825,-4,-53,3,-1,1,1,6,2
9.303702,1826,-23,33,-5,4,7,3,0,1
9.303717,1827,18,6,-1,-7,-10,-5,-2,-3
9.303724,1828,-14,21,9,3,-4,-1,-4,-4
9.303732,1829,12,35,-2,1,14,6,-8,5
9.324660,1830,-14,-61,19,3,-8,-9,6,0
9.325816,1831,-19,-14,11,-2,-6,-1,-5,-16
9.325827,1832,-20,11,-19,-9,-6,-4,-2,4
9.325829,1833,-18,-29,1,-8,-4,-3,-4,-3
9.349081,1834,3,-7,-15,12,23,6,0,-4
9.349093,1835,43,-31,30,3,-10,-4,-4,16
9.349095,1836,-48,25,-7,-7,-16,0,5,-14
9.349096,1837,-23,-71,2,-2,-4,-1,4,-5
9.362048,1838,17,22,-58,-12,0,-1,-1,0
9.362068,1839,8,15,75,26,25,3,-7,2
9.363924,1840,-15,13,5,-3,-10,2,17,0
9.363936,1841,15,-49,-26,-16,-14,-6,-3,-8
9.384807,1842,-24,-33,-4,-7,-3,-1,-3,-4
9.384832,1843,13,60,-42,2,14,1,0,5
9.386616,1844,18,-5,40,11,2,0,1,2
9.386627,1845,-38,8,9,-2,-8,1,3,-7
9.409276,1846,54,60,4,-1,-1,3,6,8
9.409289,1847,-32,-96,-6,-4,6,1,-5,-4
9.409291,1848,42,24,-29,-1,4,-1,-2,11
9.409293,1849,12,-27,-2,-4,-11,-3,0,3
9.421979,1850,7,22,17,0,-1,-6,-6,-2
9.422002,1851,1,-77,-4,1,-3,2,5,4
9.423664,1852,14,30,6,5,16,2,4,-2
9.423675,1853,-18,-11,-1,-4,-8,-5,-4,4
9.444502,1854,-21,54,14,0,-9,-2,2,-2
9.444526,1855,-28,-13,-18,-8,-10,-3,8,-12
9.445169,1856,7,-36,-11,2,0,-5,-12,-6
9.446383,1857,5,-14,-4,-5,0,-4,-2,-3
9.469658,1858,-3,-24,0,0,-4,-3,-12,6
9.469671,1859,9,68,-7,-5,-5,0,11,7
9.469672,1860,-1,61,13,0,1,0,-1,-3
9.469674,1861,-6,65,-5,4,6,2,-3,-1
9.482227,1862,-18,-128,-64,-8,-3,-4,-5,-12
9.482251,1863,20,115,70,19,21,6,-1,1
9.484423,1864,10,-7,-23,-23,-48,-13,-5,11
9.484454,1865,9,-29,6,-2,3,1,-3,-17
9.504321,1866,15,6,-7,-5,-3,-1,4,7
9.504383,1867,-12,-9,-40,-6,5,0,-5,-5
9.505177,1868,12,3,26,14,22,2,-3,-4
9.506639,1869,-2,37,1,-4,-11,-3,5,8
9.527800,1870,-6,-47,21,7,3,3,-5,-3
9.527890,1871,24,-62,-20,-12,-10,-3,0,3
9.529873,1872,-19,-12,57,13,14,1,5,-4
9.529889,1873,0,4,1,7,1,0,1,16
9.541555,1874,-5,30,-8,-9,-5,1,-1,-8
9.541578,1875,-18,-31,-6,-2,-1,-2,-6,1
9.549450,1876,-41,-64,-48,-10,-6,-3,-9,-11
9.551442,1877,16,46,-4,13,20,4,-13,11
9.564478,1878,-6,15,49,-7,-24,-3,21,1
9.564500,1879,0,18,-7,-7,-8,-2,3,0
9.565014,1880,19,-37,-19,-7,-3,-3,-3,1
9.565028,1881,15,-31,4,17,29,5,-3,-5
9.587689,1882,-32,40,3,7,-1,-5,-12,-6
9.589331,1883,-18,7,-5,-13,-29,-5,-2,0
9.589342,1884,14,11,3,-2,1,0,-2,4
9.589343,1885,-7,45,-13,-5,7,-3,0,-2
9.601417,1886,17,-47,14,12,8,0,-10,0
9.603197,1887,14,60,1,0,-2,3,14,5
9.609734,1888,-19,18,-21,-12,-4,-3,-13,-22
9.611120,1889,-15,-39,-37,-10,-9,-4,-3,2
9.624556,1890,21,7,12,5,12,2,4,4
9.624578,1891,8,26,10,1,-5,-7,-4,3
9.626443,1892,-17,-4,-16,-3,-2,3,3,-9
9.626454,1893,-6,17,9,-1,-5,-1,0,-10
9.647784,1894,1,-12,-11,3,9,0,3,4
9.647806,1895,16,45,22,2,-4,-4,-27,2
9.649730,1896,5,-6,18,-1,-6,3,22,12
9.649742,1897,-19,-50,1,-13,-21,-5,-3,-20
9.661574,1898,15,0,-5,-1,1,-2,0,-2
9.661596,1899,19,10,-26,-3,6,-1,-9,-10
9.669404,1900,17,-22,-22,5,11,2,7,15
9.669494,1901,-7,76,33,6,3,2,5,4
9.684590,1902,-11,17,-7,-6,3,-1,-5,-3
9.684733,1903,-1,-75,-29,-10,-5,-5,-2,-6
9.684964,1904,17,-26,-27,-5,-6,1,-4,-1
9.684970,1905,12,10,45,5,2,0,4,6
9.707632,1906,-48,-12,-18,5,4,-1,-14,-9
9.707655,1907,-26,9,11,-1,-4,-4,4,3
9.709645,1908,18,82,-71,-21,-4,-3,-13,0
9.709659,1909,-32,-114,70,14,-15,-5,-1,-10
9.721370,1910,0,40,-11,-11,-6,3,14,8
9.721392,1911,9,-8,0,3,5,-2,-6,3
9.729903,1912,17,23,3,5,7,-1,-6,-7
9.729926,1913,-14,14,-29,1,14,2,-7,6
9.744446,1914,1,-8,10,-2,0,-2,-2,-2
9.744465,1915,-8,-36,-4,0,-2,1,5,-5
9.744935,1916,7,-38,18,5,7,1,1,7
9.744947,1917,5,42,-4,9,2,1,1,-2
9.768033,1918,15,-32,19,-6,-17,-5,4,5
9.768061,1919,10,41,12,-3,-2,-1,2,11
9.770614,1920,-38,-5,11,-4,-3,-4,-2,-21
9.770626,1921,21,-3,-41,-4,7,-1,-9,-10
9.781337,1922,-11,45,21,11,7,1,10,4
9.781359,1923,14,-18,-2,-11,-20,-3,4,0
9.789749,1924,-13,-47,1,-1,-2,-6,-10,-7
9.789779,1925,-2,6,-23,-9,-8,0,3,3
9.804443,1926,6,-17,-11,-1,11,-2,-9,-5
9.804464,1927,9,21,13,14,16,4,1,1
9.805076,1928,2,41,13,4,-5,1,8,11
9.805096,1929,11,-24,10,-16,-23,-7,-5,-7
9.826932,1930,-12,8,-12,-3,-2,0,-9,-11
9.828712,1931,-18,65,13,5,1,1,7,-3
9.828730,1932,-22,1,3,1,4,1,6,-3
9.828734,1933,25,12,-7,-1,6,-1,-2,9
9.841372,1934,14,15,16,1,-5,-2,7,14
9.841400,1935,-19,-46,-1,1,9,2,0,-6
9.849639,1936,-9,43,1,1,0,-2,-7,4
9.849668,1937,-9,-10,18,-5,-15,-4,-2,-9
9.864473,1938,37,16,-13,-4,-5,1,2,-1
9.864495,1939,-29,-77,-11,-5,-1,-1,-7,6
9.865133,1940,-10,28,17,7,10,0,-5,0
9.865152,1941,24,-61,-25,-1,8,3,13,9
9.887003,1942,-21,3,16,-2,-9,-2,-6,-9
9.887031,1943,-5,-39,-19,-9,-7,-4,-5,-20
9.888403,1944,14,42,8,3,3,5,2,13
9.888414,1945,-8,-32,-10,0,6,-3,-4,-2
9.910068,1946,-1,-29,-27,-5,-2,1,12,-2
9.910092,1947,13,25,7,3,0,3,5,5
9.910771,1948,-7,15,-11,-6,4,-5,-4,-7
9.910838,1949,12,62,19,16,8,5,-8,6
9.924262,1950,-37,-22,-17,-10,-14,-8,-5,-6
9.924288,1951,-39,-80,-13,-18,-27,-5,1,-4
9.925093,1952,27,-20,-9,0,-5,0,-2,2
9.925157,1953,3,33,-6,-3,5,0,0,1
9.947069,1954,-12,-34,-5,4,11,1,-6,-3
9.947097,1955,34,43,1,4,4,-1,-2,7
9.948333,1956,2,-27,10,4,0,2,2,-4
9.948351,1957,-19,84,11,-1,10,1,3,1
9.970038,1958,5,-84,32,-4,-19,-6,-13,-6
9.970059,1959,67,99,9,9,15,2,5,6
9.970671,1960,-93,-63,10,7,2,2,6,-6
9.970760,1961,6,-46,-3,-16,-23,-5,-4,-10
9.984264,1962,16,28,-20,-2,4,-2,-2,-5
9.984352,1963,19,-4,-4,-2,1,-4,-9,5
9.985119,1964,-11,2,24,5,8,1,-1,7
9.985175,1965,-22,18,11,7,5,1,6,-1
10.006930,1966,-3,-40,-21,4,7,-1,-14,-2
10.006952,1967,15,-3,-4,-1,-2,0,4,-4
10.008523,1968,-20,-18,-13,-3,-5,-3,-3,-9
10.008545,1969,25,-5,-13,-7,-7,-2,0,2
10.030352,1970,7,77,11,1,2,0,6,10
10.030381,1971,-11,-54,-9,-1,1,-4,-9,-9
10.030834,1972,12,-6,-34,-15,-13,-4,-3,1
10.030849,1973,25,-42,59,16,12,4,-1,5
10.044382,1974,-54,-88,23,-7,-23,-6,-2,5
10.044404,1975,16,52,-19,-8,-1,-3,-3,-6
10.045092,1976,28,48,2,-2,-6,-2,2,5
10.045154,1977,-21,-1,-21,-1,6,2,-10,0
10.067118,1978,29,59,-7,4,12,3,9,0
10.067150,1979,-28,-53,-5,-3,-1,0,-5,0
10.069290,1980,21,-20,12,-4,-5,-1,-1,-7
10.069309,1981,-9,-43,-31,-3,-6,-6,-2,3
10.090431,1982,18,68,13,2,8,2,1,-14
10.090541,1983,-33,-21,-19,-2,-7,-3,-7,0
10.090826,1984,59,35,1,-1,4,2,1,2
10.090897,1985,-22,7,-3,-1,-2,-2,1,-4
10.104215,1986,6,-22,-17,-3,1,1,-2,-4
10.104233,1987,6,60,0,3,29,3,-4,14
10.104891,1988,-10,-113,62,37,-11,-2,9,5
10.104911,1989,-4,44,-48,-31,-41,-5,12,-11
10.135014,1990,-6,-54,-29,-3,3,-2,-4,-6
10.135033,1991,10,40,13,5,4,1,0,-3
10.135855,1992,15,-31,-23,-3,17,-1,-10,5
10.135955,1993,-93,-29,-1,3,7,0,-3,-3
10.150071,1994,14,6,9,-1,-3,-2,0,-3
10.150092,1995,-27,-5,-9,-6,-7,-2,-3,-7
10.150678,1996,-1,49,-13,-12,-9,-4,-1,-2
10.150697,1997,22,33,20,12,5,1,4,4
10.164381,1998,-12,-25,-14,-2,3,0,-5,-1
10.164446,1999,-8,-30,4,0,-7,-4,3,-7
10.164982,2000,18,31,-3,-7,-4,1,1,13
10.165059,2001,0,13,-2,-5,9,-1,-5,-8
10.186870,2002,-3,45,23,19,13,3,1,8
10.188294,2003,3,7,-7,-11,-22,-4,7,-2
10.188305,2004,-34,-24,17,-3,3,0,-4,-11
10.188307,2005,17,-25,-17,-4,2,-4,-3,2
10.209945,2006,28,37,-9,1,-4,0,-3,7
10.209968,2007,-46,-46,9,1,3,3,5,-7
10.210571,2008,4,1,-20,-6,-9,-5,-1,3
10.210592,2009,-9,27,-3,6,11,1,-3,2
10.224230,2010,13,20,-10,-10,1,0,-2,2
10.224248,2011,-31,-33,10,0,-6,-3,-4,-15
10.224998,2012,27,10,-17,-8,-2,0,4,-4
10.225017,2013,5,-15,20,10,7,1,-3,3
10.247044,2014,29,61,26,5,2,3,5,6
10.247067,2015,31,-7,-15,-11,-15,-4,-6,0
10.249092,2016,24,3,-8,-5,-5,-1,-6,-6
10.249109,2017,12,-10,-32,-8,-8,-5,1,5
10.269899,2018,-33,74,37,8,6,0,-2,-12
10.269916,2019,16,-67,4,11,14,4,-3,8
10.270803,2020,-21,33,-9,-6,-8,-4,3,0
10.270826,2021,11,-44,-7,-5,-7,-4,-4,-15
10.284375,2022,19,-13,7,-5,7,1,-17,10
10.284391,2023,-3,39,9,1,-23,-9,7,-9
10.285071,2024,-22,42,-7,-5,-1,1,9,3
10.285094,2025,-22,-53,-1,1,-6,-2,-5,-8
10.307119,2026,-1,-15,-26,-8,0,-2,5,-1
10.307156,2027,-8,23,-6,3,9,0,-9,-1
10.308760,2028,-11,-10,8,3,2,1,-5,4
10.308772,2029,36,53,9,1,2,1,2,5
10.330125,2030,4,-98,-19,-12,-12,-2,-1,-11
10.330151,2031,6,6,0,5,5,2,3,6
10.330797,2032,11,-11,3,7,3,-2,-5,1
10.330823,2033,-13,-33,0,7,20,8,8,-3
10.344781,2034,-36,10,16,-16,-36,-7,8,-5
10.344797,2035,40,7,-20,-7,-2,-3,-6,6
10.345031,2036,-10,22,-1,-2,2,-1,2,-3
10.345043,2037,9,21,-7,0,2,1,0,7
10.367081,2038,-15,6,5,4,10,2,3,2
10.367101,2039,1,-74,5,2,7,-2,3,-5
10.368517,2040,-54,8,18,8,13,2,-7,2
10.368534,2041,25,51,-22,-17,-37,-11,-5,-2
10.390226,2042,-4,-78,-4,-5,-3,0,3,-1
10.390360,2043,-11,49,-1,-6,-6,0,-2,-7
10.390961,2044,12,-24,-3,-1,5,1,-4,-4
10.390977,2045,-2,3,-10,3,16,2,-14,2
10.412816,2046,26,121,27,13,-5,-4,9,4
10.414697,2047,-50,-46,-28,-9,-6,2,15,-3
10.414714,2048,6,-100,-15,-9,-6,-4,-10,-12
10.414718,2049,3,17,4,-4,-5,0,2,1
10.427010,2050,21,41,-25,0,9,0,-10,2
10.428823,2051,-2,3,20,12,12,5,-2,11
10.428840,2052,-1,57,-7,-3,-2,3,8,0
10.428891,2053,-8,-86,33,6,5,0,-6,-5
10.450140,2054,-8,39,-20,-12,-18,-9,-6,3
10.450151,2055,-2,-31,28,-1,-4,-1,2,1
10.450861,2056,-27,1,-16,-4,-5,-2,-2,-7
10.450878,2057,43,-13,-2,-2,0,-4,-2,-4
10.465215,2058,-9,-22,-14,5,17,4,5,12
10.465226,2059,10,34,-16,3,7,-3,-22,3
10.465228,2060,34,88,42,8,-9,1,12,7
10.465230,2061,-26,-89,-13,-13,-20,-5,-2,-7
10.486918,2062,-16,-32,-28,-6,-7,-4,-1,-11
10.488445,2063,-2,21,10,-1,1,-1,-4,-4
10.488456,2064,10,12,2,9,16,5,-4,9
10.488459,2065,-17,56,7,5,0,0,7,5
10.510162,2066,2,9,-13,-4,-6,0,-3,-5
10.510174,2067,6,-33,4,1,6,-1,-2,-4
10.510605,2068,15,-21,-11,0,-1,-2,-4,-5
10.510621,2069,-3,60,6,-4,-7,-1,6,9
10.525521,2070,-5,-64,5,3,4,0,-3,-8
10.525534,2071,-16,32,13,-3,-5,-1,2,-3
10.532101,2072,5,-18,-1,-3,-7,-7,-2,-8
10.533753,2073,-2,1,-6,-4,3,1,-3,1
10.547054,2074,0,1,7,6,9,1,-1,-1
10.548711,2075,9,27,-3,3,3,2,4,8
10.548728,2076,-3,25,3,2,8,1,-12,1
10.548732,2077,-25,-87,16,2,-7,-1,7,3
10.570922,2078,-10,8,-3,0,-9,-1,-2,1
10.570936,2079,-20,9,-5,-14,-18,-3,0,-23
10.570939,2080,-7,-62,-20,-5,-4,-1,-2,0
10.570943,2081,9,32,3,4,13,3,4,0
10.583925,2082,26,11,7,-1,3,0,1,6
10.586175,2083,1,65,-18,1,6,3,-3,11
10.592019,2084,-12,-42,18,13,15,2,-1,10
10.593286,2085,-24,10,-27,-13,-22,-7,9,-11
10.607013,2086,18,-20,-7,-8,-14,0,8,-4
10.607059,2087,30,24,-7,-3,-2,-2,-1,6
10.608529,2088,-12,23,-10,-3,2,0,-3,-8
10.608541,2089,8,-49,6,7,8,1,-13,1
10.630771,2090,-8,25,-6,0,3,1,-1,-1
10.630788,2091,2,1,-1,0,0,-2,3,-1
10.630792,2092,14,-54,25,5,1,0,3,8
10.630796,2093,-33,50,15,-2,-7,0,-4,-6
10.643719,2094,-38,-44,-4,2,0,0,-1,-2
10.643742,2095,23,5,-1,-1,-1,-3,-2,-2
10.652089,2096,-40,-47,-14,1,14,2,-1,-5
10.652117,2097,20,48,-2,-4,-11,-7,-6,-3
10.666867,2098,1,-36,10,-10,-13,-4,-20,6
10.668572,2099,-14,-7,18,5,6,5,19,9
10.668598,2100,16,-22,-18,-11,-18,-8,-8,-25
10.668669,2101,26,35,2,13,19,4,1,4
10.691416,2102,13,55,12,14,14,3,1,2
10.691433,2103,-22,-51,2,0,-3,-2,-5,2
10.691436,2104,-11,-21,-5,-6,-4,0,1,10
10.691438,2105,19,22,19,5,12,4,-5,-9
10.703565,2106,-2,-39,-40,-20,-20,-9,-1,3
10.703583,2107,-3,9,33,4,-1,-1,-7,-4
10.712099,2108,2,16,29,-2,-10,-8,3,-12
10.713551,2109,23,-10,-25,-7,-6,-2,-1,0
10.726828,2110,-28,-23,-9,1,7,3,2,-5
10.726849,2111,3,-46,-14,-3,1,-1,0,-2
10.727908,2112,0,38,-17,-1,-1,0,-1,8
10.727919,2113,-11,-4,17,0,2,-2,-11,1
10.750149,2114,3,94,-9,3,6,-1,11,-4
10.752102,2115,-3,-80,35,10,6,3,0,3
10.752116,2116,-49,10,-8,-4,-19,-9,-6,-6
10.752119,2117,49,28,-17,-4,-5,-2,-8,11
10.763853,2118,-1,-11,1,0,3,5,6,-6
10.763888,2119,-2,-27,-15,-8,-2,-7,-8,-8
10.771988,2120,11,2,-20,0,3,1,5,3
10.773834,2121,-17,72,37,6,14,3,3,1
10.786981,2122,7,-75,-4,-2,-9,-5,-3,-2
10.787010,2123,15,29,32,2,-7,0,2,4
10.787502,2124,-9,-13,-15,-7,-5,-1,-4,-9
10.788631,2125,8,-17,-24,-1,2,-1,4,2
10.811918,2126,-21,35,24,10,14,3,-1,-3
10.811931,2127,50,17,-30,-2,1,-2,-10,-6
10.811934,2128,-18,94,-14,-11,-13,-4,7,10
10.811936,2129,-52,-128,7,-3,2,1,0,-13
10.833110,2130,11,87,25,7,4,-3,-7,3
10.835158,2131,-7,54,-15,-3,3,1,-6,1
10.835187,2132,22,23,8,3,0,2,9,5
10.835189,2133,-8,-16,-20,-4,-8,-2,3,-1
10.846919,2134,-2,-31,-4,-5,-2,-2,4,2
10.847081,2135,-29,7,-7,-2,2,-2,-8,-9
10.847768,2136,30,-21,-3,0,-3,-4,-4,0
10.847789,2137,-12,1,-5,-1,-7,-2,-5,-2
10.870066,2138,2,2,9,0,2,1,-2,-11
10.870084,2139,2,29,-8,-5,-6,-3,2,2
10.871666,2140,0,11,0,-4,3,0,1,-1
10.871680,2141,6,2,3,0,-3,-3,2,9
10.892760,2142,0,-34,-6,2,1,-1,-6,-2
10.894691,2143,0,10,-15,-2,9,-1,2,-4
10.894705,2144,28,97,-9,-6,-9,-5,-3,-7
10.894708,2145,-16,-106,19,-6,-15,-4,1,-9
10.906163,2146,11,105,13,2,-2,-2,-2,16
10.906183,2147,-14,26,-9,1,-1,1,5,-5
10.916538,2148,3,-11,-14,0,3,-2,-10,-7
10.916550,2149,23,58,-9,0,6,1,0,3
10.930225,2150,-8,-40,1,2,7,0,3,-1
10.930259,2151,-14,-29,-6,2,-4,-1,-6,3
10.932440,2152,7,-18,17,3,-4,-5,1,-1
10.932453,2153,-25,-74,-27,-7,-9,-4,-1,-6
10.952731,2154,1,-24,7,-3,-2,-2,-13,-6
10.952754,2155,-8,40,10,3,2,-3,6,-5
10.954819,2156,4,-28,14,1,-1,1,-2,0
10.954833,2157,12,95,-12,3,5,2,1,5
10.966327,2158,-21,-80,-10,-7,-2,-2,-6,-3
10.966488,2159,8,-61,-23,6,11,3,-8,7
10.975752,2160,-43,78,51,2,-16,-3,9,0
10.975770,2161,-30,51,-6,-9,-2,-3,-4,-11
10.990255,2162,-9,-30,-11,-1,-6,-2,-2,-8
10.990285,2163,18,18,-17,-7,-2,-1,0,-1
10.992440,2164,-7,-73,-2,7,15,4,-2,4
10.992458,2165,6,14,6,2,1,2,-2,-1
11.012626,2166,-2,70,4,-1,4,2,1,10
11.012688,2167,-3,-27,20,8,1,-2,3,3
11.014827,2168,-50,-75,-23,-9,-12,-4,-18,-13
11.014841,2169,24,0,-14,-4,-7,-3,10,1
11.026175,2170,27,28,8,0,3,2,1,-6
11.026193,2171,23,70,0,-1,0,1,2,3
11.036516,2172,-30,-53,-5,4,3,2,1,5
11.036530,2173,8,-13,-26,3,6,3,-3,2
11.050110,2174,11,39,18,2,1,1,1,1
11.051999,2175,-87,-9,17,-2,-8,-2,6,4
11.052034,2176,51,-40,-13,-7,-2,-6,-10,-22
11.052036,2177,13,12,8,1,-3,-2,0,1
11.072771,2178,-20,-3,-12,1,2,1,4,8
11.072946,2179,10,49,-16,-7,-6,-5,-8,-5
11.073922,2180,-26,-41,20,15,19,7,8,8
11.073941,2181,7,-66,25,-11,-20,-4,9,-9
11.086170,2182,17,-12,-16,-1,-6,-5,-5,2
11.086187,2183,-3,29,3,-3,-4,-1,1,-4
11.095712,2184,-19,-18,-19,-4,2,0,-3,-1
11.095725,2185,8,53,16,7,12,3,-4,0
11.110264,2186,-30,-56,-9,-2,-3,-2,2,-3
11.111989,2187,32,-10,9,-3,-4,-1,-2,0
11.112005,2188,18,62,-13,1,5,0,2,2
11.112007,2189,-18,9,24,-3,-5,-5,-8,-2
11.132724,2190,17,-4,-14,-8,-14,-4,-1,-5
11.134928,2191,9,3,5,-1,-1,1,2,3
11.134944,2192,-43,42,-14,-1,5,3,-1,-3
11.134946,2193,-7,-65,-4,-4,-4,-6,-9,-6
11.146061,2194,14,-13,22,5,5,-2,-7,-8
11.146076,2195,16,-2,-8,0,0,1,8,-5
11.155293,2196,30,78,27,1,-4,3,12,13
11.155305,2197,4,-41,-22,-7,-5,-4,-2,-8
11.170004,2198,-24,12,-11,1,-3,-1,0,1
11.171443,2199,5,-9,0,-3,-5,-4,-5,-2
11.171544,2200,42,9,3,0,1,-1,-3,3
11.171618,2201,-6,12,-7,5,11,3,0,0
11.200155,2202,14,-5,8,-1,-2,-2,0,-2
11.202135,2203,0,6,-3,-3,-6,-3,-3,-5
11.202149,2204,3,-15,8,-4,-5,0,1,1
11.202151,2205,-22,11,-13,-3,-4,1,-4,2
11.206156,2206,-28,-26,-13,-7,2,0,-2,-7
11.206261,2207,-6,-23,0,6,3,-1,-1,1
11.216054,2208,13,13,10,3,1,-2,-8,0
11.216069,2209,-8,6,19,-3,6,4,12,5
11.230185,2210,-14,-15,28,3,-4,-3,1,-1
11.230219,2211,4,20,-10,-1,-12,-5,-3,-3
11.232336,2212,-7,-88,-8,0,5,1,2,1
11.232350,2213,55,59,0,4,1,-3,-7,3
11.252652,2214,-75,15,-29,-14,-11,-2,0,-1
11.252675,2215,5,-24,2,-5,2,0,5,-3
11.254020,2216,28,-2,-2,-4,-6,-5,-7,-4
11.255121,2217,25,50,-9,5,11,3,0,1
11.266041,2218,20,39,-8,-1,1,-3,-1,1
11.266058,2219,-53,-13,4,2,1,3,-13,-2
11.276421,2220,1,3,-15,-3,0,-2,7,-3
11.276436,2221,-25,7,-5,-1,1,1,1,5
11.290223,2222,18,28,21,6,3,0,-2,-5
11.291859,2223,19,35,-20,3,6,0,-5,-1
11.291882,2224,-26,-28,31,-3,-7,-3,-8,-7
11.291884,2225,-18,-23,-12,-3,-11,-5,-3,0
11.312603,2226,37,-46,-1,0,-1,-1,4,-2
11.312628,2227,11,-9,-9,-4,4,2,4,1
11.314206,2228,18,39,-12,0,4,-1,2,3
11.315561,2229,-60,-15,10,4,-2,-1,0,2
11.326034,2230,47,-17,-12,-7,-5,-3,-6,-1
11.326053,2231,-42,-42,-11,-2,-2,-3,-1,-7
11.336127,2232,9,12,0,-3,-1,0,1,9
11.336142,2233,20,11,3,-2,-1,1,-2,0
11.350240,2234,-18,15,-11,2,7,2,-10,7
11.350276,2235,28,0,19,4,4,0,7,3
11.352380,2236,22,-14,-12,-9,-19,-8,-2,-11
11.352397,2237,-15,8,-19,-3,-4,-1,-3,-3
11.372702,2238,3,-14,11,0,4,2,0,1
11.372726,2239,1,20,10,1,1,-1,-5,-4
11.374009,2240,-14,0,-17,4,7,2,1,6
11.374091,2241,5,2,-6,4,5,1,-1,5
11.386147,2242,-6,-19,4,-5,-11,-4,-2,-12
11.386171,2243,-31,-55,-23,-9,-6,-6,-2,0
11.396153,2244,-14,15,23,0,-3,-1,-1,-6
11.396164,2245,1,-49,-4,1,6,2,0,2
11.410266,2246,-24,24,-1,3,5,2,7,8
11.412389,2247,-35,4,-8,-11,-8,-7,-8,-9
11.412401,2248,43,-45,-1,-4,-8,1,-4,-2
11.412403,2249,5,13,15,1,-1,-3,4,-4
11.432537,2250,-16,-4,-8,-3,-11,-2,9,1
11.432556,2251,34,0,7,0,1,0,-4,2
11.434254,2252,-34,18,-4,3,7,1,0,2
11.434305,2253,27,-10,1,-1,2,-2,-11,-13
11.446074,2254,5,2,5,3,9,3,-1,2
11.446126,2255,-4,-45,-2,-2,-3,0,7,1
11.455477,2256,18,27,-3,0,-6,-1,0,-4
11.455488,2257,-14,-30,6,-2,1,0,-2,2
11.469911,2258,3,38,-5,3,1,-1,-1,-2
11.469934,2259,60,-10,-8,-6,-4,0,-5,-3
11.471611,2260,-26,9,11,5,5,1,0,3
11.471668,2261,-4,38,-3,-4,-13,-5,1,4
11.492530,2262,4,-63,-7,-4,-2,0,1,-7
11.492559,2263,-10,24,-8,-1,4,2,0,4
11.494104,2264,-8,-3,-20,-4,2,1,1,1
11.494205,2265,-1,-24,49,10,8,-1,1,-4
11.506188,2266,5,24,-3,-2,-11,-4,5,5
11.506206,2267,-12,28,4,-1,-10,-2,2,1
11.522592,2268,-34,-61,-23,-6,-3,-5,-5,-12
11.522616,2269,32,-18,-11,-3,5,3,-3,3
11.530170,2270,-2,-29,10,2,0,-2,-6,-4
11.531937,2271,-18,44,26,6,3,2,6,4
11.531949,2272,-2,45,-4,-1,-2,0,-3,0
11.531951,2273,1,-50,-7,0,3,2,3,-1
11.552553,2274,-7,30,-1,7,11,3,0,1
11.552571,2275,-11,-29,-17,-14,-15,-8,-12,-8
11.553989,2276,55,-62,5,-2,-3,0,2,0
11.554009,2277,-5,-14,-38,-6,-4,-2,4,-2
11.566157,2278,3,30,35,4,1,2,-15,-4
11.566170,2279,25,-56,-2,1,3,-4,-1,-8
11.576057,2280,-31,22,-15,-3,0,2,1,7
11.576075,2281,-32,53,-8,-1,-4,1,0,-5
11.590159,2282,-11,-27,8,-4,-4,-5,-3,-3
11.590177,2283,-4,24,-3,0,-2,-1,-6,-5
11.592241,2284,2,-23,21,2,-1,-2,-1,1
11.592255,2285,3,51,-15,2,0,-1,0,-6
11.612491,2286,11,-16,-16,-5,4,-1,0,2
11.612516,2287,-7,9,11,5,5,2,1,-7
11.614080,2288,14,40,3,-4,-7,-4,2,0
11.614203,2289,-25,-69,-4,-1,-2,-4,-6,-1
11.626292,2290,-4,5,-14,-6,-6,-1,4,-1
11.626306,2291,5,6,-5,-5,0,1,2,3
11.635933,2292,-8,36,9,6,5,-1,-5,-4
11.635946,2293,34,-41,1,-1,-1,-3,-4,-1
11.649948,2294,-12,-34,10,1,1,-1,-1,-7
11.649964,2295,-13,19,-7,-3,-7,-2,2,4
11.652019,2296,3,29,-11,-1,1,-2,-2,4
11.652035,2297,3,12,6,-1,-2,-2,-2,-2
11.672909,2298,-2,-5,-21,-5,-2,-1,1,-3
11.672928,2299,18,22,8,0,7,2,-12,-2
11.674539,2300,-11,-81,-11,-1,-1,-4,7,-1
11.674603,2301,26,13,26,-1,-7,-1,1,1
11.686841,2302,-25,29,3,-3,-3,-3,-3,-6
11.686854,2303,-32,-16,11,2,10,2,-1,6
11.695543,2304,-8,7,-24,-1,-2,-1,-6,-7
11.695557,2305,-28,28,-15,-7,-5,-3,-2,0
11.709444,2306,-8,45,-3,3,1,0,0,1
11.709471,2307,37,3,11,-2,-3,-2,1,0
11.717386,2308,-35,4,-5,4,11,3,-5,-1
11.717398,2309,-7,-3,9,2,-1,2,8,-4
11.732482,2310,-1,-3,-18,-7,-7,-2,0,0
11.732496,2311,-28,-16,-19,1,1,1,2,5
11.734167,2312,7,13,20,1,0,-1,-4,-6
11.734186,2313,21,23,-27,-4,-2,-1,-5,0
11.747685,2314,-6,-3,30,6,5,1,-1,3
11.747699,2315,-11,3,30,6,3,2,-4,-5
11.755606,2316,4,-32,6,-1,-2,-2,8,-3
11.755619,2317,6,-21,7,-6,-9,-5,-5,-6
11.769358,2318,28,-2,-25,-3,-1,-1,-1,-1
11.770760,2319,-8,-82,-4,0,-2,-1,0,-3
11.776278,2320,-8,38,1,-4,0,-2,-4,4
11.776309,2321,-20,16,10,0,5,1,-2,-1
11.792792,2322,5,-21,32,6,1,-2,2,1
11.792813,2323,-3,8,1,3,1,3,6,5
11.801969,2324,-25,-6,-22,-7,-7,-5,-6,-2
11.801984,2325,42,-20,-7,-5,-4,-1,1,-8
11.815013,2326,-1,-18,-17,-6,-9,-5,-6,-5
11.815041,2327,-8,-2,-3,1,-1,0,1,0
11.817001,2328,3,27,19,5,5,2,2,10
11.817016,2329,-19,-6,-19,0,3,1,-3,-1
11.829425,2330,-6,10,11,1,1,0,-8,-2
11.829444,2331,5,-6,-11,3,6,4,13,3
11.836268,2332,23,9,-3,-2,-5,-1,4,-3
11.836289,2333,-10,35,3,0,-3,-3,-7,-2
11.853525,2334,-2,-30,-14,-7,-7,-3,-4,-3
11.853540,2335,-10,69,-34,-7,-6,-4,0,-5
11.853972,2336,10,-30,51,2,2,1,-5,-9
11.853989,2337,-26,22,19,4,0,-1,3,1
11.875049,2338,3,-41,-6,-1,2,1,-1,-1
11.875067,2339,-3,22,-24,-6,0,-2,-6,3
11.876787,2340,2,-56,-16,5,7,0,-3,-6
11.876846,2341,15,27,13,3,5,2,-4,3
11.889245,2342,-4,7,-11,-17,-24,-11,7,-11
11.889265,2343,18,-57,-4,-6,-4,-5,-5,0
11.896206,2344,-4,20,-13,-2,-3,-1,0,2
11.896229,2345,0,-5,6,3,7,2,-5,4
11.913566,2346,-4,31,-13,3,12,4,1,7
11.913584,2347,-16,15,18,2,-1,1,-1,-4
11.914120,2348,63,-15,-3,2,3,2,-2,-1
11.914139,2349,-42,63,-41,-9,-17,-10,-5,-7
11.935158,2350,46,33,50,-1,-8,-3,-3,-6
11.935180,2351,-8,-16,-2,-7,-5,-2,1,0
11.936920,2352,-10,14,10,2,2,-3,-7,-6
11.936931,2353,2,-26,-16,2,7,5,5,4
11.950107,2354,-15,10,-22,1,6,1,2,1
11.952144,2355,4,39,-5,1,-1,-3,-3,-3
11.956370,2356,11,-62,35,2,-1,-1,-8,-2
11.956393,2357,-2,-8,8,-3,-7,-5,5,-1
11.973961,2358,-6,0,5,-1,7,4,5,5
11.973974,2359,7,3,-5,2,0,-2,0,-4
11.974042,2360,-40,31,-29,-6,-4,0,5,6
11.974076,2361,40,-17,12,-1,-3,-2,-5,-4
11.995256,2362,14,-24,1,5,8,2,-5,3
11.996823,2363,-18,0,-25,-5,-5,-4,-4,-7
11.996835,2364,-18,-28,0,-2,5,1,-1,-5
11.996837,2365,-5,11,28,-7,-20,-5,-2,-1
12.008923,2366,-14,15,-24,-1,-1,0,1,1
12.010672,2367,22,-12,11,-1,-1,-1,-1,0
12.019156,2368,14,20,-21,-6,-4,-2,-2,2
12.019177,2369,-31,15,0,8,15,3,0,0
12.034214,2370,-2,-27,-17,-2,-5,-3,-1,2
12.034230,2371,-43,29,6,3,5,1,-4,0
12.034233,2372,106,-28,-5,-3,-10,-5,-1,-1
12.034236,2373,-55,36,24,-3,-3,0,9,-5
12.055361,2374,26,14,-12,-2,0,-1,-6,-5
12.056997,2375,-10,41,-12,-4,-2,-3,0,-1
12.057007,2376,-27,-41,30,5,4,2,-1,2
12.057009,2377,-2,21,-3,1,5,2,-4,2
12.079295,2378,2,-30,-25,-3,0,-1,-2,-3
12.079306,2379,14,-20,32,3,-5,-1,2,3
12.079308,2380,-3,45,-36,-7,-4,-3,-4,-11
12.079310,2381,21,-49,-16,-2,-3,-5,-1,2
12.094094,2382,-35,2,30,3,7,1,-6,-5
12.094107,2383,45,-15,-6,4,10,4,-3,3
12.094109,2384,-19,5,1,-8,-19,-8,-2,-8
12.094111,2385,-8,-25,-15,-2,2,2,9,4
12.115296,2386,-5,-24,12,4,4,4,4,2
12.115320,2387,-27,13,-1,-6,-1,-3,-2,-10
12.117418,2388,-25,-13,15,1,-5,-2,-5,1
12.117431,2389,-1,-82,-55,-5,8,1,-8,-2
12.128914,2390,19,82,71,9,2,-3,3,2
12.128938,2391,-3,15,22,1,-8,-3,-5,-1
12.138862,2392,-43,51,-30,0,6,0,-11,2
12.138875,2393,19,-82,1,-3,-3,-2,12,-3
12.152751,2394,-30,-11,-31,-7,-5,-2,3,0
12.154775,2395,38,-7,13,3,6,3,1,-2
12.154792,2396,-2,28,-20,-4,6,3,0,1
12.154797,2397,-37,-11,14,-1,-14,-6,-11,5
12.175292,2398,44,-42,-6,-2,-8,-6,-6,-9
12.175325,2399,-18,3,-2,-6,-15,-11,-3,-5
12.176730,2400,-35,8,-14,2,5,3,4,3
12.176803,2401,27,53,-7,3,15,6,-3,-6
12.188835,2402,-79,15,-56,-8,-8,-3,3,15
12.188861,2403,78,-36,59,10,2,0,-4,-4
12.199034,2404,26,-29,-4,-7,-12,-6,-2,-7
12.199066,2405,10,20,-13,-2,-1,-1,-3,-6
12.212834,2406,-11,54,-29,-7,-1,-2,-25,0
12.212856,2407,-38,-67,-23,-2,0,1,23,-1
12.214962,2408,12,-27,16,2,2,-2,-6,-13
12.214979,2409,-21,39,16,4,1,2,5,11
12.235153,2410,38,0,0,2,8,2,-10,-12
12.237055,2411,-27,-1,-18,4,11,1,-7,4
12.237073,2412,1,-10,15,-14,-39,-13,2,2
12.237077,2413,-56,19,-8,1,2,-1,-3,2
12.248991,2414,49,4,-10,-2,-2,-3,-2,-9
12.249015,2415,29,-25,10,5,10,4,-4,-4
12.259036,2416,-25,16,18,-5,-3,-2,-3,2
12.259059,2417,12,5,-7,-2,11,3,9,-1
12.272861,2418,-12,-26,27,-2,-19,-5,14,28
12.272884,2419,35,9,-13,-5,-2,0,-5,-21
12.274700,2420,-30,-49,-53,-7,7,2,-5,-4
12.274713,2421,64,34,93,15,-1,-3,-9,-7
12.294912,2422,-10,-25,33,2,6,5,-5,1
12.294933,2423,-46,37,-16,-6,-5,0,18,16
12.297567,2424,32,55,10,7,7,10,21,11
12.297579,2425,-15,-38,-23,-4,4,1,-7,-4
12.308815,2426,10,-16,-30,1,2,-2,5,-9
12.308842,2427,-35,77,33,-1,-9,-4,-26,9
12.319665,2428,-32,-33,6,3,0,-3,13,3
12.319679,2429,69,-5,-21,-8,-13,-5,5,-4
12.332811,2430,-6,6,-7,-2,0,0,-5,-1
12.335266,2431,-10,-65,-25,-8,-13,-4,-4,-2
12.335295,2432,30,54,28,9,14,2,-19,4
12.335299,2433,-44,57,-17,1,2,3,4,-8
12.356154,2434,45,-30,-22,-9,-4,-4,-5,-20
12.356183,2435,-26,-21,2,-3,-5,-3,1,0
12.357028,2436,30,-11,-7,-1,1,0,0,6
12.357044,2437,-53,23,10,-3,-4,-4,-4,3
12.368920,2438,0,38,-17,2,21,8,-5,0
12.368938,2439,35,-74,52,5,-10,-7,15,4
12.378162,2440,15,6,-11,-4,-5,-2,-8,-15
12.378174,2441,-11,-14,-6,-4,-3,0,-2,2
12.392835,2442,-32,-18,-21,-5,0,1,5,3
12.392863,2443,29,18,-42,3,3,-1,-7,12
12.394147,2444,-43,-55,38,1,-5,-4,-2,-14
12.394166,2445,8,33,-22,-2,-1,-2,-13,6
12.415350,2446,43,-24,50,12,9,5,16,0
12.415385,2447,-71,26,-38,1,2,-1,-3,-3
12.417279,2448,18,-59,-11,-11,-17,-10,-8,-8
12.417302,2449,6,0,-24,-3,0,-1,5,4
12.428946,2450,-76,-37,3,1,-6,2,12,2
12.428972,2451,88,36,-6,-1,22,7,-7,-12
12.438538,2452,-67,84,-13,0,3,1,4,10
12.438549,2453,-3,-54,43,2,-6,-8,-12,-4
12.452889,2454,14,0,-1,-9,-28,-12,-5,3
12.452915,2455,-38,-25,-12,-4,0,1,5,-8
12.454424,2456,-2,-48,9,7,14,3,-4,2
12.454435,2457,25,76,-2,0,1,0,1,-6
12.475135,2458,5,-7,34,11,3,3,4,1
12.475158,2459,-21,87,9,-6,-4,0,-3,-1
12.476429,2460,30,27,-8,3,5,1,-5,-6
12.476444,2461,-3,-82,11,3,8,4,17,5
12.488608,2462,-20,36,-21,-8,-11,-5,-4,-5
12.488625,2463,1,-7,26,-2,-7,-2,-9,1
12.499318,2464,-49,69,3,10,13,4,2,5
12.499334,2465,27,34,-31,-10,-16,-4,8,-10
12.512753,2466,4,6,6,2,0,-1,-5,-1
12.514557,2467,40,16,-32,-7,-2,-3,-9,1
12.514571,2468,-45,22,-4,2,2,-1,2,-9
12.514574,2469,3,41,6,5,2,2,0,13
12.535010,2470,65,-61,-24,-11,-10,-9,-10,-18
12.535039,2471,-80,120,13,1,-1,-1,1,7
12.537061,2472,120,-127,-44,-12,-5,-3,-5,-11
12.537073,2473,-15,-14,2,-2,4,2,-7,10
12.548720,2474,-33,69,-7,7,10,1,3,-3
12.548741,2475,-1,-72,17,-6,-8,0,2,9
12.558433,2476,-56,86,7,9,4,-1,11,7
12.558445,2477,67,-100,14,-8,-16,-4,6,-15
12.572817,2478,-3,1,-23,-5,5,0,-14,-5
12.574464,2479,0,-31,-5,-1,0,-1,-2,-7
12.574481,2480,-19,127,-10,-1,1,3,2,8
12.574483,2481,-26,-106,13,3,4,-1,-11,6
12.595092,2482,-11,55,7,5,5,0,5,-4
12.595114,2483,-15,-82,-14,-1,23,-4,0,-8
12.596414,2484,62,-29,-5,-7,-30,1,1,11
12.596437,2485,-26,72,-4,0,1,-1,-4,-13
12.608704,2486,-3,-71,-14,-8,-4,-4,-8,-6
12.608730,2487,14,24,34,9,8,3,6,13
12.621991,2488,-9,8,2,-1,10,1,1,-8
12.622009,2489,-13,-39,-31,-3,-9,-8,-11,-5
12.632710,2490,-43,-2,35,5,-1,4,15,21
12.632738,2491,96,18,-24,-5,0,1,-1,-16
12.634337,2492,-75,-38,0,0,4,-3,-4,-1
12.634355,2493,93,35,-10,-5,-15,-6,-4,-8
12.655104,2494,-46,75,2,1,15,3,-1,6
12.655191,2495,-62,-50,-24,-2,-9,-3,0,9
12.656603,2496,35,-67,35,-5,-15,-2,1,3
12.656622,2497,-11,-11,-15,-8,1,-5,-10,-15
12.668710,2498,9,40,2,-2,-4,-2,-4,-4
12.668736,2499,-2,-37,5,5,1,2,2,0
12.678083,2500,-6,30,-2,9,19,9,4,6
12.678149,2501,-70,34,10,-4,-6,-3,-5,11
12.692645,2502,88,-85,-3,-5,-8,-3,-4,-22
12.692681,2503,37,19,-13,-7,-13,-4,-9,-18
12.694184,2504,3,46,8,2,5,-1,3,1
12.694279,2505,-83,-56,5,3,4,6,12,14
12.715023,2506,9,-21,1,-2,0,-2,-5,-5
12.715118,2507,66,-59,-22,-10,-8,-4,-3,-9
12.716348,2508,-6,-26,-2,2,-1,-4,-7,-4
12.716394,2509,-34,111,44,17,15,10,11,35
12.737501,2510,-104,-53,-30,-17,-10,-9,-13,-31
12.737526,2511,-102,-69,-4,-1,-6,-1,-2,-7
12.739087,2512,12,64,-1,-6,-4,-3,1,1
12.739161,2513,-17,-21,5,7,8,4,2,-2
12.752565,2514,-53,-33,2,6,16,3,2,10
12.752584,2515,35,87,8,-5,-9,-8,-12,-1
12.753947,2516,-13,-25,-9,-3,-40,-4,1,-7
12.753961,2517,-16,0,11,-2,8,6,3,7
12.774923,2518,115,6,-5,-1,-15,-10,-12,-12
12.774944,2519,-17,31,-3,-20,-15,-4,-5,-32
12.776614,2520,-35,-29,6,6,14,-1,0,11
12.776630,2521,-41,19,-4,5,24,-5,-3,-6
12.797839,2522,73,36,8,1,-13,10,6,14
12.797862,2523,16,-2,-4,-4,-9,-4,-8,-11
12.799743,2524,28,-30,-24,-7,-1,-3,-4,-7
12.799755,2525,-37,-13,-1,-2,-2,1,0,-4
12.812819,2526,-81,-11,10,5,20,3,8,20
12.812853,2527,80,60,-21,6,-1,5,7,20
12.814786,2528,-50,15,73,7,4,-2,-7,2
12.814799,2529,7,-128,-53,-18,-16,-13,-23,-40
12.835174,2530,-46,41,10,5,2,1,10,16
12.835198,2531,2,29,8,2,6,5,5,7
12.836464,2532,52,17,-18,-3,8,2,0,-3
12.836486,2533,12,43,3,-2,-6,-2,3,4
12.857669,2534,-90,13,27,5,-8,-1,-9,10
12.857694,2535,72,1,-16,-5,7,-2,-7,-16
12.859493,2536,-36,-75,-30,-7,-3,-7,3,-3
12.859511,2537,38,16,13,1,0,1,0,-4
12.872078,2538,-15,3,-8,-5,-9,-3,-2,-4
12.872101,2539,-33,3,14,6,2,3,2,21
12.878812,2540,23,43,-1,3,11,4,-1,9
12.878829,2541,4,7,3,5,2,2,2,2
12.895126,2542,19,-13,2,-9,-6,-5,-1,-4
12.895151,2543,0,-3,-27,-9,-5,-7,-14,-30
12.896380,2544,27,-23,-6,-6,-2,-1,-2,-7
12.896393,2545,-9,19,5,1,0,-1,0,9
12.917927,2546,1,50,10,8,8,2,5,13
12.917958,2547,-59,-4,5,7,8,2,6,5
12.920230,2548,49,-10,10,3,-4,-2,-5,-10
12.920242,2549,-43,-34,-17,-7,-9,-1,-2,6
12.932096,2550,64,-22,-9,-3,0,2,1,-1
12.932121,2551,-45,-18,9,-4,-8,-5,-3,-3
12.938569,2552,-31,38,-10,2,15,6,3,2
12.938587,2553,54,28,8,5,-1,-3,2,1
12.955021,2554,-10,-62,-17,-8,-2,-4,-10,-12
12.955119,2555,11,14,0,-1,-6,-3,10,-3
12.956456,2556,-55,-49,7,0,3,3,10,16
12.956475,2557,80,21,-12,-9,-9,-6,-12,-20
12.977804,2558,4,16,-4,-2,-3,-1,3,7
12.977828,2559,-35,5,-3,5,11,5,-4,-6
12.979761,2560,-57,46,8,-2,-4,-6,-7,-6
12.979778,2561,34,-5,7,-1,-11,-1,3,-7
12.991780,2562,7,-33,-23,0,6,0,-3,1
12.991814,2563,-72,-105,66,20,20,10,9,18
12.998801,2564,45,64,-3,-11,-6,-13,-10,-15
12.998830,2565,-14,-26,-23,-11,-31,-1,-3,-3
13.014884,2566,32,18,5,0,-4,-2,-2,-7
13.014898,2567,-9,21,-11,0,0,1,4,14
13.016409,2568,2,-24,-17,-3,5,1,-3,-3
13.016430,2569,6,24,24,6,11,-1,-5,5
13.037465,2570,-32,34,-3,-3,-1,0,8,-3
13.037484,2571,6,14,-15,-11,-9,-2,1,-1
13.038983,2572,27,-39,-24,-4,-1,-2,-8,-8
13.038998,2573,-7,22,63,11,6,-2,2,-2
13.052018,2574,-27,-31,4,-4,-22,-6,-8,-7
13.052044,2575,-26,6,-7,1,3,-1,1,16
13.060550,2576,6,10,2,0,2,1,-1,-12
13.060568,2577,-13,9,-23,-1,11,3,1,4
13.075288,2578,9,54,23,5,5,1,3,-3
13.075302,2579,67,-16,-7,-5,-6,-5,-6,-15
13.076460,2580,-7,-60,-16,-7,-6,-2,-3,8
13.076476,2581,-11,2,-12,0,5,0,-3,-4
13.097831,2582,-35,57,12,6,6,3,5,-1
13.097855,2583,2,56,-4,-4,-6,-1,8,3
13.099918,2584,-1,-8,-2,1,0,3,2,2
13.099935,2585,8,-21,-9,3,9,2,2,4
13.111037,2586,-48,18,25,13,20,5,-4,8
13.111054,2587,39,-86,-14,-10,-20,-11,-5,-14
13.120582,2588,31,35,-3,-5,-12,-3,1,-2
13.120593,2589,-12,5,-4,-3,-4,-2,0,1
13.135662,2590,7,-25,-21,-6,-1,-2,-6,-5
13.135688,2591,-55,22,18,9,15,5,1,8
13.136459,2592,0,20,-13,4,5,1,1,0
13.136474,2593,20,25,-15,-5,-8,-5,-5,-2
13.157687,2594,-4,-4,18,2,6,2,0,2
13.158966,2595,-59,-49,1,0,-2,-3,-8,6
13.158978,2596,59,16,0,0,-4,0,5,-1
13.158979,2597,42,4,-24,-11,-2,-3,-4,-7
13.171196,2598,26,-33,-17,-3,-3,-5,0,-6
13.171214,2599,-16,97,-16,7,13,5,4,9
13.188520,2600,-83,-25,29,7,-5,-3,-10,5
13.188571,2601,87,-37,-23,-15,-21,-7,1,-15
13.195426,2602,9,28,-1,-5,-7,-2,-4,3
13.195439,2603,-9,-2,-25,-4,-6,-3,-4,6
13.196571,2604,-37,27,4,-6,11,3,4,7
13.196598,2605,-25,-3,20,21,14,7,5,6
13.217841,2606,16,43,-19,-10,-10,-3,-1,-6
13.217868,2607,11,-88,22,4,-2,-4,-8,-9
13.219568,2608,2,-5,-6,-2,-2,-1,1,-2
13.219579,2609,-14,-13,1,-10,-3,-3,-4,-2
13.231644,2610,30,11,-5,0,-3,-2,-1,3
13.231668,2611,-63,55,18,14,22,8,3,4
13.241642,2612,105,-68,-10,-8,-14,-10,-12,-17
13.241654,2613,-8,9,-9,-17,-28,-9,5,-4
13.255945,2614,-35,-63,-7,-1,3,3,6,0
13.255956,2615,21,50,17,0,-2,-2,1,3
13.256498,2616,-34,23,1,3,10,3,1,4
13.256512,2617,-44,-43,-18,0,11,-1,-10,-5
13.277668,2618,26,7,18,-1,-4,-5,-5,-6
13.279770,2619,-22,-32,2,-1,-2,1,3,-1
13.279787,2620,-6,112,18,8,8,6,13,17
13.279791,2621,-105,-88,-31,0,-1,-4,-11,-18
13.291478,2622,-5,3,5,-3,-7,-3,-1,-4
13.293026,2623,41,56,-9,-11,-9,-6,-8,-8
13.301520,2624,-11,15,4,3,6,3,3,11
13.301535,2625,-11,10,6,9,11,2,-2,-3
13.316593,2626,0,-43,-19,-8,-19,-10,-8,-10
13.316607,2627,28,39,12,4,-6,-1,7,4
13.316611,2628,11,34,-17,-12,-13,-4,4,0
13.316660,2629,-30,-28,6,2,10,4,1,9
13.337595,2630,12,-37,-2,2,7,1,-3,-7
13.338839,2631,36,5,1,-5,-3,-1,-6,-2
13.339027,2632,-41,-36,-6,0,6,0,-3,-6
13.339149,2633,-53,57,27,5,4,2,5,13
13.351367,2634,49,-37,-51,-10,-8,-2,-5,-7
13.351494,2635,56,26,9,1,3,0,-1,-5
13.361432,2636,-12,-84,7,-3,-8,-2,-1,-10
13.361450,2637,-22,-16,8,-4,-8,-4,-5,-2
13.376772,2638,13,18,-11,-11,2,-2,-3,-7
13.376783,2639,-46,-56,12,10,5,2,0,-1
13.376786,2640,66,26,-11,0,-2,-1,-2,0
13.376788,2641,18,69,3,-1,4,3,4,7
13.397858,2642,-40,-60,54,9,1,-1,3,3
13.399547,2643,-28,23,-21,-3,-4,-2,0,1
13.399556,2644,39,-59,5,-7,-9,-5,-6,-20
13.399558,2645,30,16,8,2,3,1,7,10
13.411463,2646,-7,65,-17,1,7,3,0,1
13.411485,2647,15,16,-13,-4,-2,-3,-6,-5
13.421412,2648,-78,-11,24,4,-4,-2,-3,-4
13.421429,2649,75,6,-26,-12,-11,-5,-4,-9
13.437002,2650,6,25,-6,3,14,3,4,1
13.437018,2651,-20,-77,-1,-1,-9,-4,-3,-2
13.437022,2652,4,17,-12,-5,-2,0,-1,0
13.437025,2653,7,9,14,2,3,1,0,0
13.465140,2654,3,24,-10,4,0,3,-1,4
13.465164,2655,-60,-14,-1,-2,-4,-2,-1,-2
13.467232,2656,51,-34,-10,-2,-2,-6,-7,-9
13.467246,2657,12,2,0,-1,1,3,-1,0
13.471349,2658,-25,3,10,3,1,-2,-8,3
13.471373,2659,22,63,-27,-8,3,-3,3,-6
13.481875,2660,22,-50,14,3,7,5,9,9
13.481889,2661,-94,-17,7,-2,-16,-6,-9,-8
13.495157,2662,19,29,-12,-2,-1,2,0,3
13.495179,2663,10,0,-3,-1,-2,-1,-3,-1
13.496821,2664,-17,-18,2,2,-1,-1,-2,4
13.496833,2665,39,25,5,1,5,1,1,0
13.518183,2666,-4,-20,7,-1,-3,-3,1,0
13.518497,2667,-5,16,0,-4,-1,0,0,-2
13.520256,2668,-12,-62,19,3,7,0,-2,-1
13.520269,2669,-2,43,-25,-7,-5,-4,-2,-1
13.531362,2670,0,-28,25,4,-2,-3,1,3
13.531453,2671,10,-39,-14,-5,-5,0,-4,-5
13.541591,2672,-61,40,-3,-2,-4,-2,1,-2
13.541618,2673,107,1,-5,0,5,1,-4,-9
13.555233,2674,-55,-80,17,-1,2,-1,-1,1
13.557331,2675,28,5,-4,1,1,-1,-1,0
13.557343,2676,-9,40,-15,-13,-2,-3,-12,0
13.557346,2677,-34,13,-8,3,2,-2,10,1
13.577660,2678,0,-46,-9,3,-1,0,1,-1
13.577682,2679,7,22,33,1,-2,1,-4,0
13.580459,2680,-10,-13,-3,2,-5,-1,0,2
13.580476,2681,4,4,21,-3,2,-3,-6,-2
13.591506,2682,28,23,-26,-2,-1,-3,-1,-3
13.591611,2683,-21,0,-22,0,7,3,3,3
13.602155,2684,-1,20,15,9,0,-1,-3,-2
13.602174,2685,-18,-4,24,-4,-10,-2,1,0
13.614380,2686,-4,16,-8,-1,0,1,2,2
13.614404,2687,16,8,-2,-6,-4,-4,-3,-7
13.621177,2688,-17,-32,7,1,1,2,4,7
13.621309,2689,-15,-20,-20,-6,-1,-1,-2,-3
13.637813,2690,40,3,-3,-1,-1,-2,-6,-8
13.637931,2691,-11,16,1,12,4,4,1,5
13.639064,2692,6,38,-4,0,-3,-2,6,-2
13.639089,2693,0,-38,4,6,0,0,-4,1
13.651311,2694,-7,9,-3,-7,-2,0,1,2
13.651424,2695,3,-23,-17,-8,-1,-4,-3,0
13.660826,2696,4,45,52,15,8,2,-1,1
13.660837,2697,4,0,-7,-7,-13,-5,-5,-4
13.674586,2698,-38,-43,-18,-7,3,0,-2,-7
13.674609,2699,11,-1,-5,-7,-9,-5,-5,-9
13.681234,2700,0,89,-69,-15,-8,-5,-4,-1
13.681324,2701,12,-37,57,10,5,1,1,3
13.697845,2702,11,54,12,4,1,-1,-1,3
13.697870,2703,-11,-3,-13,0,4,3,4,6
13.699896,2704,-2,-89,7,0,1,0,-2,-5
13.699917,2705,20,94,-12,1,0,0,-8,9
13.719898,2706,-43,-50,-4,-7,-10,-6,2,-13
13.719916,2707,5,-75,-4,1,-6,-1,4,1
13.721495,2708,-21,-28,-6,-2,-1,-2,-6,-8
13.721514,2709,11,6,-15,-6,2,-1,-2,1
13.734480,2710,-3,44,35,8,1,1,-2,6
13.734498,2711,4,60,20,4,7,1,-2,2
13.743994,2712,-8,-8,-8,0,1,-1,-1,1
13.744005,2713,-27,-25,-20,2,8,4,4,0
13.757877,2714,26,25,-7,-17,-23,-7,-7,-12
13.757902,2715,14,-34,-11,-4,-4,-1,-6,-1
13.759162,2716,16,68,-3,-2,-4,-1,5,1
13.759182,2717,-1,-44,-30,-2,3,0,3,7
13.780351,2718,-27,-22,-17,3,8,3,1,3
13.780375,2719,-5,84,56,9,5,0,-4,-7
13.781884,2720,24,-48,-22,-18,-12,-10,-17,-6
13.781896,2721,21,4,-6,-2,-10,-3,15,6
13.802582,2722,35,-33,4,0,-6,0,2,3
13.802607,2723,-26,-20,-1,-1,-3,-3,-3,-3
13.803965,2724,-7,56,-8,2,8,2,-2,-3
13.803987,2725,-14,-18,3,4,5,0,-4,-5
13.817781,2726,11,7,23,-1,-1,-2,0,6
13.817892,2727,-50,-8,11,0,-3,3,9,5
13.819144,2728,13,-48,-21,-5,-2,-5,-5,-11
13.819161,2729,-4,-5,-6,-3,-2,0,-4,-6
13.840490,2730,-10,32,-6,6,5,0,-1,0
13.840513,2731,-2,-78,-20,-3,-4,-2,0,3
13.842399,2732,1,26,40,4,3,2,3,2
13.842416,2733,-11,-8,5,3,5,2,-5,-5
13.854538,2734,-26,58,-32,0,8,1,5,8
13.854560,2735,29,-78,9,-10,-7,-2,-2,-10
13.861484,2736,5,3,-8,0,-5,-2,1,-3
13.861510,2737,-5,-21,6,-2,-9,-2,-4,-10
13.877448,2738,-8,-2,-12,-7,0,0,0,0
13.877467,2739,5,11,-33,-3,-1,-3,9,4
13.878973,2740,-7,18,1,2,7,3,-9,1
13.878993,2741,-15,60,40,13,13,4,0,-4
13.900366,2742,53,-6,-8,-7,-12,-6,-6,-6
13.900399,2743,-64,-106,-14,-14,-7,-4,-4,-14
13.902344,2744,20,49,-13,2,-2,-1,2,0
13.902358,2745,5,12,-21,-3,0,0,2,7
13.914620,2746,-14,-33,21,5,5,2,-3,-2
13.914643,2747,28,115,-3,3,7,1,-4,7
13.921288,2748,0,-38,11,2,-7,-4,8,10
13.921312,2749,-36,-45,28,-6,-9,-4,1,-16
13.937508,2750,5,-19,-26,-5,6,0,-6,-3
13.937525,2751,19,19,4,2,-5,-3,-5,-1
13.939007,2752,-7,10,-13,-4,-5,0,-5,-6
13.939030,2753,11,41,-12,1,0,-2,0,10
13.960020,2754,-20,9,10,0,-6,-1,-2,0
13.960037,2755,-12,-3,-13,-9,2,-2,-4,-7
13.961805,2756,0,-8,-17,-5,-2,-4,-3,-4
13.961822,2757,24,42,-38,0,0,-2,0,-3
13.973946,2758,-8,14,49,13,7,2,2,4
13.973976,2759,16,20,15,9,1,-1,-1,5
13.982739,2760,-3,22,-3,-6,-1,-2,2,-1
13.982768,2761,-9,-70,-25,-10,2,1,4,3
13.997399,2762,9,20,-30,0,0,-2,0,0
13.997416,2763,-25,-53,51,9,-4,-4,3,-6
13.998973,2764,6,53,11,-1,-3,2,-1,3
13.998999,2765,22,-18,-14,0,7,-2,-4,2
14.020475,2766,-5,-26,-5,-5,-7,-4,-6,-3
14.020494,2767,7,6,-16,-4,-2,1,-3,-1
14.022304,2768,-22,-22,14,6,3,0,2,2
14.022315,2769,0,-33,10,1,1,-1,-4,-1
14.033473,2770,24,21,54,0,0,1,2,3
14.033492,2771,6,16,-27,3,-1,1,-1,2
14.043999,2772,-42,-24,-6,-5,0,-1,-4,-4
14.044022,2773,-1,13,21,6,0,-1,-2,9
14.057568,2774,7,-96,-19,-5,1,-1,-5,-19
14.057589,2775,9,28,6,-1,-2,-5,-5,2
14.059073,2776,-6,-38,-25,-3,-5,-3,-3,-5
14.059088,2777,34,31,10,-6,-2,1,5,3
14.080093,2778,-26,15,4,1,5,0,-2,3
14.080124,2779,4,-12,5,2,-2,2,4,-4
14.082216,2780,16,29,-10,-2,1,0,1,11
14.082233,2781,-53,-73,-3,-3,-7,-5,-13,-10
14.093751,2782,26,17,-27,-6,-4,0,-1,-2
14.094614,2783,17,8,2,0,6,-1,-2,-3
14.102536,2784,18,31,35,7,2,-2,2,3
14.102551,2785,-9,13,4,2,2,4,4,3
14.117607,2786,-1,65,-23,-3,-3,-3,-1,0
14.117700,2787,-12,-113,21,8,5,-1,-4,0
14.119225,2788,-2,-1,8,-1,-6,1,2,-1
14.119259,2789,34,-40,-14,-11,-14,-6,-10,-2
14.140417,2790,-46,23,-9,7,-1,7,-13,60
14.140455,2791,-100,44,-25,-9,-3,-1,5,4
14.142029,2792,-111,-23,-14,5,4,-1,11,-20
14.142041,2793,-55,43,1,8,19,1,11,-36
14.153850,2794,-63,53,-33,-6,-4,-6,13,-28
14.153866,2795,75,16,28,-10,-19,-5,-8,-20
14.162949,2796,-35,-102,9,-5,-2,-1,2,-18
14.162965,2797,51,-10,-21,-8,-6,-5,-11,-4
14.177624,2798,31,27,6,5,12,0,0,7
14.177647,2799,28,60,-26,0,10,3,-1,11
14.178918,2800,42,42,53,8,1,1,-6,3
14.178999,2801,18,4,14,2,-3,1,-9,8
14.200280,2802,12,-31,8,-2,4,3,3,-4
14.200367,2803,-37,8,-23,1,1,-2,3,-1
14.202337,2804,77,32,-25,-9,-7,-1,-7,4
14.202349,2805,-14,-79,-26,-15,-11,-3,-4,4
14.213942,2806,-30,-8,30,-1,-12,-7,-3,-15
14.214908,2807,26,11,23,4,2,5,5,-2
14.222595,2808,-11,44,-28,0,7,2,0,8
14.222611,2809,-1,75,28,5,4,2,-2,2
14.237800,2810,21,-115,-24,-5,-7,-4,-4,-11
14.237817,2811,-12,11,-33,-5,0,-3,-6,-3
14.239163,2812,24,7,57,18,11,3,1,5
14.239192,2813,-56,34,1,7,5,2,6,-2
14.260585,2814,28,33,6,-12,-16,-8,-7,-7
14.262504,2815,-10,-10,-23,-10,-8,0,1,6
14.262517,2816,-2,-89,17,0,-2,-1,-5,-1
14.262519,2817,16,-23,-20,-15,-13,-8,-11,-14
14.273800,2818,24,31,24,3,8,3,3,3
14.274610,2819,1,68,18,11,8,1,-1,5
14.282529,2820,6,15,-41,-5,1,1,0,4
14.282543,2821,-16,26,23,11,5,1,2,6
14.297998,2822,-21,-21,-2,3,0,0,-2,-2
14.298018,2823,18,35,6,-10,-7,-5,-7,0
14.299345,2824,-33,-41,-23,-7,-3,-3,2,-8
14.299362,2825,7,-21,1,1,-3,-2,-1,2
14.320038,2826,-3,41,-14,-4,-3,-2,1,-4
14.320068,2827,-6,-80,7,0,-1,-2,-9,-4
14.321769,2828,-6,31,5,1,3,-2,-10,3
14.321780,2829,6,28,-9,2,6,0,6,4
14.334171,2830,-13,-56,0,-1,-11,-2,0,-7
14.335810,2831,-14,-21,-1,-1,-6,-2,-3,-2
14.343222,2832,8,-26,30,-2,0,0,1,-2
14.343239,2833,12,8,-20,-2,-3,-3,-3,0
14.357767,2834,-9,86,39,3,8,1,1,5
14.357779,2835,-4,-105,-1,11,16,2,2,3
14.358924,2836,-18,26,1,10,4,1,2,2
14.358942,2837,45,-38,-41,-8,-10,-2,-11,-11
14.380243,2838,-20,-69,44,-10,-24,-6,3,-4
14.382201,2839,3,-32,-14,-9,-10,-3,5,-1
14.382219,2840,9,46,-29,-10,2,0,-2,1
14.382224,2841,-25,-24,26,9,15,2,3,11
14.393874,2842,-7,25,-36,0,5,-1,-9,-6
14.393892,2843,23,53,5,-5,-5,0,0,2
14.402885,2844,4,-53,-11,-4,-5,-4,-1,-8
14.402896,2845,-1,37,-6,-9,-6,-3,0,2
14.417958,2846,8,42,22,6,8,1,1,-1
14.417981,2847,37,-35,42,16,3,-3,-3,-3
14.418992,2848,13,-29,-18,-4,-4,-1,-1,-2
14.419009,2849,11,-34,0,-7,-7,-4,-2,-10
14.440331,2850,19,12,-26,-10,-3,-3,-2,0
14.442253,2851,-30,37,-27,-1,5,0,-4,-2
14.442271,2852,23,97,40,7,-1,-4,1,0
14.442276,2853,-1,42,26,4,-2,4,13,15
14.453814,2854,-32,-4,-29,-1,6,1,-4,-13
14.453836,2855,-23,0,-18,-4,0,-2,-3,-3
14.463498,2856,19,-39,-10,-7,-1,1,2,2
14.463516,2857,-21,-22,10,1,0,0,-3,-2
14.478135,2858,13,-12,-10,-1,-3,-1,2,-4
14.478148,2859,-11,-36,4,-8,-2,0,-2,-1
14.478948,2860,-6,13,-25,-1,-4,-6,-4,-2
14.478962,2861,-6,34,34,4,4,-2,0,7
14.500044,2862,-9,38,-4,7,3,-1,-4,0
14.500066,2863,6,-12,6,-3,-7,-2,0,-1
14.501791,2864,8,-53,-12,-4,3,2,2,1
14.502013,2865,-8,43,13,-1,-10,-4,-2,-1
14.514117,2866,27,-35,-21,-4,5,2,-2,3
14.514140,2867,-24,-45,0,0,1,-4,-11,-2
14.523673,2868,-20,36,36,9,6,3,9,0
14.523687,2869,-25,-24,-16,-7,-8,-3,-4,-10
14.536196,2870,-2,-23,15,4,-1,1,3,9
14.536214,2871,-1,9,-19,-11,-6,-4,-2,-9
14.545726,2872,-16,-48,-16,-9,-5,-3,-6,-1
14.545749,2873,14,-16,-8,3,4,0,1,1
14.560235,2874,7,29,4,4,7,0,3,8
14.560266,2875,2,47,8,0,2,0,-1,1
14.561774,2876,-44,-10,31,3,-7,-3,-5,-6
14.561786,2877,6,-18,-22,-13,-2,-2,-1,-3
14.573937,2878,-15,-45,7,12,3,0,-3,2
14.573956,2879,8,-27,-40,1,3,1,3,0
14.583837,2880,-3,51,21,-1,-1,0,-15,-8
14.583852,2881,15,1,-18,-4,-1,-1,5,-2
14.598994,2882,8,-26,20,-4,-5,-2,5,-5
14.599006,2883,-3,16,-7,-9,-8,-3,-1,9
14.603737,2884,42,2,-49,-8,2,-1,1,3
14.603806,2885,-28,-35,-1,10,2,-2,-8,-3
14.619903,2886,-44,-38,-18,-6,-9,-4,-6,-11
14.619922,2887,15,53,20,2,5,2,7,3
14.621449,2888,16,-41,4,0,-2,-2,-2,3
14.621459,2889,8,55,11,1,1,-1,-1,-2
14.644384,2890,-9,-33,-11,-3,5,0,0,0
14.644396,2891,-9,1,85,9,-1,0,0,3
14.644399,2892,-5,-36,-16,-4,-4,-2,-2,-10
14.644401,2893,57,2,-5,-4,-8,-4,-2,4
14.657185,2894,7,-8,-1,4,-3,-1,6,-2
14.657209,2895,22,42,-32,-7,5,-2,-7,-3
14.663980,2896,-41,43,30,11,6,3,-1,6
14.664046,2897,16,-7,-1,-8,-9,-1,3,-7
14.680228,2898,29,-23,-19,-8,-4,-5,-5,1
14.682345,2899,-12,26,-12,1,-2,2,4,2
14.682362,2900,-4,67,-9,0,-1,-3,-5,-3
14.682422,2901,-37,-25,12,2,9,2,-2,0
14.704409,2902,29,72,4,-1,-5,-1,-3,2
14.704421,2903,-17,-15,-11,7,7,2,-13,-4
14.704423,2904,6,-43,-24,-5,-9,-5,8,7
14.704425,2905,-31,21,-36,-4,10,5,4,4
14.717080,2906,-6,20,56,7,-3,0,5,2
14.717111,2907,55,40,-4,-6,-16,-2,-5,0
14.724271,2908,-4,-65,-28,-13,-5,-5,-6,-16
14.725718,2909,-15,-26,13,17,17,2,1,6
14.740262,2910,-5,89,-5,-9,-2,-2,-2,4
14.740279,2911,-9,-54,26,10,3,2,5,2
14.741973,2912,-3,-13,4,-2,-7,-6,-5,-8
14.741988,2913,6,4,3,0,-1,0,3,1
14.762683,2914,-10,36,-33,-3,7,0,-5,0
14.762714,2915,-16,-8,18,3,-2,0,4,-2
14.764511,2916,6,-32,-43,-5,4,2,2,12
14.764524,2917,-37,67,60,9,-6,-4,-7,-20
14.776934,2918,13,-98,-18,-11,-8,1,9,0
14.776956,2919,5,68,-22,-12,-10,-6,-1,-9
14.783703,2920,24,-63,15,7,7,1,-6,8
14.783732,2921,-19,15,-24,-4,-1,-3,-6,17
14.799422,2922,-16,50,27,-4,-12,-3,4,-15
14.799452,2923,-22,-17,-3,-2,3,1,6,-14
14.808752,2924,27,11,-1,-5,-2,-4,-9,-15
14.808765,2925,26,-6,14,8,15,2,-6,6
14.822964,2926,-18,-24,-18,-4,-13,-2,-3,14
14.824536,2927,2,-83,-19,-8,-7,-1,6,2
14.824549,2928,-7,77,2,-5,-4,-1,-2,5
14.824550,2929,2,45,15,1,1,-1,4,4
14.836787,2930,6,-28,-29,4,16,3,6,0
14.836809,2931,-21,5,22,3,3,0,-14,-5
14.851481,2932,4,-62,-20,-2,-9,-3,-1,-1
14.853392,2933,28,25,10,2,-10,-4,-9,-1
14.860442,2934,-2,-43,-5,-4,7,1,2,-5
14.860488,2935,18,-6,-11,-2,-5,-5,-2,-9
14.861871,2936,-21,75,13,-4,0,1,6,6
14.861882,2937,10,21,-12,-2,-4,-2,-1,-3
14.882820,2938,15,-66,3,-4,-3,-5,-13,-6
14.882842,2939,0,-50,-20,-2,2,-1,0,1
14.884955,2940,13,91,-19,-2,1,-1,2,3
14.884972,2941,-22,-128,42,5,-7,1,-7,-5
14.897114,2942,-10,21,-8,6,10,3,6,6
14.897137,2943,7,12,8,10,7,2,14,13
14.911560,2944,20,36,-5,-15,-20,-2,3,-15
14.911589,2945,-14,-82,-45,-11,-3,-3,-5,-2
14.919981,2946,3,87,15,4,2,-3,-9,-1
14.920000,2947,-5,-63,-15,-2,3,-1,-8,-5
14.921564,2948,-2,39,33,14,2,3,5,7
14.921579,2949,20,20,-8,-6,-1,1,7,-1
14.942656,2950,-24,-7,-1,2,-3,-5,-6,-4
14.942678,2951,4,58,-39,-7,-1,1,-1,8
14.944963,2952,20,-49,68,0,-14,-5,-16,-9
14.944977,2953,8,-31,-15,-4,-5,-1,9,0
14.957144,2954,-1,-40,-20,-3,4,2,-5,-3
14.958563,2955,-8,40,-5,1,2,-3,1,-2
14.963987,2956,-29,-15,-7,-6,7,-1,-7,6
14.964011,2957,23,-33,-12,-1,-3,-2,11,0
14.980338,2958,32,43,29,2,-5,0,8,-5
14.980364,2959,-60,-25,12,-4,-8,-4,-8,-5
14.982579,2960,1,-49,-13,4,3,1,5,-1
14.982596,2961,-17,53,-3,-8,-2,0,-5,1
15.002790,2962,13,-25,9,2,6,-1,-4,7
15.002809,2963,19,-10,20,-5,-11,-4,-3,-3
15.004533,2964,-6,11,-48,-1,10,3,0,1
15.004550,2965,-11,-69,18,2,-3,-1,-3,2
15.017139,2966,-9,54,18,3,-11,1,-1,4
15.017165,2967,3,-8,9,-4,-2,-3,-8,-13
15.024100,2968,2,1,-16,1,6,0,1,-3
15.024124,2969,1,10,-4,-2,2,0,-2,-1
15.040345,2970,-8,3,-7,2,10,0,2,1
15.041804,2971,-5,13,5,0,-3,2,14,6
15.041816,2972,-2,12,-2,5,-1,-1,-13,-1
15.041818,2973,5,-13,-12,-1,0,-2,7,-10
15.062897,2974,6,-30,3,-7,-4,-4,-14,4
15.062923,2975,-23,78,-13,-2,1,-1,-1,-3
15.064402,2976,10,-69,5,0,3,-2,3,1
15.064414,2977,-6,107,-18,-4,-6,-2,-7,0
15.077129,2978,20,-45,-42,-9,-3,-3,-2,-2
15.077152,2979,-16,66,53,15,9,2,2,13
15.083821,2980,44,-55,8,3,-3,-2,0,-12
15.083849,2981,-15,16,-20,-12,-10,-3,-7,-10
15.100099,2982,-1,23,-16,-8,-9,-3,-9,-7
15.100123,2983,12,1,-5,-6,-2,-1,3,-2
15.101714,2984,-25,13,10,5,6,0,6,7
15.101747,2985,5,25,12,10,7,1,2,3
15.121889,2986,8,20,-1,-2,1,1,-1,-1
15.121927,2987,-16,39,5,5,6,0,-12,-1
15.131574,2988,-30,-55,8,7,1,2,7,4
15.131591,2989,28,-83,-42,-24,-17,-7,-7,-16
15.136237,2990,-20,16,16,6,-1,0,-1,-3
15.136254,2991,25,-1,-43,-6,-3,-3,-6,-1
15.145121,2992,-18,50,-20,-6,7,3,6,14
15.145144,2993,-17,27,70,21,7,2,-3,-1
15.160179,2994,2,-51,15,-3,-11,-2,-2,-6
15.160201,2995,12,16,-11,-5,-2,-3,-2,-1
15.161406,2996,-2,1,-5,-11,-5,-5,1,-5
15.161426,2997,-12,-75,56,14,8,4,8,2
15.182810,2998,-6,-5,-21,0,3,0,-2,-3
15.182833,2999,4,-2,-27,0,0,0,2,-2
15.185139,3000,-12,4,8,2,7,1,-4,1
15.185204,3001,10,33,-28,-13,-17,-7,-6,-2
15.196399,3002,-4,10,12,0,2,1,4,1
15.196422,3003,-7,-35,8,-3,-6,-4,-5,-2
15.205735,3004,-3,31,-37,-5,-3,0,-1,-2
15.205747,3005,8,67,-19,2,6,2,3,4
15.219950,3006,-21,-93,9,-3,-4,-5,-24,-7
15.219973,3007,-28,-8,-11,-4,0,1,12,5
15.221447,3008,18,2,11,2,-1,-1,2,-5
15.221493,3009,-6,-44,-1,0,-1,-3,0,5
15.242783,3010,14,27,-11,-4,-2,-2,0,-3
15.242817,3011,-2,-17,-16,-1,2,1,-1,3
15.243873,3012,-2,78,38,5,-2,-2,-2,-3
15.243922,3013,-14,-23,-7,5,8,3,4,7
15.256255,3014,18,2,-31,-1,1,1,3,7
15.258340,3015,27,63,8,1,-8,-4,-6,-10
15.266595,3016,12,-128,-25,-9,-9,-1,1,-1
15.266612,3017,14,53,-6,-4,-2,-3,-7,-3
15.280156,3018,-23,-6,5,1,7,1,5,3
15.280184,3019,-1,-37,-45,5,14,1,-3,3
15.281402,3020,2,112,108,15,-7,0,3,-5
15.281417,3021,9,15,-18,-15,-15,-3,-9,0
15.302744,3022,-8,7,-4,2,1,-1,8,-3
15.302772,3023,17,-9,2,-5,-6,-2,-2,-2
15.304173,3024,-40,-56,-36,-6,5,-3,-10,-17
15.304185,3025,-8,0,-5,2,8,0,-1,-3
15.316113,3026,2,19,26,1,-5,0,-3,-1
15.316131,3027,4,17,2,9,10,3,-1,1
15.326209,3028,-52,-23,47,13,9,0,-2,2
15.326222,3029,67,-62,-38,-25,-35,-11,-13,-16
15.340340,3030,-8,-13,-2,-8,-7,0,-2,4
15.340368,3031,-4,-30,4,-4,-5,-4,1,-6
15.341451,3032,19,43,-28,-6,2,4,4,10
15.341467,3033,-31,-8,-4,12,18,3,1,-1
15.362803,3034,9,96,18,11,6,-3,-2,3
15.362827,3035,8,-128,-23,-9,-1,-4,-9,-11
15.364466,3036,-34,2,36,2,-6,-3,0,-3
15.364477,3037,2,97,28,5,0,1,0,-5
15.376294,3038,27,61,-28,-8,-3,-1,3,6
15.376332,3039,-24,5,12,-2,2,-1,-6,1
15.386259,3040,13,63,-52,-5,-2,-4,0,-1
15.386276,3041,-6,-20,16,-4,-4,-3,-6,-2
15.399751,3042,13,56,18,10,4,4,4,12
15.399769,3043,-31,-98,31,8,13,2,5,-6
15.406394,3044,26,64,5,-4,-18,-7,-8,-2
15.408149,3045,-26,-87,-18,-7,-4,-2,1,3
15.422830,3046,21,-27,-1,-1,-1,-3,-7,-13
15.422864,3047,22,69,-4,-1,-2,1,1,7
15.424477,3048,-11,-19,-17,0,7,1,-5,-4
15.424490,3049,15,51,26,7,5,0,5,-1
15.436201,3050,-15,-11,-21,-2,-2,-4,-3,-5
15.436226,3051,-50,-98,-9,-5,1,2,1,1
15.445763,3052,41,-20,6,0,-3,-2,-3,9
15.445774,3053,-21,124,-1,-4,-3,-1,-2,-7
15.460038,3054,-35,-27,12,1,0,-2,0,-3
15.460102,3055,9,-3,26,-2,-13,-6,-6,-15
15.461415,3056,-12,-16,-43,-11,0,0,-2,10
15.461436,3057,-18,-102,-40,0,4,0,1,8
15.482877,3058,1,88,56,12,8,6,14,7
15.482910,3059,15,10,-2,2,4,4,11,3
15.485479,3060,6,-51,-8,-11,-7,-6,-11,-19
15.485491,3061,17,72,-11,0,4,0,-1,1
15.496258,3062,-29,-25,-31,-12,-12,-6,-9,-4
15.496279,3063,-14,87,11,7,1,0,-1,0
15.505430,3064,18,-39,-18,0,4,3,9,0
15.505442,3065,-12,1,17,7,10,0,-1,1
15.519860,3066,10,3,-1,-5,-7,-3,-2,-4
15.519882,3067,28,36,-18,-7,-8,-2,-5,2
15.521392,3068,-34,-43,20,2,-3,0,-2,-3
15.521408,3069,17,50,1,5,5,-1,-8,2
15.542805,3070,-41,-106,-23,1,5,-2,1,-13
15.542834,3071,19,-36,13,2,-1,2,-2,0
15.544356,3072,9,33,26,5,0,-2,-1,2
15.544369,3073,17,13,4,-8,-13,-1,0,6
15.565050,3074,-7,-89,-17,-6,-3,-2,-9,-3
15.565067,3075,24,31,0,-3,-5,-6,-2,-4
15.566358,3076,-19,11,-30,-4,3,0,2,2
15.566372,3077,30,46,29,11,8,2,6,2
15.579992,3078,6,-18,-8,-1,3,3,6,-7
15.580004,3079,-27,68,29,-5,-6,-1,-2,4
15.581523,3080,16,71,-3,-2,-4,-1,1,-4
15.581589,3081,-44,-128,-26,1,15,2,2,0
15.602537,3082,-2,69,-34,-16,-25,-9,-13,-1
15.604257,3083,23,-24,81,17,-1,5,6,5
15.604268,3084,5,-15,-10,-5,-5,-1,-1,0
15.604270,3085,3,-30,-14,-10,-6,-4,-2,-9
15.624930,3086,12,11,5,8,12,1,-1,0
15.624951,3087,-3,58,-10,0,0,-3,-12,-3
15.626518,3088,-45,-44,-18,-6,13,-1,3,0
15.626540,3089,1,37,5,0,-31,-2,5,0
15.639956,3090,22,-7,13,-4,-14,-2,0,-1
15.639979,3091,-23,32,-18,-1,-6,-1,-1,-8
15.641593,3092,23,-4,6,2,-1,-1,-4,5
15.641616,3093,-29,44,5,3,11,0,-3,-9
15.662769,3094,-1,-59,-6,-8,-3,0,1,-4
15.662794,3095,41,2,-4,-7,-4,-2,-1,-1
15.664820,3096,-29,-75,-13,-4,1,-2,0,-4
15.664836,3097,9,-5,8,3,3,1,-2,-2
15.685548,3098,-22,-8,15,6,4,-4,-3,2
15.685564,3099,12,-41,-13,-6,3,0,3,0
15.686421,3100,10,27,4,-1,-7,-3,-6,-8
15.686484,3101,-13,-4,-24,-6,-5,-3,-5,2
15.699585,3102,4,100,10,8,11,5,1,4
15.699597,3103,-22,55,-9,-2,-6,0,0,2
15.708246,3104,-2,-85,1,4,0,1,3,3
15.708271,3105,-8,18,-8,-6,-13,1,0,-4
15.722825,3106,49,19,-7,-7,0,-8,-5,-7
15.722848,3107,-25,13,0,3,10,-1,-1,1
15.724404,3108,-26,72,12,4,10,2,-1,2
15.724416,3109,36,-23,-4,0,-21,-3,-4,-6
15.746086,3110,-85,-128,4,4,4,3,4,7
15.746104,3111,69,-22,-12,-5,-5,-3,-6,-10
15.746360,3112,13,46,-5,-1,-5,-3,-13,-5
15.746381,3113,-2,22,12,2,19,2,10,12
15.760616,3114,-21,40,2,-4,-12,-3,-4,-5
15.760628,3115,61,-13,-11,-4,-4,-2,-3,-1
15.766186,3116,21,-5,-32,-4,0,-2,0,2
15.766209,3117,-57,10,17,6,14,5,2,13
15.782712,3118,57,34,-9,-7,-26,-4,-8,-14
15.782745,3119,-87,-107,-14,-17,0,-5,-2,-3
15.784712,3120,34,32,-14,1,-3,-1,0,-6
15.784730,3121,23,-3,5,5,8,-2,-2,2
15.805160,3122,-19,102,17,13,13,3,5,9
15.805172,3123,-26,-70,2,0,1,0,0,4
15.806500,3124,15,13,1,-1,-12,-2,-1,-1
15.806525,3125,-11,-17,2,-3,10,2,1,-4
15.820501,3126,15,-3,6,0,11,2,-2,-3
15.820514,3127,5,27,-9,1,-4,-3,-2,-4
15.828807,3128,-7,45,7,-4,-6,-1,-2,5
15.828824,3129,8,-49,-3,0,-1,0,-1,1
15.842683,3130,-11,-9,20,3,7,0,0,-4
15.844278,3131,24,-28,26,12,-4,-1,-4,-10
15.844297,3132,-15,17,6,4,7,4,6,5
15.844302,3133,35,9,-19,-11,-14,-9,-7,-6
15.866379,3134,-11,-68,-27,-4,9,3,4,1
15.866392,3135,10,-20,-35,1,11,-4,-7,-15
15.866459,3136,17,-23,-2,-26,-34,-10,1,-7
15.866490,3137,22,41,-11,-5,-10,2,2,7
15.878928,3138,-25,40,18,20,4,2,7,11
15.878952,3139,4,52,9,8,12,3,3,12
15.888696,3140,-10,3,-2,6,13,0,-7,-12
15.888707,3141,-14,-55,-3,-3,-7,-7,-4,-7
15.902701,3142,-16,-3,8,-1,2,0,-5,5
15.902729,3143,-22,56,6,-9,-5,-2,-2,-5
15.904177,3144,9,-47,-13,3,0,0,8,-4
15.904191,3145,-4,22,6,-4,-1,1,2,14
15.926219,3146,10,41,25,0,2,-2,-13,-9
15.926233,3147,-15,-44,-51,-3,0,-2,-3,-17
15.926468,3148,-2,-5,26,3,-1,-1,-4,1
15.926475,3149,-22,2,-19,-1,2,2,1,1
15.938889,3150,57,-51,-16,-9,-5,-3,-2,-10
15.938914,3151,-21,-17,-3,-7,-9,-1,2,5
15.949123,3152,26,74,12,6,11,3,7,17
15.949141,3153,-27,7,-33,3,8,0,-2,-2
15.963217,3154,15,40,61,20,17,2,-10,-8
15.964988,3155,-37,-46,-14,-31,-36,-9,3,-3
15.965007,3156,-34,-32,-10,-8,-18,0,-1,-11
15.965011,3157,55,35,4,-10,-17,-3,-6,-1
15.984607,3158,28,40,-11,4,9,0,5,3
15.986204,3159,13,80,9,13,24,3,-2,8
15.986216,3160,-6,-81,6,6,9,0,-6,-7
15.986218,3161,-14,-25,4,-8,-6,-1,-1,-9
16.006975,3162,-37,-62,-17,-7,-12,-4,4,1
16.007002,3163,9,33,18,4,18,2,1,4
16.007598,3164,-5,40,-10,-1,-34,-4,-2,1
16.007615,3165,-12,8,10,8,4,2,8,4
16.021828,3166,17,-52,-17,-12,-9,-3,0,5
16.021863,3167,3,-24,17,6,3,0,-17,-27
16.023756,3168,2,-1,5,-1,13,-3,-3,6
16.023767,3169,-15,8,-8,-2,4,-3,-4,-3
16.044437,3170,12,25,-31,-12,-10,-1,9,1
16.044462,3171,38,9,34,11,-6,3,-1,10
16.046585,3172,-67,31,2,3,19,-1,-4,-2
16.046602,3173,7,-112,2,4,2,2,0,-3
16.067109,3174,-49,29,-25,-20,-17,-11,-5,-3
16.067143,3175,34,39,0,-4,3,6,5,7
16.067784,3176,-18,-44,-5,-4,-15,-4,-3,-9
16.067810,3177,-35,4,13,1,47,-1,4,2
16.082403,3178,20,25,-1,10,-10,-1,-3,-5
16.082434,3179,-34,-5,-8,8,5,1,3,4
16.084121,3180,35,83,8,5,0,4,6,6
16.084133,3181,4,-47,-2,-9,-18,-3,-11,-5
16.104367,3182,-5,-22,5,-3,15,2,-4,-9
16.104384,3183,-7,27,-11,-4,-44,-4,8,15
16.105819,3184,15,33,-10,-6,3,0,-9,4
16.105835,3185,-4,-37,4,2,-6,-2,-5,-29
16.126838,3186,11,-28,-42,-8,1,-1,4,-1
16.126911,3187,-1,22,52,11,9,2,4,11
16.127483,3188,-16,-3,-14,-3,8,-3,-14,-6
16.128595,3189,25,2,4,1,-8,-2,-2,-10
16.141712,3190,-27,56,-54,-4,9,2,-1,6
16.141731,3191,-42,-60,87,12,2,1,11,-6
16.143344,3192,23,-51,-8,-10,-21,-5,4,-4
16.143356,3193,40,-15,-11,-14,-8,-1,-5,9
16.164349,3194,15,-74,-6,11,10,1,-4,-10
16.164374,3195,-2,36,-40,-11,-3,-4,-2,11
16.171965,3196,-11,-15,8,-2,52,5,2,3
16.171996,3197,-4,79,24,17,4,-1,2,8
16.186920,3198,11,33,14,9,-15,5,3,6
16.186943,3199,4,8,-21,0,6,-3,-5,1
16.187382,3200,40,115,12,11,-7,0,-2,2
16.187470,3201,-27,-84,-28,-15,-3,-7,-3,-8
16.202105,3202,-30,5,21,-9,-6,-4,-1,-6
16.202127,3203,10,-22,-6,-1,-1,-2,-2,-8
16.203661,3204,6,6,-19,-8,-5,-2,-3,3
16.203675,3205,2,-20,30,5,2,1,2,0
16.224494,3206,-3,75,-74,-10,10,2,-11,8
16.224516,3207,-10,-72,81,13,-11,-3,-1,-3
16.226262,3208,15,-37,6,-15,-24,-5,6,-10
16.226274,3209,-20,33,-13,0,-4,1,-1,11
16.247070,3210,9,-23,0,-7,-10,-3,-2,-10
16.247093,3211,19,26,-69,-11,12,-2,-4,-1
16.247621,3212,0,-40,-2,9,-6,1,-9,-11
16.248818,3213,-14,87,19,7,-9,-1,3,6
16.262212,3214,-42,-92,6,-8,-15,-6,-2,-2
16.262239,3215,2,-6,-36,-18,-6,-5,-5,-10
16.262525,3216,-6,-33,14,8,1,-2,-5,6
16.262547,3217,5,58,8,2,2,4,4,10
16.284420,3218,-26,-34,29,7,5,-2,5,-12
16.284441,3219,-1,-35,-26,-6,-7,-1,-2,-6
16.285846,3220,-2,19,-6,-4,0,-3,-3,-4
16.285864,3221,-18,-23,-25,2,4,2,0,9
16.307074,3222,18,-28,9,-3,-6,-1,-1,-3
16.307096,3223,-6,45,-3,-1,1,0,-3,-4
16.307542,3224,-23,-39,-32,-3,6,1,5,3
16.307564,3225,18,9,6,6,2,0,3,-3
16.321999,3226,12,-6,20,1,-2,-2,-1,4
16.322024,3227,-6,29,-36,-6,-3,-1,-4,-2
16.322488,3228,9,21,16,4,5,-1,2,1
16.322570,3229,-10,-35,-22,-4,-2,-1,0,-4
16.344003,3230,5,48,22,6,3,0,-7,-8
16.344024,3231,1,38,-14,-3,0,0,1,3
16.351837,3232,-5,-37,-49,-15,0,-4,-5,1
16.351867,3233,-2,12,107,15,-2,-2,3,-15
16.367032,3234,10,21,-30,-8,-5,1,12,18
16.367132,3235,28,-23,-8,-3,-1,-2,-10,-3
16.367536,3236,-6,11,-4,-2,2,0,-1,-10
16.367549,3237,4,18,-33,-6,3,-2,-9,-4
16.382092,3238,9,32,34,3,-8,-1,3,9
16.382116,3239,-23,-32,10,-1,-5,1,7,1
16.384102,3240,15,-3,14,3,-2,1,3,-4
16.384125,3241,4,28,-56,-9,0,-2,-6,-1
16.404149,3242,4,-29,42,7,7,2,1,1
16.404166,3243,1,58,-9,2,-13,2,1,1
16.405578,3244,-1,-24,-3,-1,-4,-3,3,-4
16.405595,3245,19,-26,-3,-2,0,0,-1,-3
16.426929,3246,-1,34,-46,-12,-1,-4,-14,-1
16.426953,3247,-8,-9,64,12,0,1,8,-3
16.427581,3248,-6,46,12,3,7,3,2,3
16.427639,3249,-6,5,-25,-9,-5,-4,-4,-7
16.442087,3250,4,-26,4,9,0,1,2,1
16.442110,3251,1,-37,-15,-7,-1,-2,-4,-1
16.443572,3252,3,-24,0,0,-1,-2,4,1
16.443583,3253,-7,-73,-7,-3,6,0,-4,-8
16.464544,3254,2,20,10,-2,1,-4,-2,-2
16.464567,3255,-5,56,-12,1,0,-1,-1,2
16.466327,3256,15,-63,22,1,-6,4,-1,-1
16.466344,3257,-12,13,-38,-9,-6,-4,-3,3
16.486722,3258,34,-39,41,1,6,1,0,-4
16.486740,3259,-6,-14,17,7,5,-2,-1,1
16.487628,3260,-15,52,8,-6,-3,-1,-1,3
16.487651,3261,-6,-62,-9,-5,-1,-1,-2,-10
16.501922,3262,-13,52,35,11,0,0,1,-7
16.501946,3263,-13,-73,-21,-5,5,-2,-6,3
16.503494,3264,2,22,-27,-5,-2,-2,2,-8
16.503506,3265,7,53,53,13,5,4,-1,6
16.524463,3266,-9,-11,7,-4,-8,-5,-3,-5
16.524488,3267,27,24,-27,-10,1,4,4,4
16.525822,3268,-13,-28,-12,-1,0,-2,-10,-7
16.525834,3269,7,-12,-12,-3,-5,-3,2,-5
16.546951,3270,3,61,-17,-1,-4,-4,0,2
16.546974,3271,-14,-60,0,1,9,3,-3,2
16.547692,3272,8,10,4,5,-3,3,3,6
16.547706,3273,21,59,17,0,-1,-2,-3,2
16.561793,3274,7,-31,-54,-8,8,4,1,2
16.561817,3275,-21,-24,56,17,0,-2,-1,-4
