timestamp,sample_number,emg1,emg2,emg3,emg4,emg5,emg6,emg7,emg8
0.172282,0,0,-1,0,-1,-1,-2,-1,-1
0.172411,1,-1,-2,0,-1,0,1,-1,-2
0.173129,2,-2,-1,-3,-2,-1,-1,-1,1
0.173149,3,-1,0,0,0,-1,-2,1,-1
0.173938,4,1,0,-1,-2,-1,-1,0,-1
0.173954,5,1,-1,-1,-1,-1,-2,-2,0
0.175203,6,-1,-2,-1,-1,-1,0,-1,-1
0.175226,7,-1,-2,0,-1,-1,-1,-1,-1
0.183264,8,0,-2,-2,1,1,-1,-1,-1
0.183288,9,-1,-1,-2,-1,-1,-1,0,-3
0.189593,10,-1,0,-2,-1,-1,0,0,1
0.189625,11,-1,0,-3,0,-2,-1,-1,0
0.200915,12,-1,-1,-1,0,-1,0,-1,-1
0.200935,13,0,0,-1,-1,0,-1,0,1
0.214783,14,-1,-1,0,0,-2,-1,-1,-2
0.214813,15,-1,-1,-1,-2,1,-1,-2,-2
0.219515,16,-1,-1,0,0,-2,-3,-2,1
0.219539,17,0,-2,-1,0,-1,0,0,1
0.234629,18,0,-2,-1,-1,-2,-2,0,-2
0.234733,19,1,-2,-1,-2,-2,-1,-2,-1
0.245043,20,-1,0,-2,0,-2,-1,1,-2
0.245054,21,-1,1,-1,-1,0,-2,0,-1
0.283921,22,-2,0,0,-1,-1,0,0,-2
0.283931,23,0,-1,0,-2,-1,-1,-1,0
0.283933,24,-1,0,-2,-1,-3,-1,0,-1
0.283935,25,-1,-1,-2,0,-2,-1,0,0
0.284227,26,-2,-3,1,0,0,0,1,-2
0.284233,27,-1,1,-2,0,-1,-1,-1,-1
0.286692,28,-1,1,-1,-2,-1,-1,-1,-1
0.286709,29,0,0,-1,0,1,-1,1,-1
0.295019,30,-2,0,-1,-1,-1,0,-2,-2
0.295044,31,-1,-1,-2,-1,0,-3,0,0
0.301884,32,0,-2,2,-1,0,-1,-2,-1
0.301903,33,-2,1,-1,-2,-2,-2,0,-2
0.309247,34,-1,-2,-1,-1,-2,-1,-1,-2
0.309270,35,-1,-1,-1,-2,0,0,-1,-2
0.324426,36,0,-1,-1,-1,-2,0,0,-1
0.324455,37,0,-1,1,-2,-2,-1,-2,-2
0.339989,38,1,0,-2,-1,-1,-2,-1,-1
0.340044,39,-1,-2,1,-1,-1,-1,-1,-1
0.346783,40,-1,-1,-1,-1,1,-1,-1,0
0.346804,41,-1,-3,-1,-1,-2,0,-1,-1
0.355012,42,0,-1,-2,-2,-2,-1,-1,0
0.355037,43,0,-1,-1,-1,-2,1,-1,-2
0.370155,44,-1,-2,-1,-2,0,-1,0,-1
0.370182,45,-2,-1,-3,-1,0,0,-1,-1
0.370765,46,-1,0,-1,-1,-2,-1,-2,0
0.370783,47,-1,-1,-2,-1,-2,0,-1,0
0.393284,48,-1,-1,0,0,-1,0,0,0
0.393300,49,-2,-2,0,-1,-1,-2,-1,-1
0.395617,50,-1,-2,0,-1,0,-1,0,0
0.395631,51,2,-1,1,-3,0,0,-1,1
0.406804,52,0,-2,-1,0,0,-3,-1,-1
0.406828,53,1,-2,-2,0,-1,-1,0,0
0.415202,54,0,0,-1,-1,0,-1,-1,0
0.417155,55,-1,-1,0,-1,-1,-1,0,0
0.429981,56,-1,-1,-1,0,-1,-2,-1,-1
0.430001,57,-1,-1,-2,-1,1,2,-2,1
0.430697,58,-1,-1,-1,0,-1,-1,0,0
0.430716,59,0,-1,-1,-1,-2,0,-1,-1
0.453119,60,-1,-1,0,-2,-1,0,0,0
0.453143,61,-1,-1,0,-2,-2,-2,-2,0
0.454436,62,-1,1,1,-1,0,0,0,0
0.454447,63,-1,-1,-3,-1,-1,-1,-2,-1
0.466766,64,-3,-1,-3,0,-2,-1,0,-1
0.466791,65,-1,-3,0,-2,-1,0,-2,-1
0.474968,66,0,-1,-3,-1,-2,0,-1,-1
0.474986,67,0,-1,0,0,-1,-3,-1,-1
0.489960,68,0,-2,-1,-2,-2,0,-2,-1
0.489980,69,-1,-1,0,0,-1,-1,-1,-1
0.490821,70,1,-2,0,-2,-2,-1,0,-2
0.490845,71,-2,-1,0,-1,0,1,-1,0
0.513139,72,0,-1,0,1,-2,0,-1,-2
0.513162,73,-1,-1,0,-1,-2,0,0,-1
0.514248,74,-2,0,-1,-2,-1,-1,-1,-1
0.514259,75,-1,-2,-1,-1,0,-1,1,1
0.526773,76,1,-1,-1,-2,0,-1,-1,0
0.526795,77,0,0,-1,-1,-1,-2,-1,0
0.535094,78,-1,-1,-1,0,-2,0,-1,-2
0.535122,79,0,-1,-1,-1,-1,0,0,-1
0.549995,80,0,1,-1,-1,-1,-1,1,-1
0.550020,81,-2,0,-2,0,-1,0,0,-2
0.550680,82,0,0,-1,-1,-2,0,0,1
0.550698,83,-1,0,-1,-1,0,0,0,0
0.573371,84,0,0,-2,0,0,1,-1,0
0.573389,85,2,0,-1,-1,1,-2,-1,-2
0.574940,86,0,-1,-2,-1,0,-1,0,0
0.574954,87,-1,0,-1,0,-2,-2,-2,-1
0.586748,88,-2,-1,0,-3,-1,0,-1,-1
0.586764,89,-2,-1,-2,-1,-2,-1,-1,0
0.595134,90,-2,-2,0,-1,0,-2,-1,-1
0.595162,91,-1,-1,-2,-1,-1,0,-1,-1
0.609973,92,0,-1,-2,-1,-1,-2,-1,-2
0.609992,93,-1,-1,0,-1,0,-1,0,-2
0.610683,94,-2,-1,0,-2,0,-2,-1,-2
0.610706,95,0,0,0,-1,0,-2,0,0
0.633190,96,0,-3,-1,-3,-2,0,-2,0
0.633212,97,-2,0,-1,-1,-2,-1,0,-1
0.635546,98,0,1,0,0,-2,-1,-1,0
0.635558,99,-1,-2,0,-2,-1,1,-1,0
0.655640,100,-1,-2,-2,-1,-1,0,1,1
0.656054,101,2,0,-1,-1,0,-1,-1,-1
0.656390,102,-1,-2,-2,-1,0,-1,0,-1
0.656408,103,0,-1,-1,-2,-2,-2,-1,-1
0.670029,104,-2,0,0,1,-1,-2,0,0
0.670053,105,-2,0,-1,0,-2,0,-2,0
0.670676,106,-1,-1,-1,-2,1,-2,-1,-1
0.670694,107,-1,-2,-1,0,-1,-3,-1,-2
0.693186,108,-1,0,-1,-1,0,-1,-2,0
0.693203,109,0,-1,-2,-2,-1,-1,0,-1
0.694395,110,-1,0,0,-2,-1,-1,0,0
0.694507,111,-1,0,0,-2,-1,-1,0,-2
0.715701,112,1,0,-1,-2,-1,-1,-1,0
0.715723,113,-1,1,0,-2,1,-1,0,-1
0.716392,114,-1,-4,-2,-1,-3,0,-1,-1
0.716455,115,0,-1,-1,-1,0,0,-1,0
0.729928,116,-1,-2,-2,0,-2,0,-2,-1
0.729950,117,-1,-2,-1,-1,-1,-2,0,-1
0.730545,118,-1,2,-1,0,0,-1,-1,-1
0.730557,119,0,1,-2,-1,-1,-1,-1,0
0.753191,120,0,-1,0,-1,-1,-1,0,-1
0.754325,121,1,1,-1,-2,1,-1,-1,0
0.754330,122,2,-3,0,-3,0,-1,-1,0
0.754332,123,-4,-2,-1,0,-1,-3,0,0
0.775783,124,0,-2,-1,-3,-1,-2,-1,-2
0.775806,125,0,16,0,-2,-1,-1,-1,-1
0.776252,126,-1,-34,-2,-1,-1,-1,0,0
0.776265,127,0,-2,0,-1,0,1,-2,-1
0.789274,128,-2,1,1,-1,-1,-2,0,1
0.789299,129,-1,-6,0,0,-3,-2,-2,-1
0.797407,130,-1,19,-1,1,-1,-1,-1,-3
0.797425,131,-3,2,-2,0,-1,-1,-1,-2
0.813312,132,-2,-6,-1,-1,0,-1,-1,-1
0.813334,133,-1,3,1,1,-2,-2,-1,0
0.815160,134,-1,2,1,-1,0,0,-1,-1
0.815170,135,-2,-6,0,0,-2,-1,0,0
0.835931,136,-1,4,-1,-1,-2,0,0,-1
0.835956,137,-2,-6,-1,-2,-1,0,-1,0
0.836381,138,-2,2,-2,-1,-2,-1,1,0
0.836399,139,-1,-4,2,0,0,-1,0,0
0.849262,140,1,0,-3,-2,-1,-1,0,-1
0.849287,141,-1,-4,-2,-1,-2,0,-2,-1
0.857572,142,-2,-1,-3,0,-2,-1,0,-1
0.857600,143,1,5,-2,-2,-2,-1,-1,-2
0.872443,144,-1,-3,0,-1,1,-2,-1,-1
0.872466,145,1,-5,0,0,-1,-1,0,-2
0.879299,146,-1,4,0,-2,0,0,-2,-1
0.880254,147,-1,-1,-1,-1,0,-1,0,0
0.895739,148,-2,-2,-1,-1,0,1,0,-2
0.895764,149,-2,-4,-1,-1,0,-1,-1,0
0.897158,150,-1,2,0,0,-3,-2,-3,-1
0.897192,151,0,-1,-1,-1,-2,0,-2,-2
0.909291,152,-2,-3,-1,-1,-3,-1,0,-1
0.909307,153,0,0,-1,0,0,-1,-1,-2
0.919630,154,0,1,-2,-2,-2,0,-1,-2
0.919646,155,-2,0,-1,-3,-2,-3,-2,-3
0.931889,156,-3,1,-1,-2,0,0,-2,0
0.931917,157,-1,-2,-1,0,0,-1,0,-2
0.941903,158,0,-2,1,-1,0,-2,0,1
0.941920,159,1,-2,-2,-2,-1,-1,-1,-2
0.955518,160,2,0,0,-2,-1,-1,-3,-1
0.955530,161,-2,-3,-2,-2,-2,-1,-1,-2
0.957342,162,0,1,0,0,-1,-2,-1,-2
0.957365,163,-1,1,0,0,0,-1,-1,0
0.970425,164,0,0,0,0,-2,-2,-2,0
0.970436,165,1,-1,1,0,-2,-1,-1,-1
0.978625,166,-2,0,-3,-1,0,-2,-2,-2
0.978637,167,-2,-2,-2,-2,-1,0,-1,0
0.991866,168,-2,-1,-3,-3,-2,-1,-2,-2
0.991887,169,0,-1,1,1,1,1,0,0
1.001329,170,0,0,1,2,-1,0,2,1
1.001345,171,1,-1,1,0,-1,1,-2,0
1.015555,172,-1,0,-2,0,0,-2,-1,0
1.015567,173,-2,-2,-2,-2,-3,-2,-1,0
1.017082,174,-1,-1,-1,-1,0,-1,0,-3
1.017095,175,-1,-2,-2,0,0,-1,-1,0
1.030072,176,-1,-2,-2,-1,-2,0,-1,-2
1.030082,177,-1,0,-1,0,1,-3,1,-1
1.039475,178,-1,-2,-1,-1,0,1,-1,-1
1.039487,179,0,-1,-2,-3,-2,-2,-2,-1
1.051839,180,-1,0,-1,-3,-1,-3,-1,0
1.051861,181,-1,2,0,0,0,0,0,0
1.061455,182,0,0,2,0,1,0,-1,0
1.061466,183,-2,-1,-1,0,0,0,-1,-2
1.075633,184,-1,-2,0,-2,-1,-1,0,-2
1.075649,185,-2,-4,-3,-3,-1,-1,-2,-3
1.077151,186,-1,-1,-2,-2,-2,0,0,1
1.077171,187,0,0,0,-2,-1,-3,-1,-1
1.089726,188,0,-1,0,0,-1,0,0,-1
1.089738,189,0,-1,-1,0,-1,-2,-2,1
1.099250,190,-1,-1,-2,-2,-2,-2,-1,-2
1.099263,191,-2,0,-1,0,-1,-1,-1,-1
1.111944,192,0,-1,-1,-1,-1,0,-1,-1
1.111960,193,-1,-1,-1,-2,0,-3,-1,0
1.120536,194,0,0,-3,-2,-1,-1,0,-1
1.120556,195,1,1,0,-1,1,-1,-2,1
1.135601,196,-2,0,0,-2,1,-3,0,-1
1.135690,197,-2,-1,-2,-2,-1,-1,-2,-2
1.137155,198,-1,-1,-1,-1,-1,-1,0,0
1.137177,199,0,-1,0,-1,-1,-2,0,1
1.149440,200,-1,1,-2,0,0,0,0,0
1.149528,201,-1,-1,0,0,1,1,0,0
1.158543,202,-2,0,0,0,-1,-1,-1,-1
1.158556,203,-3,0,-2,0,-1,-1,-1,-2
1.171684,204,-1,-1,0,-1,-1,-1,-1,0
1.171706,205,-2,1,-1,-1,-1,-1,-1,-1
1.180807,206,-1,-1,1,-1,-1,-1,-1,-2
1.180884,207,-1,-1,-3,-2,0,-2,-1,0
1.195661,208,-1,-2,-2,-1,-3,-1,-1,-1
1.195683,209,-1,-1,-2,-1,-2,1,-2,1
1.197256,210,2,-1,-2,-1,-1,1,-2,-2
1.197280,211,1,-1,0,-1,0,1,0,-2
1.209696,212,-6,-3,-1,0,2,-1,-3,-3
1.209710,213,2,-2,0,-1,0,0,1,2
1.219631,214,-2,6,-3,-5,-3,-2,-2,1
1.219643,215,-4,-7,-2,3,-3,-2,-3,-6
1.231898,216,1,-1,-1,2,0,-1,-1,0
1.231919,217,-1,-1,-2,-1,-4,-2,-1,-1
1.241243,218,0,-1,-2,-1,-1,-2,-2,0
1.241254,219,0,1,-1,-1,-2,2,1,0
1.256620,220,-1,0,1,-2,-2,-2,-1,0
1.256635,221,1,-3,-1,0,-1,-1,-2,-2
1.261921,222,2,-2,1,-1,1,-2,-1,2
1.261940,223,-1,-1,0,-2,-1,-3,0,-1
1.278132,224,0,-2,-3,1,1,-1,-1,1
1.278154,225,2,1,-4,-2,-2,1,-1,1
1.279907,226,5,-2,-1,2,-2,0,-3,2
1.279953,227,6,-1,1,4,2,1,-2,4
1.300521,228,3,-2,-1,-1,-2,1,-3,1
1.300533,229,0,0,1,0,0,-1,-1,-1
1.302018,230,-6,-3,1,-2,-2,-2,0,-3
1.302024,231,-7,0,-1,-3,-2,-2,-1,-7
1.316184,232,-11,1,-1,-2,0,-3,1,-8
1.316195,233,-13,-4,-2,-4,0,-2,0,-12
1.324790,234,-12,-3,0,-5,-1,-3,0,-10
1.324805,235,-6,0,0,-4,-1,-3,1,-8
1.338025,236,1,-2,0,-2,0,-3,1,-4
1.338051,237,1,0,-1,-1,0,-1,1,-1
1.339835,238,4,1,-2,0,1,0,0,0
1.339847,239,4,1,-3,-1,-1,0,0,7
1.360584,240,4,-2,-2,-1,-3,-1,-3,3
1.360599,241,2,2,-1,1,-2,1,-3,2
1.362336,242,3,-3,-1,0,-1,1,-3,0
1.362358,243,2,0,-1,1,-1,1,-1,0
1.375082,244,-6,-2,-2,0,-2,0,-1,1
1.375094,245,-2,0,2,1,-1,-3,-2,-2
1.385459,246,-2,-1,0,-1,0,-2,2,1
1.385470,247,-7,0,0,-1,-1,-2,0,-4
1.398162,248,-1,1,1,-1,0,-2,0,0
1.398186,249,-2,-3,0,0,0,-2,0,0
1.399847,250,-1,-2,-2,0,-1,1,-3,-2
1.399858,251,4,-1,-2,-2,-4,-2,-1,2
1.422788,252,3,0,0,-1,1,1,-1,1
1.422799,253,0,0,0,-1,0,1,0,1
1.422801,254,2,-1,-2,-1,0,-1,-2,1
1.422803,255,1,-2,-2,-2,0,-1,-1,0
1.434614,256,3,1,0,1,-1,-1,-2,-1
1.434642,257,0,-6,-2,-2,-8,-1,-1,1
1.444919,258,-2,-2,-1,-8,-13,-5,0,-2
1.444934,259,-2,-1,-1,11,27,4,-1,-3
1.458312,260,-1,0,1,0,0,-1,-1,1
1.459726,261,6,2,-1,-1,5,1,1,6
1.459852,262,-4,-3,-1,1,-4,0,0,-3
1.459858,263,-3,-2,2,-6,-11,-2,0,0
1.480650,264,0,0,-1,-1,-2,-1,-3,-2
1.480673,265,-3,-2,-2,0,6,0,-2,-3
1.482123,266,-1,0,-2,-3,-6,-1,-3,-5
1.482135,267,-3,-3,-2,-3,-4,-3,-1,-4
1.494579,268,-2,0,1,1,-3,0,1,-1
1.494601,269,-2,0,-1,-3,-3,-2,-1,-1
1.505194,270,-1,0,-1,1,6,-1,-1,1
1.505209,271,0,0,-1,-1,-3,-2,-1,-1
1.518422,272,-1,-2,-3,-2,0,-2,0,-3
1.518442,273,-2,0,-1,0,-3,-1,-2,-2
1.520431,274,-3,-1,-2,2,6,-1,0,0
1.520436,275,-1,-1,-1,0,-6,-1,-2,1
1.540804,276,0,-3,-2,-3,-2,-1,0,-1
1.540820,277,1,0,0,0,-1,0,0,-2
1.542931,278,-3,-2,-1,-1,0,-1,1,-2
1.542943,279,-1,0,0,-2,-3,-1,-1,1
1.554495,280,2,1,-1,-1,-2,-1,-2,0
1.554515,281,-5,-1,-3,-2,-3,-1,-1,-2
1.572937,282,1,1,1,1,1,0,1,2
1.572949,283,0,0,-2,-1,-4,-1,0,-1
1.578114,284,-3,-1,0,-1,1,-1,-2,0
1.578132,285,2,-1,-2,-8,-9,-1,-1,-1
1.580270,286,1,-1,-1,4,4,0,0,0
1.580281,287,-2,-3,1,1,1,0,1,2
1.600744,288,0,3,-2,-1,-2,-2,-3,-3
1.600765,289,-3,-2,-4,-1,-1,-3,-3,-4
1.603253,290,-1,-2,-2,-5,-4,0,-1,0
1.603267,291,0,-2,-2,-2,-2,0,-1,-3
1.614235,292,0,-3,-2,1,-1,-1,0,-1
1.614252,293,-1,-1,0,-2,-2,0,-2,-1
1.624876,294,0,-1,-1,-1,0,-1,0,0
1.624890,295,1,-1,-1,-1,-2,-1,-1,-3
1.638418,296,-3,-4,-3,-2,-3,1,-1,-1
1.638440,297,0,1,-1,1,-1,-1,-1,0
1.644234,298,-3,-3,-2,3,-1,-1,0,2
1.644257,299,-2,0,3,0,0,-2,-3,-4
1.660910,300,-1,0,1,-1,-2,-2,0,-1
1.661074,301,0,-1,-2,2,0,-1,-1,0
1.662735,302,1,-1,0,-2,-1,0,0,0
1.662745,303,3,0,-2,-4,-1,-2,1,0
1.674649,304,-1,-2,-1,-1,2,1,-2,-1
1.674674,305,-3,-1,-1,0,0,-1,-2,-1
1.684384,306,0,1,-1,-1,-2,-1,-1,-2
1.684407,307,-2,0,-2,-2,-1,-2,-6,-1
1.698159,308,-1,-2,-1,-2,0,-1,3,1
1.698179,309,1,1,4,2,1,-1,4,3
1.699695,310,0,-1,-3,-3,-3,-1,-2,-2
1.699726,311,-9,-5,-5,4,0,-1,-4,-8
1.720720,312,0,0,0,1,-1,-2,0,1
1.720741,313,-2,1,0,0,1,-1,0,3
1.722109,314,1,6,4,-2,-1,1,1,1
1.722125,315,2,-1,-3,-3,-4,-2,-3,0
1.734636,316,-5,-4,-1,-1,-1,-1,-3,-2
1.734656,317,-4,-2,-3,-2,1,0,-1,-4
1.744383,318,-2,1,1,-2,-1,-1,-1,1
1.744399,319,0,0,-2,-1,-2,1,3,1
1.758198,320,0,0,1,-1,-3,-1,-1,-3
1.758220,321,-1,0,1,-1,-1,-2,-2,-2
1.759666,322,1,-2,-2,0,0,0,-1,1
1.759681,323,0,1,0,-2,-1,-2,-1,-1
1.780717,324,-5,-2,-4,-1,0,0,-1,-5
1.780739,325,-1,0,-1,-1,0,-2,-2,-2
1.782614,326,-4,-2,1,1,-2,-1,-1,-6
1.782625,327,2,1,0,-3,-1,2,2,4
1.794616,328,1,2,1,-1,0,0,1,3
1.796421,329,0,-2,-4,-2,0,-1,-3,-3
1.804432,330,-4,-1,-1,-2,-2,-3,-4,-7
1.804452,331,3,1,1,-1,-2,0,1,1
1.818220,332,0,-1,-3,-2,-2,-1,-1,-2
1.818285,333,0,-2,-1,1,-1,0,0,0
1.819624,334,-3,-1,-2,-1,1,0,-2,1
1.819685,335,-3,0,-1,-2,0,-1,0,0
1.840960,336,-2,0,-1,0,-3,0,-2,-3
1.842740,337,-1,-3,-1,-1,-1,0,0,-1
1.842752,338,0,-6,-2,-1,-2,-1,1,1
1.842754,339,-6,-2,-2,-1,0,-1,-2,-6
1.854458,340,-1,-2,-2,-1,-1,-1,0,1
1.854478,341,1,2,-2,-2,-3,-3,0,2
1.864347,342,0,1,0,0,-1,-1,-1,-2
1.864362,343,-1,-1,0,-1,0,-2,1,1
1.878164,344,-2,0,0,-1,-1,0,-2,-3
1.878188,345,-5,-6,-2,-1,-2,-2,-4,-3
1.879685,346,2,0,0,1,-1,-1,-1,2
1.879701,347,1,0,-1,-2,0,-1,0,0
1.900545,348,1,0,0,-1,0,-1,-1,-1
1.900565,349,0,1,-1,0,0,1,-1,0
1.902176,350,-2,0,-1,-2,-2,-2,-1,0
1.902189,351,-1,-3,1,-1,-3,1,0,-1
1.914237,352,1,-2,-2,-2,0,-1,-2,1
1.914265,353,0,0,-2,-2,1,-2,-1,-1
1.923282,354,-1,0,-1,-1,-1,-1,0,1
1.923307,355,-1,-1,-1,-2,-2,1,0,0
1.937423,356,1,0,-1,-1,-1,0,0,1
1.937442,357,0,0,1,-1,-2,0,-1,-2
1.944369,358,0,-1,0,-2,-1,-2,-2,-3
1.944390,359,0,-2,-1,-2,0,0,0,1
1.960588,360,0,-3,0,-1,-1,-1,-1,-1
1.960610,361,-2,-4,-2,-3,-1,-1,-1,-2
1.962233,362,3,0,1,0,-1,-1,1,1
1.962251,363,-2,0,-2,-1,-2,-1,-2,2
1.974359,364,-1,-2,-1,-1,-1,-1,-1,-3
1.975488,365,2,2,-1,-1,-2,-1,-2,0
1.983527,366,-2,-5,0,0,0,1,-1,-2
1.983577,367,-1,-2,1,0,-2,-1,-1,1
1.998838,368,-2,-1,-1,-1,-1,-1,1,-2
1.998860,369,-2,0,1,0,-2,-2,-1,-2
2.004503,370,1,-3,-4,-4,0,-3,-3,-3
2.004531,371,0,1,-2,-1,-1,-2,-2,1
2.020584,372,-1,-1,-1,-1,1,0,-1,-1
2.020606,373,-1,-2,0,0,-1,0,-1,-1
2.022496,374,-2,1,0,-2,-1,-1,-1,1
2.022509,375,0,-2,-2,0,-1,-2,-2,0
2.043195,376,0,0,-2,-1,-1,0,-2,-1
2.043216,377,-2,-1,-3,-1,-1,-1,0,1
2.044536,378,0,0,-2,-3,-2,-2,0,1
2.044551,379,0,-5,1,3,2,-1,0,-2
2.057452,380,0,-1,0,0,-2,-2,0,0
2.057477,381,-1,-1,-1,-1,-2,0,1,1
2.064225,382,-1,-1,-1,-1,-1,1,0,-1
2.065112,383,0,0,-1,-2,-3,0,-1,-1
2.080594,384,-1,1,-1,-2,0,0,0,0
2.080614,385,0,0,0,-1,1,0,-1,0
2.082166,386,0,0,-3,-3,-3,-2,-2,-2
2.082187,387,-2,-2,-1,-1,-2,-2,0,-2
2.103111,388,0,0,1,1,-1,-2,2,-1
2.103131,389,0,0,-2,-3,-1,-3,0,-2
2.104895,390,-1,0,-1,0,-1,-1,-1,-2
2.105049,391,-1,0,1,-2,-1,-2,0,-3
2.120170,392,-3,0,0,-3,-1,0,-1,0
2.120197,393,-2,-1,-1,-1,-1,-2,0,-2
2.124838,394,-2,-2,0,0,-1,-1,-1,-1
2.124912,395,-1,-1,-2,0,-1,0,0,0
2.140648,396,-1,-1,-2,0,-1,-2,-2,0
2.141895,397,0,-1,0,-1,0,1,-1,-1
2.142272,398,-2,-1,-2,-1,-1,-2,-1,-1
2.142291,399,-1,0,0,-3,-1,0,0,-1
2.163086,400,0,0,-2,-2,-2,-2,-2,-2
2.163140,401,-1,-1,0,0,0,-3,-1,-2
2.164569,402,-1,-1,0,0,-1,0,-1,-1
2.164611,403,0,1,-1,-1,0,0,-1,-3
2.177592,404,-1,-1,0,-1,-1,1,-1,-1
2.177605,405,-1,-1,-1,0,0,0,-1,-1
2.184501,406,-3,-1,0,0,0,-1,-1,0
2.184524,407,0,0,-1,0,-1,-2,-1,-2
2.200549,408,-2,0,0,-2,-1,-2,-1,-2
2.201816,409,-4,-1,0,-1,-2,-1,-1,-1
2.202464,410,-1,-2,-1,-1,1,-2,0,1
2.202536,411,-1,-2,-1,-1,0,0,0,0
2.223308,412,-1,0,-1,-1,-1,-3,-1,-2
2.223325,413,1,-1,0,1,0,1,-1,-1
2.224620,414,-1,-2,-1,-1,-1,0,-1,-2
2.224656,415,-1,-1,0,-2,-2,-1,-1,0
2.238116,416,0,-1,-2,1,1,0,0,0
2.238127,417,-3,-2,-1,-2,-1,1,-1,-2
2.244249,418,-1,0,0,-3,0,-1,-1,-1
2.244265,419,0,-2,-1,-2,-1,-1,-1,-1
2.260805,420,-1,0,-3,-1,-2,-2,1,0
2.260821,421,0,-1,-2,-1,-1,0,-2,0
2.262351,422,-1,-1,-2,0,-2,-1,0,-1
2.262365,423,-2,-2,-1,-1,-1,-2,-1,-1
2.284077,424,-1,-1,-1,-2,-2,1,-1,0
2.284088,425,0,1,-1,-1,-2,-3,-4,-1
2.284485,426,0,-1,-2,-1,-2,-2,-2,-1
2.284514,427,-2,-1,-1,1,-2,0,-2,0
2.296978,428,-2,-2,-1,0,-1,-1,0,-1
2.297011,429,-2,-1,1,-1,0,-2,0,-3
2.313577,430,-1,-1,-1,0,-1,0,0,-2
2.313588,431,-1,1,-1,-2,0,0,0,-3
2.320721,432,-1,0,0,-1,-1,0,-1,-1
2.320740,433,-1,-2,-1,-3,-2,-2,1,-1
2.322845,434,-1,-1,0,-2,-1,-1,-2,-1
2.322855,435,-1,1,-2,-1,0,-1,0,2
2.343719,436,0,0,-3,-3,-2,-1,-1,-2
2.343731,437,-1,-1,0,0,0,-1,0,0
2.352369,438,-1,-1,-2,-2,0,-1,0,-1
2.352380,439,-1,-2,-1,0,-2,-1,-2,-3
2.358666,440,1,-2,-2,0,-2,-2,-2,0
2.358681,441,-1,1,-1,-1,-2,-2,-1,-3
2.367160,442,-2,0,-2,0,0,0,-1,-1
2.367173,443,-2,-1,-1,-2,0,-1,-1,-2
2.380638,444,-1,-1,-2,-1,-1,0,-1,-1
2.380662,445,0,-1,-1,-2,-3,0,1,0
2.382127,446,0,-3,0,-1,0,-1,-1,-1
2.382139,447,-1,0,-2,-1,-1,-1,0,-2
2.403605,448,0,-1,1,1,0,-2,-2,-1
2.403621,449,-3,-1,0,-1,-1,-1,-2,-1
2.404456,450,-1,1,-1,1,0,-1,-1,-1
2.404462,451,-2,-2,0,0,-2,0,0,2
2.416978,452,-1,-1,-1,-2,0,0,-1,0
2.416999,453,-1,-2,-1,0,0,-1,-1,0
2.426923,454,-1,-2,-1,-1,0,-2,1,-2
2.426935,455,-2,0,-1,-1,-2,-2,0,-1
2.440668,456,1,-1,0,-1,-2,0,-2,0
2.440698,457,-1,-1,-2,-2,0,0,-2,0
2.442698,458,0,0,-2,-1,-1,0,-2,-1
2.442710,459,0,-1,-1,-2,0,-1,0,-1
2.463235,460,0,0,-1,-1,-2,-3,-2,-2
2.463252,461,-1,-2,-1,1,-2,-2,0,-1
2.464739,462,-2,-1,0,-2,-1,-1,-3,0
2.464754,463,-1,0,-1,-2,-1,-1,-1,-2
2.477082,464,-1,0,-1,-1,0,-1,0,0
2.477103,465,-2,-1,-1,0,-1,0,0,-1
2.486422,466,0,-1,-1,-2,0,-1,0,0
2.486432,467,1,-1,-1,-1,0,-1,-2,0
2.500656,468,-2,-2,-1,0,-2,-2,1,-2
2.500684,469,-1,-1,-2,-1,0,-2,-2,-1
2.502495,470,-2,-1,1,0,-2,1,-1,0
2.502509,471,-1,0,-1,-1,-2,-1,0,-1
2.523177,472,-2,-2,1,0,0,-1,0,0
2.523199,473,0,-1,-1,-1,-2,-2,-2,-1
2.525061,474,-1,-1,-1,-1,-2,0,-1,-1
2.525078,475,-2,-1,0,0,-1,-1,-2,0
2.536854,476,-3,0,-1,0,0,-1,-1,-8
2.536876,477,11,-1,-1,-3,0,0,-2,6
2.547127,478,0,1,-2,0,-1,-1,-1,2
2.547138,479,-2,-2,-1,-1,-1,-2,-3,-9
2.560549,480,-4,-1,-2,-1,-3,0,0,0
2.560567,481,-4,-1,0,-1,-1,0,-1,-7
2.562242,482,0,1,-1,-1,0,-2,-1,0
2.562263,483,0,0,-1,-1,-2,1,-1,2
2.583159,484,-1,0,0,-1,-1,0,-2,-2
2.583176,485,-2,-1,0,-1,-1,0,-2,-2
2.584568,486,0,0,0,-2,-2,-1,-6,-5
2.584576,487,1,-2,-2,0,-1,-1,2,8
2.596702,488,1,-1,-1,-1,-2,-2,0,1
2.596718,489,-2,-2,-1,-1,0,-1,-1,-1
2.606189,490,-3,0,-2,-1,-1,-3,1,-5
2.606206,491,0,-1,-1,-1,0,0,-3,-3
2.620677,492,0,-2,-3,-2,0,-2,-4,3
2.620698,493,-3,-3,-2,-1,-1,-2,0,0
2.622245,494,-1,-1,-3,-8,-3,-2,0,0
2.622263,495,-1,1,2,5,10,-2,0,-1
2.643327,496,0,1,1,1,1,1,1,2
2.643349,497,-2,0,-1,-1,-3,-1,-1,-3
2.645259,498,-2,-3,-3,-3,-16,-20,-3,-1
2.645272,499,-1,-2,-3,-3,13,5,-2,-1
2.656775,500,0,0,-1,-5,5,10,3,0
2.656947,501,-1,0,-1,1,6,0,0,-1
2.667655,502,1,0,-1,0,-4,3,0,2
2.667665,503,0,1,-1,-1,-14,-9,-1,-1
2.680600,504,-1,-1,-1,1,0,-4,-4,-4
2.680629,505,0,-2,-2,0,-7,2,0,-1
2.682184,506,-1,-1,0,0,-2,1,0,2
2.682201,507,-1,-2,-2,-1,-3,1,-2,-1
2.702468,508,-3,-3,-3,-1,-1,-1,-2,0
2.702490,509,-1,-2,-3,-3,-2,-1,-2,1
2.712053,510,0,1,0,-2,3,3,1,-1
2.712065,511,-1,3,4,7,5,1,2,-1
2.717163,512,0,2,5,2,-4,-2,0,0
2.717183,513,-1,0,2,3,0,-4,-2,-1
2.725623,514,-2,-1,-3,1,4,2,-1,-3
2.725639,515,1,-3,-4,-6,-5,-1,-2,0
2.740649,516,-1,-2,-2,-3,-5,-4,-3,0
2.740683,517,-2,-1,0,-1,-2,-2,-2,-3
2.742296,518,0,0,-1,1,2,4,0,0
2.742314,519,-3,1,-1,-2,-6,-3,1,0
2.763191,520,-2,-1,0,0,-4,-3,0,0
2.763209,521,1,-1,-1,-1,0,0,1,0
2.764691,522,-2,0,0,-1,-1,-1,0,2
2.764702,523,-1,-1,0,-1,-2,-2,-1,0
2.776799,524,0,-1,-1,0,1,0,-3,0
2.776822,525,-2,0,-1,-1,0,0,0,-1
2.785668,526,-2,-1,0,0,-1,0,-1,-2
2.785694,527,0,-2,-1,-2,-1,-2,-1,-2
2.800045,528,0,-1,-2,-1,0,-1,0,-3
2.800056,529,-2,-1,-1,-2,-1,-1,-1,0
2.806833,530,1,-1,2,2,1,-1,-1,-1
2.806853,531,-3,-1,0,-2,0,-1,-1,-1
2.823406,532,0,-4,-2,-1,-1,-1,-1,0
2.823444,533,-2,-1,-2,-2,-1,-1,-2,-1
2.825716,534,-1,-2,-2,-1,0,1,0,-1
2.825727,535,-1,1,-2,-3,-3,0,-2,-2
2.837130,536,-1,-2,-3,-3,-2,-2,-2,0
2.837151,537,-1,1,-2,-4,1,-1,-1,0
2.846290,538,1,0,2,-4,0,1,0,1
2.846300,539,1,2,5,8,2,1,0,1
2.860163,540,0,-1,-3,-1,-1,-2,-2,-1
2.860175,541,0,-2,-1,0,0,-1,-1,0
2.866853,542,-3,-4,-4,-1,-2,-2,-1,-1
2.866875,543,-1,-5,-3,-6,-3,-2,-2,-2
2.883705,544,-1,0,0,-1,-1,-1,-1,-3
2.883732,545,-1,0,-2,0,-2,-2,-1,-1
2.885937,546,0,0,-1,0,0,-2,-2,0
2.885944,547,-2,-1,-2,-4,-1,-1,0,-1
2.896780,548,0,0,0,0,1,-1,0,-2
2.896802,549,0,-1,0,-1,-1,-2,-2,-2
2.905849,550,-2,-1,-1,2,0,0,-1,-1
2.905867,551,-2,-2,-2,-2,-1,-2,0,-3
2.921464,552,-2,-1,-1,-2,0,-1,0,-3
2.921474,553,-3,0,1,-2,-3,1,1,-3
2.926693,554,-1,-2,0,0,2,0,-1,-1
2.926714,555,-1,-2,-3,-3,-1,-2,-1,-2
2.943624,556,-1,-2,0,0,-3,-1,1,-2
2.943645,557,-1,-3,-2,-1,1,-1,-2,-2
2.945334,558,-4,-2,-2,-3,-3,-3,-1,-4
2.945345,559,-3,-1,0,-1,-1,-2,0,-4
2.957405,560,-4,1,2,0,-1,-2,0,-4
2.957439,561,-2,1,0,-2,0,0,0,-3
2.965925,562,-2,-1,-1,-2,0,-1,1,-2
2.965937,563,-1,-2,-3,-2,-1,-1,-1,-1
2.980766,564,0,0,-2,-3,-3,-3,0,0
2.980779,565,4,-1,-1,1,-1,0,-1,2
2.986877,566,2,1,-1,1,-2,-1,-2,3
2.987581,567,3,-1,-2,3,-2,1,-1,3
3.003367,568,2,-2,-3,-2,0,1,-1,3
3.003386,569,2,0,0,-2,-4,-2,-2,3
3.005151,570,-1,0,-1,-1,-3,0,-1,-1
3.005155,571,-1,-2,0,0,-1,-1,-1,0
3.033221,572,-2,1,-2,0,0,2,-2,1
3.033241,573,-1,-1,-1,-1,0,-1,0,-1
3.035158,574,-1,-2,-1,0,-1,-3,-3,-2
3.035163,575,-2,-1,2,-1,-1,-2,-1,-1
3.040394,576,1,0,0,-1,1,0,-1,-1
3.040421,577,-7,-1,-1,0,0,-2,-1,-5
3.047003,578,-2,1,-2,-1,0,-1,0,-3
3.047019,579,-1,-1,0,-2,-2,-1,-1,0
3.063146,580,2,2,0,-1,-2,-1,0,2
3.063171,581,1,-3,-1,0,-1,0,-4,-4
3.066771,582,-1,-1,-1,-2,0,0,1,-1
3.066795,583,-2,-1,-3,-3,-3,0,-1,-3
3.085571,584,-3,-1,-1,0,-2,1,-1,0
3.085591,585,-1,0,1,-2,0,0,0,0
3.087208,586,-1,0,1,0,-1,0,0,-1
3.087229,587,1,-1,-8,0,0,0,-1,1
3.099941,588,-3,-2,0,0,0,-1,0,-3
3.099964,589,-4,-1,-1,-3,-1,0,-2,-1
3.106893,590,-1,-3,-1,0,-1,-2,-3,-1
3.106926,591,-1,-2,1,-2,-2,-1,-1,1
3.123273,592,0,-2,-2,-2,-2,-3,-2,-1
3.123302,593,0,-1,-1,1,-1,0,0,1
3.125755,594,1,0,0,-2,-2,-1,1,-1
3.125774,595,-2,-1,-3,0,0,-1,-2,-5
3.145705,596,-2,-3,-3,-3,-2,-1,-1,-5
3.145728,597,0,2,2,0,-1,-1,1,-1
3.147227,598,1,1,2,3,4,1,0,0
3.147246,599,-1,0,-1,0,-2,0,-1,-2
3.159511,600,-1,-3,0,-3,-1,-3,-4,-2
3.159678,601,-2,-4,-4,-6,-11,-2,-1,1
3.168337,602,-2,-1,-2,-6,-4,-4,-3,-2
3.168352,603,-2,1,1,3,27,1,0,0
3.183534,604,-3,1,-1,5,-20,-3,1,0
3.183587,605,-3,0,-5,-15,-41,-6,-3,-4
3.184612,606,5,2,5,29,45,10,3,8
3.184650,607,0,0,0,-10,22,-1,-2,-2
3.205721,608,-3,-4,-4,-12,-61,-7,-4,-4
3.205742,609,1,1,2,25,29,0,1,1
3.207403,610,0,3,-4,-14,-18,-3,-2,2
3.207429,611,-1,-4,2,5,-6,-2,-3,-1
3.219312,612,-1,0,2,-5,8,1,0,0
3.219339,613,-2,-2,-2,-11,-8,-2,-1,-2
3.228494,614,-2,-3,-4,-4,-14,-3,0,-3
3.228509,615,1,-1,2,2,5,0,-2,1
3.243168,616,-1,-2,-2,-7,4,-2,-1,-5
3.243194,617,-2,-1,0,-1,3,0,1,1
3.244777,618,-3,-2,-2,1,14,-1,-2,-1
3.244801,619,0,-2,-2,-8,-28,-3,0,-1
3.265637,620,-1,-1,3,7,15,2,-1,-2
3.265668,621,3,-1,2,6,12,1,0,3
3.267180,622,-4,-2,-3,-7,-15,-3,-4,-6
3.267414,623,0,0,-2,0,-10,-3,1,1
3.279399,624,-1,-1,0,3,10,1,-2,-1
3.279423,625,-2,-1,0,1,12,-1,-1,0
3.288867,626,-3,-2,-4,-9,-11,-2,0,-2
3.288885,627,-2,0,-2,1,-6,-2,-1,1
3.303298,628,2,1,-2,4,20,2,-1,1
3.304918,629,-3,0,-3,-5,-7,-1,-4,-3
3.304931,630,-1,-1,0,-2,-5,0,0,-1
3.304932,631,-1,0,-1,0,-1,-2,0,-2
3.325631,632,-1,-2,0,-1,4,0,1,1
3.325654,633,-2,-3,-3,-4,-3,0,0,-1
3.327447,634,-2,-2,0,0,-1,-2,0,-1
3.327515,635,-1,-2,-2,1,-1,-1,-1,0
3.339382,636,-3,0,-2,-3,1,-1,-3,-2
3.339412,637,-2,0,0,0,1,0,-1,-1
3.348081,638,0,-1,0,1,3,0,-1,-1
3.348096,639,-2,0,-1,-5,-5,0,-1,-2
3.363053,640,2,0,-2,-10,3,-1,-1,0
3.363067,641,-2,-3,-1,14,-1,-1,0,0
3.364524,642,-1,0,0,-5,-4,-1,-1,0
3.365264,643,-2,-3,0,4,3,0,-1,-3
3.385632,644,-3,-1,-1,2,5,0,-1,-2
3.387667,645,0,-1,0,-5,3,-2,-1,-1
3.387678,646,-1,-3,-4,-6,-10,-3,0,-1
3.387679,647,1,1,1,-1,-4,-2,-2,-2
3.399531,648,-2,0,2,2,3,0,0,0
3.399552,649,1,0,-1,-5,-5,-3,-1,-1
3.409235,650,0,-2,-2,2,0,-1,-1,-2
3.409246,651,-1,1,-3,-4,-3,-1,-1,-1
3.430604,652,-3,-2,-5,0,-2,-1,-2,-1
3.430625,653,-1,-1,-1,-3,1,-3,0,-1
3.433194,654,-1,-1,-1,1,0,-1,0,1
3.433205,655,-3,-2,-2,1,0,0,-2,-1
3.445654,656,0,-1,-1,-1,-2,-1,-1,-1
3.445676,657,-1,-1,-1,-2,1,2,-1,0
3.447752,658,-1,-2,-1,0,-1,-1,-1,-3
3.447765,659,-2,-1,-1,-1,-2,-1,0,-1
3.459394,660,1,-1,0,2,-2,-3,0,0
3.459427,661,-1,-1,-2,-3,0,-2,-1,-1
3.468283,662,-1,-1,0,-1,0,-1,-1,-1
3.468293,663,-3,-1,-2,-3,-2,0,-2,-1
3.483099,664,1,0,-3,-1,0,-3,1,2
3.483120,665,0,-1,-2,-1,0,1,-1,0
3.484817,666,-2,0,0,1,-2,0,0,-2
3.486364,667,-1,-2,-2,-2,-3,0,1,0
3.506675,668,0,0,-2,1,-1,0,-1,-1
3.506702,669,0,0,0,-4,-1,-2,-1,-1
3.508739,670,0,0,0,1,-2,-2,0,1
3.508749,671,0,-1,0,-1,-1,-1,-2,0
3.519651,672,-1,-1,-1,-1,0,0,-1,-1
3.519683,673,-2,-1,0,-1,0,0,0,-2
3.529244,674,-4,-1,0,-3,2,-1,-1,-3
3.529261,675,-3,-1,0,-2,-1,-1,0,-1
3.543163,676,-6,-2,-2,-3,1,-1,-1,-4
3.543184,677,-3,-2,0,-1,0,0,-1,-3
3.544681,678,0,-1,-1,-1,-1,0,-2,-2
3.544705,679,1,0,-1,-2,-2,-2,-1,-1
3.565739,680,1,-1,0,0,-2,-1,0,0
3.565757,681,0,-1,-1,-2,-1,0,0,0
3.567648,682,0,-1,-1,-2,0,-1,-1,-1
3.567661,683,-1,-1,-1,-3,-3,0,0,-4
3.579326,684,-4,-1,1,0,-2,0,-2,-4
3.579343,685,-4,0,-1,0,-1,-2,1,-5
3.589032,686,-3,-4,-1,-2,-1,-2,1,-1
3.589047,687,-1,-1,0,-1,0,-1,0,-3
3.603049,688,0,-1,0,-2,0,-2,2,-1
3.603065,689,-1,-1,-1,1,-1,-2,-1,0
3.604559,690,-1,1,0,-1,-2,1,0,0
3.604571,691,1,0,-1,-1,-1,-1,-1,1
3.625738,692,1,0,-2,0,-1,1,-1,1
3.625754,693,3,0,-2,0,-1,-1,-2,1
3.627777,694,2,-2,-2,0,0,0,-1,0
3.627788,695,2,6,0,0,-2,0,-1,3
3.639537,696,-2,-8,-2,-1,1,0,0,-1
3.641275,697,-9,-1,1,-1,0,-2,-2,-7
3.649130,698,-10,-1,-1,-3,1,-3,-1,-11
3.649146,699,-11,-4,1,-3,0,-4,2,-11
3.663661,700,-7,1,0,-1,-1,-3,1,-9
3.663719,701,-1,0,0,-2,-1,-3,1,-2
3.664626,702,5,1,-2,-1,-1,-1,-1,3
3.664658,703,8,0,-3,1,1,1,-1,6
3.685605,704,8,1,-2,2,-2,2,-3,8
3.685623,705,8,1,-3,1,-2,1,-4,9
3.687113,706,6,2,-2,0,-3,1,-4,7
3.687118,707,4,-3,-3,1,-1,1,-1,7
3.699314,708,4,0,-2,1,-2,0,-3,4
3.699331,709,2,-1,-3,0,-1,0,0,4
3.709604,710,0,0,-1,0,-2,-1,-2,4
3.709616,711,-1,-2,-2,0,-2,0,-3,1
3.725622,712,-1,-1,1,0,-2,0,-1,1
3.725635,713,0,-1,-1,0,-3,-2,-1,-1
3.725637,714,0,0,-1,-1,-1,0,-1,1
3.725639,715,-2,0,1,1,-2,-3,-1,-3
3.745667,716,-2,0,-1,-1,-1,-2,-1,-1
3.745735,717,-2,-2,-1,-2,0,0,-1,0
3.747482,718,-4,-1,1,0,-1,-1,-2,-2
3.747503,719,0,-2,0,0,0,-2,-1,-2
3.759328,720,-2,-1,-1,-2,-1,-2,0,-3
3.759346,721,-2,-3,0,-2,-1,-1,-1,-1
3.769963,722,-2,-3,-2,-1,0,-1,-1,-3
3.769978,723,-4,-4,-4,-3,-3,-3,-2,-2
3.782992,724,-1,-1,-1,-10,-6,-3,-1,-1
3.783019,725,0,4,5,2,5,2,3,1
3.789723,726,0,2,5,5,3,1,1,-1
3.789748,727,0,-1,-2,0,1,-1,-1,-3
3.806127,728,-2,-3,-2,-1,1,-1,-3,-5
3.806174,729,-5,-3,-4,-6,-5,-4,-2,-3
3.808552,730,-2,-1,-2,-2,-2,-2,-1,-2
3.808566,731,-4,-2,-3,1,-1,-1,-2,-2
3.819679,732,-2,-2,-4,-3,-3,-1,-1,-1
3.819793,733,1,0,-1,-2,-3,-1,-1,-1
3.828906,734,0,3,3,2,2,2,3,-1
3.828920,735,-1,0,-1,0,0,0,-2,-1
3.842414,736,-1,0,-1,2,3,0,0,-2
3.842431,737,1,-2,-3,-2,-1,0,-1,-2
3.849194,738,-1,-2,-3,-4,-4,-4,-2,-2
3.849214,739,0,1,0,-3,-1,0,1,-1
3.865558,740,0,-2,-1,0,1,0,2,0
3.865580,741,0,-1,0,0,0,-1,-2,-4
3.867038,742,-2,-2,-3,-1,-3,-4,-2,-1
3.867077,743,-2,0,0,-1,-1,0,-1,-1
3.879237,744,-1,0,0,0,-2,0,0,0
3.879254,745,-1,-2,1,0,-3,0,0,-1
3.889868,746,-3,-1,-1,-3,0,-2,-2,-1
3.889881,747,0,0,-1,0,-1,0,1,0
3.902624,748,0,0,1,1,-1,-2,-3,-1
3.902645,749,-1,-1,-1,-1,-1,-2,-1,-2
3.909562,750,0,-1,-1,-2,-1,0,1,-1
3.909583,751,0,1,1,-1,-2,-3,1,-1
3.925575,752,-1,0,-1,-1,0,-2,-1,-2
3.925596,753,0,0,1,0,2,-1,0,-1
3.927079,754,-1,-2,-1,0,-1,0,-1,-1
3.927097,755,-1,-2,-1,-1,-1,-2,-1,-3
3.948137,756,-2,-2,-2,0,-2,-1,-3,-4
3.948158,757,-1,-2,-2,-5,-3,-2,-1,0
3.949578,758,0,-1,-2,1,-1,0,0,0
3.949590,759,-1,1,2,3,1,0,0,0
3.962933,760,-1,0,0,2,-1,-1,-2,-1
3.962958,761,-4,-1,-2,-1,0,-2,-1,-1
3.969684,762,1,-3,-2,-6,-2,-2,-1,-3
3.969715,763,-2,-4,-2,-1,0,-2,-1,-1
3.985697,764,-1,0,0,-1,-1,0,-2,-2
3.985721,765,-2,0,-2,2,-2,0,0,-2
3.988145,766,-1,0,-1,1,0,-1,-1,-1
3.988153,767,-2,-1,-1,-1,0,-2,-1,-1
4.008230,768,-1,1,0,-1,0,-1,-1,-1
4.008248,769,-1,-1,-1,-1,0,-1,-1,0
4.009856,770,1,-1,-3,-2,-2,-2,-1,-2
4.009869,771,-2,1,0,-1,-3,-1,-2,-1
4.022750,772,-2,-1,-2,-1,-1,0,-1,-1
4.024493,773,1,-1,-3,0,-1,-2,-2,-2
4.029430,774,0,-3,0,-1,-1,-2,0,-1
4.029446,775,1,-1,-2,-2,-2,-3,0,-1
4.046036,776,0,-2,-2,-2,0,-2,0,-1
4.046062,777,-1,-1,-1,2,0,0,-1,1
4.047189,778,0,-2,-1,-2,-1,-2,-1,0
4.047201,779,-3,5,-1,-3,-2,0,-2,-1
4.068205,780,0,-6,-1,-1,0,-1,-1,0
4.068232,781,0,0,-1,-1,-1,-1,1,0
4.070655,782,-2,-1,0,-1,-1,-2,-1,-2
4.070663,783,-1,-3,-1,-2,-3,-1,0,-1
4.083037,784,0,1,0,0,-1,-1,-1,0
4.083064,785,-1,-1,1,-2,-1,-2,-1,-1
4.089781,786,-1,-2,1,-1,-2,1,-2,-2
4.089804,787,-1,-2,-3,-2,0,1,-1,-2
4.105448,788,-1,1,-2,-2,0,-3,-2,-1
4.105460,789,0,-4,-2,0,-2,0,-2,-1
4.107335,790,-3,1,-2,0,0,-1,-1,0
4.107352,791,-2,-2,-2,-1,-1,-1,1,-1
4.128140,792,0,1,-2,-1,-2,0,1,-1
4.128164,793,-2,0,1,1,-1,0,1,-2
4.129983,794,0,0,-1,-1,-1,0,-1,0
4.129994,795,-1,-2,-1,0,0,-1,0,0
4.141898,796,-2,0,0,-1,-1,-1,1,-1
4.141915,797,-1,0,0,-1,0,-1,0,-2
4.151332,798,-2,-1,-3,-2,1,-1,0,-1
4.151348,799,2,-2,-1,-1,-1,0,0,0
4.165528,800,-2,0,0,-3,-1,0,-1,-1
4.165599,801,-1,-3,2,-1,-2,-1,-2,-1
4.167075,802,-3,18,-2,-2,0,-2,-1,-2
4.167105,803,-3,-37,-2,-3,-2,-1,-1,-1
4.188306,804,-1,0,-2,0,0,-1,0,1
4.188330,805,-3,-1,-3,0,-1,0,-1,1
4.190612,806,0,2,0,0,-1,-1,-2,-1
4.190625,807,0,8,0,-2,0,-1,-1,0
4.202100,808,-1,-4,-3,0,-2,1,-1,0
4.202129,809,-1,-1,-1,-2,0,-2,1,0
4.210713,810,-2,-3,-1,0,-1,-1,-2,-1
4.210732,811,0,4,-1,0,-1,-2,-1,-1
4.233264,812,-2,-5,0,-1,1,-1,-1,-1
4.233293,813,0,4,0,-2,0,-2,-2,-1
4.235005,814,0,-4,1,0,-1,-1,-1,-2
4.235013,815,0,0,0,-1,-2,1,-1,-2
4.248159,816,-2,5,-1,0,-1,0,-2,-1
4.248191,817,-1,-7,-3,-1,-1,-1,-1,-2
4.249997,818,1,-11,-1,-1,-1,-1,0,0
4.250005,819,-1,28,1,-1,-2,-2,-2,0
4.261929,820,-2,-41,-1,-1,-1,-3,0,1
4.261954,821,0,2,-2,-2,-1,0,-2,-2
4.272579,822,-1,-3,-1,-2,-3,-1,0,-1
4.272595,823,-1,8,1,0,-1,-1,0,0
4.286153,824,1,12,1,-2,-1,-1,-1,-1
4.286164,825,1,-2,-3,-1,0,-2,-1,-2
4.287020,826,0,-3,-2,-1,0,0,-1,1
4.287031,827,-2,-4,-2,-1,-1,-2,-3,0
4.308219,828,0,1,0,0,0,-4,-2,-3
4.308240,829,-3,-5,1,-1,-1,0,-2,0
4.309913,830,0,4,-1,-1,0,-1,-1,-1
4.309922,831,0,-3,-1,-2,0,0,-1,-1
4.322064,832,0,1,-1,0,-2,1,1,0
4.322085,833,-2,5,-1,0,0,0,-1,-2
4.331409,834,-2,-3,-2,-1,0,-2,-2,0
4.331419,835,-1,-6,-2,-2,1,-2,-2,1
4.346304,836,-1,5,-1,0,0,-1,0,0
4.346320,837,-2,-5,-2,0,1,-1,0,0
4.347129,838,-1,-1,-1,0,-1,-1,-1,-2
4.347146,839,-1,-6,0,-1,-1,0,-2,-1
4.368456,840,1,9,0,-3,-2,0,-1,-1
4.371073,841,-1,1,-1,-1,-2,-1,0,0
4.371086,842,0,-8,-2,-2,-2,-1,-1,-1
4.371090,843,0,22,-1,0,0,-2,-2,0
4.381797,844,-3,-34,-3,-1,0,-1,-2,-1
4.381817,845,1,1,0,-1,-2,-1,-2,0
4.391439,846,0,0,0,-2,-3,-1,-1,-1
4.391453,847,-1,-6,-1,1,-3,-1,-1,-2
4.405572,848,0,14,-1,0,0,-2,-2,-1
4.405583,849,2,1,0,-2,-1,-2,-1,-2
4.407284,850,-1,-4,-1,-1,0,0,-1,0
4.407303,851,-1,2,-2,-2,-1,-1,-1,0
4.428198,852,0,4,0,0,-1,-2,0,-2
4.428223,853,-3,-6,-2,-1,0,0,-2,1
4.429888,854,-1,3,-1,-1,-1,0,-1,1
4.429900,855,-2,-8,-1,-1,-1,-1,1,-1
4.442067,856,1,1,-1,-1,-1,-1,0,0
4.442083,857,-1,-1,0,-1,-3,-1,-1,-2
4.451241,858,-1,0,-3,-1,-1,0,2,-2
4.451251,859,-1,-7,-1,0,1,-1,-1,-1
4.466533,860,-1,2,-2,-2,-3,-1,-3,-3
4.466544,861,-2,4,0,0,-1,-1,-2,0
4.467032,862,-2,-1,-1,0,-1,-1,-1,1
4.467072,863,0,-6,-2,0,-3,0,-2,-2
4.488448,864,-1,5,1,0,-1,-1,-1,-1
4.488467,865,0,-1,-2,-1,-2,-2,-1,0
4.490231,866,-2,-2,1,-1,-2,-2,-2,-1
4.490246,867,-1,-3,0,-1,-2,1,1,-1
4.502016,868,-1,6,0,-1,-2,0,-1,-3
4.502033,869,-1,-9,-2,-1,-1,-1,0,-3
4.510835,870,-1,-1,1,0,-1,0,-1,-2
4.510845,871,1,0,1,-2,-1,-1,-1,-1
4.526145,872,-3,-1,-2,-1,-2,0,-1,-1
4.526158,873,0,0,-1,2,-1,-1,-1,0
4.527069,874,0,1,-1,1,-1,0,-1,-1
4.527084,875,0,-2,0,-1,-1,0,-2,-2
4.548214,876,0,-1,0,0,-1,0,0,0
4.548241,877,-2,1,-2,-4,-1,-1,0,0
4.550005,878,1,-3,-1,2,-1,-2,-1,-1
4.550014,879,-2,-2,-1,0,-2,-1,-2,0
4.562094,880,1,-2,-1,0,-2,-1,-1,-1
4.562114,881,-1,2,1,-2,-1,-1,-1,-3
4.571258,882,-3,1,-1,-1,-1,-1,-1,-2
4.571268,883,-2,-1,-2,-3,-3,-1,-1,-2
4.586928,884,0,-1,-1,-2,-1,-1,1,-1
4.586938,885,0,0,-3,0,-2,-1,-2,0
4.587024,886,0,0,0,-2,-1,0,-1,0
4.587030,887,-1,-2,-1,0,1,0,0,-1
4.608310,888,-3,-1,-1,-1,-1,1,-2,1
4.608327,889,0,2,0,-1,1,0,0,0
4.609600,890,-1,-1,-3,-1,1,-2,-1,0
4.609621,891,-1,-1,-2,-1,-1,0,-1,-1
4.622663,892,1,-3,-1,-1,-2,-3,-1,-2
4.622688,893,-1,-3,-1,-1,-3,0,-2,-1
4.631027,894,-2,-2,0,-3,-2,0,0,-1
4.631038,895,-1,-2,-1,0,-1,-3,-2,1
4.647514,896,1,-1,0,1,1,-2,-3,-1
4.647526,897,0,0,-2,-1,-1,-1,0,0
4.647529,898,-2,-1,0,-1,-1,-1,-1,0
4.647530,899,1,-1,-2,-2,-1,-1,0,-1
4.668630,900,-2,1,-1,-1,-1,-1,0,-2
4.668744,901,2,0,-1,0,-2,-2,-1,-1
4.671196,902,-2,0,-1,-1,-1,-1,-1,1
4.671203,903,-1,-1,0,-1,-1,-3,-2,-1
4.681964,904,-3,-1,-1,-1,-1,0,0,-1
4.681987,905,-1,-2,1,-2,-1,0,-1,-2
4.692553,906,0,0,-1,-1,-1,-2,0,-1
4.692565,907,0,-2,0,-1,-1,-1,-2,0
4.705913,908,-1,-1,-4,0,0,-1,-1,0
4.705940,909,-2,0,-2,0,-2,-2,-1,0
4.708568,910,0,-1,-1,0,-1,-2,-1,-1
4.708580,911,-1,0,-2,-1,-1,0,0,-1
4.728203,912,-1,-1,1,-2,-1,0,-1,-1
4.728222,913,0,0,-3,-1,0,-1,-1,-1
4.729621,914,0,0,-1,-1,-1,0,-1,0
4.729630,915,0,-1,-1,-2,-1,-1,1,-1
4.741886,916,-1,-1,-1,-1,-3,1,-1,0
4.741903,917,0,-1,0,0,0,0,-1,-2
4.751415,918,-3,-1,1,1,-1,1,-1,-1
4.751432,919,-1,-1,-2,-2,0,-1,0,-1
4.765037,920,0,-1,0,-1,-2,-2,-1,-1
4.765062,921,0,-1,0,-2,-2,0,-1,-1
4.772054,922,0,0,-2,-2,-4,-1,0,-3
4.772083,923,-2,-1,-1,0,-2,-1,-1,-1
4.788651,924,-2,0,-2,0,-1,0,1,-2
4.788676,925,-3,-1,-1,-1,-1,-1,-1,1
4.791203,926,0,-2,0,-1,-1,-1,-2,-1
4.791217,927,-3,-1,0,0,-1,-1,-1,0
4.801846,928,-1,-1,-1,-1,0,0,0,1
4.801869,929,0,0,0,-1,1,-2,-1,-1
4.811600,930,-1,-1,-2,-1,1,0,0,-1
4.811613,931,1,-3,-1,-1,-1,0,1,-1
4.825215,932,0,0,0,0,0,-2,-3,-1
4.825239,933,-2,-2,1,-1,0,0,1,0
4.831872,934,-2,-1,-2,0,0,-1,-2,0
4.831887,935,-1,-1,-1,-1,0,-1,-1,0
4.848262,936,-1,0,-1,-2,-1,0,-1,-1
4.848286,937,0,-1,0,-2,-1,-1,-1,-1
4.849668,938,-1,-2,-1,-2,-1,-3,-2,-2
4.849704,939,-1,1,-1,0,0,0,-1,-1
4.870247,940,-1,-2,-1,-2,-2,-1,0,0
4.870275,941,-2,-1,-3,1,1,0,0,-2
4.872824,942,-3,-1,1,-1,-1,0,0,0
4.872831,943,0,-1,1,-2,-1,0,1,-2
4.884768,944,-1,0,-2,-1,-4,-2,0,1
4.884789,945,-1,-2,-2,-2,-1,-1,0,0
4.891840,946,-1,-3,-1,0,1,0,-1,-2
4.891863,947,1,0,-1,0,0,-1,-4,-1
4.907618,948,0,-1,0,-2,-1,-2,-1,0
4.907644,949,-1,-1,1,1,-1,-1,-1,-1
4.909966,950,1,-3,-2,-1,-3,0,0,-1
4.909977,951,-2,-3,-1,-2,0,-2,-2,0
4.929914,952,-1,-2,-1,0,1,-1,-1,-1
4.929936,953,-3,-1,-1,0,-2,0,-2,-1
4.930759,954,-1,1,1,-1,-2,-1,0,-2
4.930764,955,-1,0,1,-1,0,1,-3,-2
4.944208,956,0,0,-1,0,0,0,0,-1
4.944228,957,-1,2,-1,-1,-1,-1,-1,-1
4.960140,958,0,0,0,0,-1,-2,0,1
4.960158,959,-1,-3,-1,0,-1,-1,0,-1
4.967572,960,0,-2,0,0,0,-2,-1,0
4.967594,961,0,-1,0,-1,0,-1,-1,-1
4.969339,962,-1,3,-1,-1,-2,-1,-2,0
4.969349,963,0,-8,-2,-1,-2,-1,-1,-1
4.990070,964,-1,0,-1,-2,-1,-1,-1,-1
4.990102,965,0,-2,-1,-1,0,-1,-1,0
4.992120,966,-1,-1,-1,-1,-1,-1,-1,-1
4.992132,967,-1,3,-1,0,-2,-2,0,1
5.004582,968,-1,1,-3,-1,-1,-2,-2,-1
5.004608,969,-1,-3,0,-1,-3,-1,-1,-2
5.011837,970,-2,0,0,-1,0,0,-3,-2
5.011855,971,-2,1,1,0,-2,-1,1,-2
5.027313,972,-2,-2,-3,-2,-2,0,0,-1
5.027324,973,1,0,0,-1,-1,-1,-2,-2
5.028271,974,-2,-1,0,0,0,-3,-2,-1
5.028322,975,-2,1,0,0,0,-1,0,0
5.049991,976,-1,0,-1,-2,-1,0,-2,-1
5.050012,977,-2,-2,-2,-2,-2,-2,-1,0
5.052690,978,0,-4,-2,-1,-1,1,0,-2
5.052698,979,0,1,-1,-2,-1,-1,-1,-2
5.064274,980,-2,0,0,0,0,-1,-1,-1
5.064295,981,-1,-1,-1,-1,-2,-2,-1,0
5.073085,982,1,-2,-1,-1,-1,-1,-1,0
5.073099,983,-3,-1,-2,0,0,-1,0,-2
5.088310,984,-1,-2,-1,0,-1,0,-2,0
5.088320,985,-3,-2,-1,0,-1,1,1,0
5.088322,986,-1,-1,1,1,0,-2,-1,-1
5.088323,987,1,0,-2,-3,0,-2,-1,0
5.110416,988,-1,0,-1,-1,0,-2,-1,-1
5.110438,989,0,0,-2,-3,-1,0,-1,0
5.117452,990,0,0,-1,-1,-2,-1,0,-2
5.117472,991,2,-1,0,-1,-2,-2,-1,-2
5.124324,992,0,-3,-1,-1,-1,-1,-1,-2
5.124340,993,-2,0,1,0,0,-2,-2,-2
5.133918,994,0,0,-2,1,0,-1,-1,1
5.133928,995,-1,0,-2,-1,-1,-1,0,1
5.148203,996,1,-2,-1,-1,-1,-2,0,-1
5.148214,997,-2,-2,1,-1,-2,0,-1,0
5.148216,998,-2,-1,-2,-1,0,-1,0,0
5.148218,999,-2,-1,-1,-1,-1,0,0,1
5.170249,1000,-2,-1,-1,-1,0,0,-1,-1
5.170393,1001,0,0,-1,1,0,-2,-3,1
5.172330,1002,-1,-1,-1,-2,0,0,-1,-2
5.172341,1003,-2,-1,0,0,-1,-1,-1,-1
5.187138,1004,-2,-1,-1,-2,-1,0,0,0
5.187149,1005,0,0,-3,-1,0,-1,-1,-2
5.191720,1006,-1,-1,-2,-2,-1,-2,-1,1
5.191738,1007,-1,-1,-1,-1,-2,-1,-1,-1
5.208985,1008,-1,-1,-1,0,0,-1,-1,-2
5.208997,1009,-1,-1,-2,-1,0,-1,0,0
5.208999,1010,0,-1,0,-2,-2,-1,-1,-2
5.209001,1011,-1,-3,-2,-2,0,-1,-2,-2
5.230016,1012,0,0,1,-1,-1,-2,-1,-1
5.230041,1013,-1,-2,-1,-2,-1,-1,-1,1
5.231968,1014,0,-2,1,0,-1,0,0,0
5.231978,1015,-2,-1,-2,-1,-1,-1,-1,0
5.244552,1016,1,0,-2,-2,-2,-1,-1,-1
5.244574,1017,0,0,-1,-4,-3,-2,-1,1
5.259997,1018,1,0,-1,-5,0,-1,-1,-1
5.260020,1019,-1,1,1,7,1,1,-2,-1
5.267775,1020,0,-1,0,-2,-1,0,0,0
5.267802,1021,0,-1,-1,0,-2,-2,-2,-1
5.269770,1022,-1,-1,-4,-1,-3,-2,-3,0
5.269781,1023,-1,0,0,-3,1,-1,-1,-2
5.290272,1024,-1,0,1,3,-2,0,0,-1
5.290299,1025,-1,-1,2,1,2,1,1,0
5.292268,1026,-1,-3,1,-1,-2,0,0,-1
5.292279,1027,0,0,-3,-5,-2,-1,-1,0
5.304707,1028,-2,0,-3,-4,-3,-2,-1,0
5.304731,1029,0,-1,-1,0,-2,-1,-2,-2
5.311951,1030,0,-1,-7,3,0,0,-2,0
5.311975,1031,1,1,6,2,-1,0,1,0
5.327370,1032,1,-2,-5,-2,0,-1,-1,0
5.327391,1033,-1,-1,1,-6,-1,-2,0,-2
5.328727,1034,-3,-1,-2,5,1,-1,-1,0
5.328737,1035,0,-2,-2,-3,-2,-1,-2,-1
5.350283,1036,-1,-1,0,0,-1,0,-1,-1
5.350307,1037,-2,-2,-4,0,-1,-1,-1,-1
5.350786,1038,0,0,0,-4,-2,-1,0,0
5.350805,1039,0,-1,-1,1,1,1,0,0
5.364305,1040,-3,-2,-3,2,0,-1,-1,-1
5.364334,1041,-1,-2,1,-8,-1,-2,-3,-1
5.372160,1042,0,2,0,1,-2,-4,0,-1
5.372186,1043,1,2,5,6,1,1,1,-1
5.387296,1044,0,1,7,3,0,1,0,0
5.387311,1045,0,-1,-3,2,1,-1,-2,0
5.390171,1046,-2,-2,-2,-6,-3,-2,-2,-2
5.390184,1047,-1,-3,-5,-7,-4,-4,-1,-1
5.409942,1048,-1,-2,-3,-1,-1,-3,0,-3
5.409965,1049,-1,-1,-3,-2,-2,-1,-1,-2
5.410692,1050,0,-1,1,-2,-1,-1,-2,-2
5.410711,1051,-2,-2,-4,-2,-2,-2,-2,0
5.424321,1052,-3,-3,-2,-3,-1,-1,0,1
5.425493,1053,-1,-3,0,1,-2,-2,0,-1
5.431812,1054,-1,1,2,0,2,1,2,-2
5.431833,1055,-2,-1,0,0,-1,1,-1,-2
5.447394,1056,1,0,-1,-7,-1,-1,-3,-1
5.447416,1057,-1,0,-3,3,-2,-1,0,2
5.449343,1058,-1,-4,3,-2,1,1,-1,-3
5.449356,1059,-3,-1,-1,-6,-4,-3,-2,-3
5.470147,1060,1,2,-24,0,1,0,0,-2
5.470167,1061,1,3,8,7,3,3,0,1
5.470639,1062,1,0,-3,-7,2,0,-2,1
5.470714,1063,-2,-4,2,-4,-3,-3,-3,-2
5.484492,1064,1,-2,-4,-6,-6,-3,-3,-2
5.487376,1065,-3,1,-5,6,-1,-1,1,-1
5.491756,1066,-1,2,9,3,1,0,2,1
5.491771,1067,0,-1,16,5,1,0,-1,1
5.507421,1068,-3,-3,-11,-1,-2,0,0,-1
5.507439,1069,0,-1,-3,-5,0,-1,-2,-4
5.509059,1070,0,-6,15,-17,-5,-2,-1,-1
5.509071,1071,0,-1,-28,2,-2,-1,-1,0
5.529894,1072,1,1,7,14,2,1,-2,2
5.529915,1073,-3,0,3,3,-1,-2,-1,-1
5.530564,1074,-1,-2,-7,-2,-1,-1,0,-1
5.530580,1075,0,-1,-1,-13,-4,-1,-2,-1
5.544276,1076,0,0,9,0,-1,0,0,-2
5.544300,1077,-1,-3,-6,-4,1,-1,1,-2
5.551968,1078,-1,1,-3,6,-1,-1,-2,-1
5.551990,1079,-1,-3,-6,3,-1,-1,2,-1
5.567451,1080,-2,-1,20,2,-1,-1,-2,-2
5.567472,1081,0,0,-20,-14,-1,-2,-1,-1
5.568637,1082,-1,1,1,6,0,-1,0,-2
5.568645,1083,0,1,5,4,1,0,-1,0
5.590033,1084,-2,-4,0,-3,-1,0,-1,-2
5.590064,1085,-2,-3,4,-5,-3,-1,-1,-2
5.590934,1086,-2,1,-3,3,-2,-2,0,-1
5.590951,1087,-3,3,1,0,1,-1,1,1
5.604376,1088,0,-3,-2,-4,-1,-2,0,-2
5.604398,1089,0,-1,-6,-3,-3,-1,0,0
5.611768,1090,0,-2,-8,2,-1,-1,-1,-2
5.611789,1091,1,0,7,2,0,-1,0,-2
5.627446,1092,0,0,-4,-6,0,-2,1,0
5.627463,1093,0,-2,4,1,0,0,0,-1
5.628298,1094,-2,-1,0,2,-1,-1,-1,-1
5.628310,1095,-2,-2,-4,-2,-1,0,-3,-1
5.649799,1096,0,-2,-3,-2,0,-1,-1,-1
5.649814,1097,0,-1,0,-1,0,-1,-2,1
5.650620,1098,1,-1,-2,-2,-1,-1,0,0
5.650688,1099,0,-3,-3,-2,-2,-1,0,0
5.664278,1100,-1,1,-3,0,-1,-2,0,1
5.664476,1101,-2,-2,4,-6,-3,0,-1,-2
5.672025,1102,1,1,-4,5,-2,0,-1,-1
5.672045,1103,-2,0,2,0,0,1,0,-3
5.687687,1104,-1,-2,4,0,0,2,0,0
5.687709,1105,0,-3,-1,0,-2,-1,-1,-2
5.689839,1106,-2,-5,-5,-7,-1,-1,-2,-1
5.689851,1107,1,0,-1,4,-3,-2,-1,0
5.710006,1108,-1,-1,0,0,0,0,-2,1
5.710022,1109,-1,-1,2,0,-2,-3,-3,1
5.710576,1110,-2,-3,-4,-3,-3,-1,-1,0
5.710595,1111,0,-2,0,2,-1,-2,-2,6
5.724270,1112,0,0,-3,-3,-1,-1,-1,-2
5.724292,1113,0,-1,0,2,0,0,-1,-5
5.731854,1114,-2,0,0,-1,0,0,-1,-6
5.731884,1115,-1,0,-3,-4,0,-1,-1,-7
5.747431,1116,0,0,-1,-1,-1,-1,-1,-4
5.747463,1117,-1,0,0,1,-3,-1,0,-2
5.749213,1118,1,0,0,0,0,-1,-1,-1
5.749218,1119,-3,0,-2,-4,-1,-1,-2,0
5.769934,1120,-1,-2,-2,-3,-2,-2,-1,0
5.770007,1121,0,-4,1,1,-3,1,0,0
5.770668,1122,-3,1,-1,-6,-2,0,-1,2
5.770680,1123,0,-1,-2,3,-1,-2,1,-1
5.784246,1124,0,0,0,0,0,-2,0,-1
5.784261,1125,-3,-2,0,0,1,-3,0,0
5.791782,1126,-2,-1,-4,1,-1,-1,-1,1
5.791799,1127,-2,-2,-4,-4,-2,-1,-1,0
5.807796,1128,-2,-1,0,-2,-1,0,-1,-1
5.807824,1129,0,2,3,2,1,-1,-1,1
5.809492,1130,-1,-2,-1,-2,1,0,-2,1
5.809502,1131,-1,-1,-1,-3,0,0,-1,-1
5.829903,1132,-2,-2,-1,0,-2,-2,-1,0
5.829922,1133,-1,0,-3,0,-1,-1,-2,1
5.830634,1134,-1,1,-1,-1,-1,-1,0,-1
5.830668,1135,1,-2,-1,-1,-1,0,-1,-1
5.852330,1136,0,-1,1,-1,-1,1,0,1
5.852362,1137,0,0,-1,-1,1,1,-1,-1
5.854303,1138,-1,-2,-1,1,-1,-2,-2,-2
5.854318,1139,-1,-1,-1,-1,-2,-2,-1,-1
5.867596,1140,0,-1,-1,-1,-1,0,-1,-2
5.867618,1141,0,1,-2,-1,1,-1,0,-1
5.869027,1142,-1,0,0,1,-2,-1,-2,0
5.869036,1143,0,0,1,0,0,0,-1,-1
5.890807,1144,-2,0,-2,-1,-3,-2,-1,1
5.890820,1145,-2,-1,-1,-1,0,-1,-1,0
5.890822,1146,-1,-2,-3,0,0,1,-2,-2
5.890824,1147,-1,-1,-1,-1,0,-1,-1,-2
5.912757,1148,0,-1,-1,-1,0,-2,-1,-1
5.912776,1149,-1,-2,1,-3,-1,-2,-1,-1
5.913946,1150,1,-1,0,0,1,-1,2,2
5.913957,1151,-1,-1,0,-1,-1,-2,-3,-1
5.927420,1152,-2,-1,-1,-1,0,0,-2,-2
5.928412,1153,-1,0,-2,-3,-2,-1,-3,-3
5.928427,1154,-1,0,1,0,0,-1,0,-1
5.928429,1155,-1,-2,-1,-2,1,-2,-1,-1
5.958100,1156,-1,-1,-1,-4,-2,-2,0,-1
5.958124,1157,-1,0,0,1,0,0,-2,-2
5.959864,1158,-2,0,-1,-2,-2,-2,0,0
5.959876,1159,0,1,-3,-1,-1,-1,-1,-1
5.972655,1160,-1,-1,0,0,0,-2,-1,-2
5.972679,1161,-2,-2,0,-1,-2,-2,-1,-1
5.974665,1162,-1,-1,-1,-3,0,-3,-1,-1
5.974677,1163,-3,0,-1,-1,0,-2,-1,0
5.988064,1164,-2,-2,0,-1,0,0,0,-2
5.988085,1165,-1,0,0,0,-2,0,-1,-2
5.990212,1166,-2,-2,-2,-2,-1,1,-1,-2
5.990229,1167,0,0,-1,-2,-3,0,0,-1
6.010199,1168,-1,-1,-2,0,-1,-2,-1,0
6.010211,1169,-1,-2,0,-1,-1,-1,-2,-3
6.010523,1170,-2,-1,0,-1,-1,0,-1,-2
6.010591,1171,-2,1,-1,0,-1,1,-1,-3
6.032418,1172,-3,-1,-3,-3,-1,-2,0,-2
6.032445,1173,-2,-2,1,-2,1,0,0,-2
6.033228,1174,-2,-3,-1,-1,-2,0,0,-3
6.033233,1175,-4,-1,-1,-1,1,-2,-1,-2
6.047513,1176,-2,1,0,-1,-1,-2,-2,-2
6.047541,1177,-2,0,-2,-3,-1,-1,0,-1
6.049680,1178,0,0,2,-1,-1,-2,0,-1
6.049688,1179,-2,0,0,-2,-1,0,-1,-1
6.071722,1180,-1,-1,-2,0,0,1,0,-1
6.071737,1181,0,0,-2,2,0,0,-1,0
6.071738,1182,2,0,-2,1,-2,-1,-2,0
6.071740,1183,3,-4,0,0,-2,-2,-2,2
6.092567,1184,2,-1,-2,-1,-2,0,-1,4
6.092583,1185,1,-1,0,-2,-2,0,-2,2
6.094292,1186,-3,-1,0,-1,-1,-1,-2,-2
6.094304,1187,2,0,0,0,0,0,-1,1
6.107434,1188,-1,-1,-3,1,0,-1,-1,0
6.107453,1189,1,-1,-1,-1,-1,-1,0,1
6.109108,1190,-1,-2,-1,2,-1,0,1,0
6.109120,1191,-2,0,0,-1,-1,-1,-4,-1
6.131442,1192,0,-1,1,-1,-1,0,-2,0
6.131458,1193,0,0,0,0,-2,-1,-3,0
6.131461,1194,0,-2,-4,0,0,-1,-1,0
6.131464,1195,0,-2,-1,-2,-2,-1,0,0
6.152639,1196,-1,1,0,-1,0,0,0,1
6.152660,1197,-2,-1,1,-1,0,-2,0,-2
6.154408,1198,0,1,-2,-1,-1,-2,-1,1
6.154418,1199,-2,0,-2,-2,-1,-1,-1,-1
6.167647,1200,0,-1,0,0,-2,-2,-2,-1
6.167735,1201,0,-2,-2,-1,-3,-3,-1,-1
6.169264,1202,-1,-3,0,0,-3,-1,-2,0
6.169273,1203,1,-1,0,0,-1,0,-1,-1
6.190215,1204,-1,-2,0,-1,-3,0,-2,-1
6.190244,1205,-1,-1,1,-2,-1,1,1,0
6.192042,1206,-2,1,-5,-1,0,0,-2,1
6.192055,1207,-1,2,0,0,1,0,0,-1
6.212476,1208,-2,-1,-1,-1,0,-1,-2,-1
6.212500,1209,-1,-1,-1,-1,0,0,0,-1
6.213096,1210,-1,-1,0,-2,-1,-1,-3,0
6.213108,1211,-1,0,-1,-1,-1,-1,-1,0
6.227562,1212,0,-1,-3,1,-1,0,-1,-2
6.227585,1213,-1,-1,-1,-1,0,-1,-3,-2
6.228254,1214,1,-4,1,-1,-1,0,0,-2
6.229389,1215,-2,-3,-2,-1,0,-1,-1,1
6.249816,1216,1,0,-1,-1,-1,0,-1,0
6.249836,1217,-2,-1,-2,0,-2,-1,0,0
6.250978,1218,0,0,0,-1,-1,0,0,-1
6.250992,1219,-1,-3,0,-2,-2,-2,-1,-2
6.272599,1220,0,-2,-1,-1,-1,0,-1,-1
6.272620,1221,-1,-1,-2,0,0,0,-2,-2
6.274317,1222,-1,-1,1,-2,1,-1,0,-2
6.274478,1223,-1,-2,-1,-2,-2,-1,-1,-2
6.287643,1224,0,-1,0,0,0,-2,-1,-2
6.287664,1225,-1,0,0,-2,-2,-1,-2,-1
6.288909,1226,-1,0,0,-2,-2,-3,-1,-1
6.288918,1227,-1,2,-3,0,0,-1,-1,0
6.309801,1228,-2,-6,0,0,-1,-1,-1,-2
6.309820,1229,-2,0,-1,0,0,-1,0,1
6.311373,1230,-2,-2,-2,-1,-1,-2,0,-3
6.311385,1231,0,1,-2,-3,-1,-2,-1,0
6.332344,1232,-2,1,0,-6,-2,-1,-1,0
6.332364,1233,0,0,3,6,2,1,1,0
6.333139,1234,-2,0,1,-1,-1,0,-2,-2
6.333145,1235,-2,-1,-1,1,-1,0,-1,-1
6.347542,1236,-1,0,-3,-2,-1,-1,0,0
6.347562,1237,-1,-3,-1,-3,-2,-3,-1,-1
6.348270,1238,1,0,-1,0,0,0,-1,-1
6.348281,1239,0,0,-1,-1,-2,-1,-1,-1
6.369899,1240,0,-1,-1,-2,-3,-2,-2,-1
6.371619,1241,-1,-1,-2,-3,-3,0,-1,-3
6.371630,1242,0,-2,-1,0,-1,-2,-1,1
6.371632,1243,-2,-2,-1,-2,0,-1,1,-2
6.392514,1244,-2,1,1,-1,0,-1,0,0
6.392531,1245,-1,-1,-2,-2,-1,-1,-1,0
6.393182,1246,-2,-1,-3,-1,-2,0,-1,1
6.394055,1247,-2,-2,0,0,-1,1,-1,-1
6.407509,1248,0,0,-1,1,-1,-1,0,0
6.407545,1249,0,-1,0,-1,-1,-3,-1,-2
6.409146,1250,-3,21,-1,-2,-2,0,-1,-2
6.409159,1251,-2,-17,-2,-1,0,-1,-1,-3
6.429922,1252,-1,1,-2,0,0,-2,0,-2
6.429943,1253,0,-4,-3,-2,0,-2,-1,0
6.431436,1254,2,2,2,1,-1,-3,1,0
6.431449,1255,-1,3,1,0,-2,0,-1,-2
6.452681,1256,-1,-2,-2,-1,-1,-1,-2,-1
6.452705,1257,0,3,-1,-1,-1,-1,0,0
6.454579,1258,-2,-4,-2,-2,0,-3,0,0
6.454590,1259,-1,0,-2,-1,-2,-2,-2,-1
6.466664,1260,0,-3,0,-1,0,0,-2,-2
6.466755,1261,-2,0,-2,-1,0,0,-2,-1
6.474999,1262,-3,14,-2,0,-1,-1,-2,-1
6.475023,1263,0,-23,1,0,-3,0,0,-1
6.490178,1264,-6,22,-3,-2,0,1,-2,0
6.490200,1265,4,-7,-1,0,-3,-2,0,-1
6.492260,1266,-1,15,-1,-2,0,-1,-1,-3
6.492272,1267,2,-18,0,1,-1,-1,-1,-2
6.512545,1268,-2,6,-2,2,-1,1,-1,-3
6.512567,1269,1,4,-2,-2,1,-1,-2,0
6.513152,1270,-5,-25,1,0,0,0,0,0
6.513168,1271,-2,40,-2,-3,-2,-1,-2,-2
6.526725,1272,6,-18,-3,-2,-2,-2,0,0
6.526786,1273,-5,1,-3,0,0,0,-2,0
6.535031,1274,3,-12,0,-1,-1,-1,-3,-1
6.535052,1275,-2,7,2,-1,1,-1,0,0
6.549924,1276,-2,-4,0,1,0,-1,-1,0
6.549946,1277,2,3,-1,-3,-2,0,-1,-1
6.550885,1278,0,-7,-1,0,0,-2,-1,0
6.550897,1279,-3,0,-1,-1,0,-1,0,1
6.572749,1280,7,-1,-2,-1,-3,-1,-3,-2
6.572783,1281,0,14,1,0,-1,-1,0,0
6.573120,1282,33,-16,1,-1,0,-2,-1,1
6.573132,1283,-65,-18,0,-2,-1,-2,-1,0
6.595669,1284,37,16,2,1,0,-2,-1,1
6.595692,1285,-101,-31,-8,-4,-2,0,-2,-10
6.597412,1286,6,10,-1,-2,-3,0,-1,-4
6.597432,1287,25,2,1,0,-1,0,0,-1
6.610032,1288,-1,3,2,2,0,0,0,2
6.610048,1289,2,-13,1,-1,-1,-2,-2,3
6.611481,1290,-9,0,-2,-1,1,1,0,-1
6.611493,1291,-1,2,1,-2,-2,-2,-3,-1
6.632301,1292,-1,5,-2,-1,-1,-1,0,-1
6.632322,1293,22,-7,0,0,3,2,1,0
6.632976,1294,-14,-6,-4,-1,-1,-1,-2,-2
6.633010,1295,16,10,-2,0,-1,0,-1,-1
6.646942,1296,-2,-6,1,-2,0,-2,-1,-3
6.646960,1297,16,9,2,-3,-3,-3,0,0
6.654999,1298,-7,-3,1,-1,-2,0,0,-1
6.655015,1299,1,-2,-1,-2,1,0,1,-1
6.669809,1300,-12,-2,0,-2,-1,-1,-2,-4
6.669873,1301,9,-2,-3,2,-1,0,-1,-1
6.671498,1302,-7,1,0,0,-1,-2,-1,0
6.671510,1303,8,2,-1,0,-2,-2,-1,-1
6.692447,1304,-12,-11,-2,-2,-1,-1,0,0
6.692465,1305,42,13,1,0,0,-1,0,2
6.693073,1306,-32,1,-2,-3,-3,-2,-2,-3
6.693091,1307,-3,-28,-4,0,0,-2,-2,-2
6.707010,1308,0,-4,-1,-1,-1,0,2,2
6.707034,1309,-1,-1,0,-2,-2,-2,-1,-6
6.715383,1310,-5,10,0,0,0,1,-1,13
6.715405,1311,11,3,-2,-3,0,0,-2,-3
6.729859,1312,-15,-3,0,-1,-2,-3,-3,-3
6.729881,1313,21,4,0,-1,-1,-1,0,4
6.731049,1314,5,-5,0,-2,-3,0,1,-2
6.731065,1315,-6,2,0,0,-1,-2,-1,1
6.752665,1316,-2,-5,0,0,0,-1,-1,-1
6.752685,1317,-5,3,0,-1,0,-2,-2,1
6.754061,1318,1,-7,-3,-1,0,-2,-2,-5
6.754073,1319,-1,4,-2,-1,-1,1,0,1
6.775721,1320,6,0,-3,-3,-2,0,0,-3
6.775737,1321,-8,-2,-2,-1,-2,-1,-1,-1
6.777360,1322,-2,-4,-1,-3,-1,0,1,-1
6.777371,1323,9,1,1,-1,-3,-1,0,-1
6.790173,1324,-6,-2,-3,-1,0,-2,-2,-1
6.790195,1325,-6,-2,0,-1,-4,1,-1,0
6.792300,1326,6,0,-2,-2,0,2,-5,0
6.792313,1327,1,1,1,0,1,0,-2,-3
6.812487,1328,-5,-4,-2,-2,-3,-4,4,0
6.812509,1329,-3,2,0,-2,-2,-1,-1,0
6.813053,1330,3,-1,-1,-2,0,-5,-1,-5
6.813072,1331,0,-3,-1,-3,-5,-4,-5,0
6.835839,1332,-4,-2,1,6,11,27,3,3
6.837997,1333,10,1,1,0,0,-2,4,-6
6.838014,1334,-8,-5,-4,-1,-3,1,-5,-20
6.838017,1335,-4,0,-2,-1,-1,-8,-2,13
6.850053,1336,-1,-3,-1,-5,-4,-10,-3,0
6.850085,1337,-3,0,-1,0,0,2,0,-1
6.851980,1338,6,2,-1,1,0,-2,2,-1
6.851991,1339,-2,0,-2,0,0,-1,1,-5
6.872452,1340,1,0,0,-1,-3,-4,-1,-4
6.872480,1341,-1,0,-1,0,0,-1,-2,5
6.873309,1342,-1,-1,0,-1,0,-4,-1,2
6.873348,1343,2,0,-2,-1,0,2,1,-4
6.895581,1344,-1,-2,-3,0,-3,-1,-2,1
6.895604,1345,-5,0,-1,-1,-3,-2,-3,-3
6.897040,1346,4,2,-1,1,-4,-1,-1,5
6.897054,1347,3,1,2,0,26,5,1,-3
6.909817,1348,-8,-7,-1,-3,-25,-7,-3,-7
6.909834,1349,-3,-3,-2,-2,-1,-2,-2,-1
6.917515,1350,2,-3,0,-1,-1,0,2,1
6.917536,1351,18,13,7,5,-6,-15,7,20
6.932568,1352,-5,-4,-1,1,-4,23,-13,-2
6.932587,1353,14,7,3,10,46,-6,-40,-47
6.933350,1354,-22,-15,-12,-10,-34,-72,48,26
6.933437,1355,-4,-2,-7,-8,-1,0,17,10
6.955849,1356,7,6,1,-5,-16,-28,-34,11
6.958033,1357,6,3,0,3,-8,7,-3,17
6.958046,1358,7,2,3,4,13,28,-13,-20
6.958048,1359,-6,-2,-2,3,-3,-4,7,-15
6.970069,1360,0,-3,-2,0,8,-2,11,-4
6.971955,1361,-12,-5,-3,-2,-9,10,6,-8
6.971970,1362,4,3,1,1,10,11,-15,-2
6.971974,1363,-7,-5,-4,-4,-11,4,-4,1
6.992402,1364,0,1,1,0,8,9,0,-6
6.992427,1365,-6,-5,-4,-5,-3,-4,3,9
6.993040,1366,3,5,-1,-1,-3,-1,2,6
6.993057,1367,5,-9,-1,-5,-3,4,-13,-2
7.015655,1368,-5,-1,-2,4,6,-1,8,-4
7.015682,1369,-3,-1,3,0,-6,-7,13,8
7.017191,1370,3,0,4,1,3,6,-7,0
7.017205,1371,-8,0,-2,-1,-2,6,-8,-11
7.030063,1372,0,-2,-3,-3,3,-6,4,2
7.030084,1373,-4,-2,-2,-4,-7,-2,4,8
7.031011,1374,5,-1,-1,-1,1,11,-11,-2
7.031023,1375,-3,0,-2,-3,-2,-2,-6,-3
7.052453,1376,1,-1,-1,-3,-2,-4,9,3
7.052472,1377,5,1,-1,1,-2,-1,0,6
7.052981,1378,-3,-1,2,2,2,6,-2,-3
7.052993,1379,-1,0,1,3,0,0,2,-2
7.075563,1380,-1,-3,-3,2,0,-1,0,-1
7.075579,1381,-3,-2,-2,-4,-4,2,1,1
7.077256,1382,4,1,0,-1,0,1,-3,1
7.077269,1383,-2,0,-2,1,-4,1,-1,3
7.090058,1384,5,2,0,-4,3,1,-1,2
7.090083,1385,6,3,0,-3,-3,0,4,10
7.092099,1386,-16,-3,-4,-3,-4,-4,-5,-8
7.092111,1387,7,2,-1,-1,-1,1,-4,-4
7.112502,1388,-12,-11,-2,-1,1,-2,1,-8
7.112519,1389,0,1,0,-3,-3,-3,2,-1
7.113029,1390,2,1,-1,-1,2,2,0,0
7.113104,1391,-6,1,0,0,0,-1,0,-4
7.135818,1392,5,4,-1,-2,-1,-2,-1,-1
7.137405,1393,-2,-4,-2,-1,-2,-2,-1,-1
7.137420,1394,5,0,0,-1,0,2,-2,0
7.137424,1395,0,-2,-2,0,-1,-1,-4,-2
7.150250,1396,4,4,-1,-1,-1,-2,2,6
7.150272,1397,-2,-9,-3,-3,-2,-2,-2,1
7.152077,1398,-3,-2,2,1,1,2,1,1
7.152087,1399,-1,14,-1,-1,-1,-2,-2,-2
7.172659,1400,-7,-7,0,-1,0,-1,3,-1
7.172719,1401,-10,-20,-3,-4,-1,-3,-3,-10
7.173081,1402,-6,-1,-1,-2,1,-2,-1,-6
7.173091,1403,-11,-7,1,-4,1,-3,1,-11
7.195758,1404,-5,14,1,-1,0,-1,0,-10
7.195782,1405,-9,8,1,-3,-1,-1,1,-6
7.196955,1406,0,-3,-2,-2,2,-1,0,-5
7.196968,1407,-3,-2,-1,-1,-1,0,0,-2
7.210045,1408,0,-2,-1,-1,0,-3,-2,-1
7.210060,1409,2,1,-1,-1,-1,0,2,2
7.211706,1410,2,-2,-1,-2,-2,0,0,2
7.211719,1411,1,19,0,1,-3,-1,-1,1
7.232520,1412,-1,-24,-3,-1,0,-3,0,2
7.232599,1413,0,-3,-3,-1,-2,-2,-2,-1
7.233263,1414,1,5,0,0,-2,1,-3,-2
7.233277,1415,-2,2,-3,-1,0,1,-2,0
7.255674,1416,-2,4,-3,0,0,-1,-1,2
7.257447,1417,8,12,0,3,0,0,-4,1
7.257465,1418,4,-12,-3,0,-3,1,-2,4
7.257469,1419,7,8,-1,1,-3,1,-1,7
7.270187,1420,6,2,0,1,-3,0,-2,6
7.270209,1421,1,-5,-2,2,-2,2,-1,3
7.271675,1422,3,8,0,-2,-1,0,-2,4
7.271689,1423,1,-13,-1,0,-3,0,-3,3
7.292381,1424,2,1,-1,0,1,0,-2,2
7.292397,1425,-5,21,-1,0,-2,-2,-3,0
7.293103,1426,-5,-51,-4,-2,-4,-1,-3,0
7.293175,1427,-3,0,-1,3,6,0,0,1
7.315583,1428,0,-16,-1,-1,-2,-1,-3,-4
7.315604,1429,-10,9,0,1,1,0,-1,-3
7.317680,1430,1,15,-2,-1,-1,-2,-1,0
7.317689,1431,-7,-9,0,-4,-2,-2,-1,-3
7.338148,1432,-1,5,1,-4,-11,0,-1,-3
7.338229,1433,1,-4,-1,5,22,-3,0,-1
7.338804,1434,-5,6,1,1,-5,-1,-1,-4
7.338856,1435,-3,-14,-1,-2,-2,0,-3,-1
7.352628,1436,1,9,0,-1,-2,-2,0,-1
7.352639,1437,0,3,-1,-5,-7,-2,1,0
7.352931,1438,-1,-3,2,1,4,-1,1,-1
7.352938,1439,0,8,0,-1,1,0,0,1
7.375556,1440,-9,-11,-3,-3,0,-1,-2,-4
7.375574,1441,-1,-13,0,-3,-5,0,-1,-3
7.376966,1442,-2,44,1,1,4,-2,0,0
7.376978,1443,0,-18,0,-3,-5,-1,-2,-4
7.389544,1444,1,12,0,1,2,0,-1,2
7.391653,1445,-1,-13,-1,-2,-4,-1,2,1
7.397316,1446,1,32,-2,-3,-4,-2,-1,-3
7.397334,1447,-3,-17,-3,-2,0,0,0,-2
7.412581,1448,2,-5,-2,-2,1,0,0,-2
7.412593,1449,0,8,1,1,-2,-2,-1,2
7.413103,1450,0,-9,0,0,-1,-1,-1,0
7.413113,1451,-2,-4,-2,0,0,-2,-2,-2
7.435778,1452,2,4,-1,0,0,-1,2,2
7.435800,1453,-1,13,0,-1,-6,0,1,0
7.437489,1454,0,-35,-2,-2,1,0,-1,0
7.437499,1455,-2,4,-1,-2,0,-1,-2,-2
7.449293,1456,1,5,1,-1,0,-1,-1,0
7.449314,1457,0,3,-1,-2,-1,0,0,-2
7.458162,1458,-1,-6,-2,-1,-1,-1,-1,0
7.458175,1459,4,3,-3,1,1,-2,1,2
7.473762,1460,-6,2,1,0,-3,-2,-1,-3
7.473775,1461,-2,-12,-3,-2,0,-2,-2,-3
7.473777,1462,0,2,0,-1,0,-1,-2,-2
7.473779,1463,0,0,-1,-1,-5,-2,-1,0
7.495631,1464,-4,-2,1,-1,2,-2,-1,-1
7.495650,1465,0,-4,1,2,1,-1,0,-2
7.496556,1466,0,-8,-1,-6,-6,-2,-1,1
7.496564,1467,5,14,-1,4,8,0,-1,-4
7.509475,1468,-15,-29,-5,-2,0,0,-1,2
7.509498,1469,-2,-3,-1,-2,-4,0,-2,-2
7.519639,1470,-3,6,-1,-1,1,-1,-1,-2
7.519649,1471,1,-5,1,-3,-4,-1,0,-1
7.533637,1472,4,12,0,1,0,-2,-2,0
7.533652,1473,5,-2,-2,-3,-2,0,0,-1
7.533656,1474,-7,-11,-3,-2,0,-1,0,-2
7.533659,1475,0,3,-1,-1,-2,-1,0,-1
7.555629,1476,1,4,-1,-2,1,-2,-1,-3
7.555650,1477,0,-5,-2,-2,-3,0,-2,1
7.557522,1478,5,6,0,1,0,-2,-2,-1
7.557540,1479,-6,-7,-2,-3,-2,0,-1,-1
7.569349,1480,2,6,1,0,-1,-1,-2,-2
7.569376,1481,-4,-20,-1,-2,-2,-1,-2,-3
7.578661,1482,-1,-3,-2,-1,0,-2,-1,0
7.578675,1483,-1,10,-1,-2,-2,-1,-1,-1
7.593774,1484,3,3,0,-2,-2,-2,0,-1
7.593786,1485,1,6,4,4,1,2,2,3
7.593788,1486,3,1,1,0,1,-1,-2,1
7.593789,1487,-3,10,-1,-1,-1,0,-2,0
7.615792,1488,1,-12,-2,-2,-2,1,-1,-2
7.615819,1489,1,0,-3,-3,-3,-2,-2,-1
7.617527,1490,-3,8,-2,0,0,0,1,-1
7.617538,1491,1,-16,1,-2,-4,-3,-2,0
7.629351,1492,0,8,-1,0,-1,-1,0,0
7.629372,1493,-4,-6,-2,-1,-2,-3,-2,1
7.637498,1494,2,6,-1,-1,-3,0,-1,-2
7.637518,1495,1,-1,-1,-1,-1,-1,-1,-2
7.653052,1496,0,2,-1,-2,-3,-1,-1,-3
7.653079,1497,1,0,0,-2,-1,-1,0,-1
7.653084,1498,-1,-5,0,1,0,-1,-1,0
7.655284,1499,-1,-2,-2,0,-1,-1,-3,-3
7.675521,1500,-5,-9,0,1,0,-1,-1,0
7.675582,1501,-1,2,-1,-2,-3,-1,-1,-2
7.676549,1502,1,-7,0,2,0,-2,0,0
7.676564,1503,4,15,2,1,0,0,0,2
7.689979,1504,-5,-24,-3,-3,-2,-1,-1,-1
7.690004,1505,1,-6,-1,-2,-1,-1,-2,-3
7.697421,1506,-14,0,0,-2,-2,-1,-1,-2
7.697438,1507,-4,-4,-1,-2,0,-1,0,-3
7.712375,1508,2,13,-1,-2,1,-3,-1,-3
7.712393,1509,-2,2,0,-3,-2,-2,1,-1
7.713568,1510,1,-4,-3,2,2,-1,-1,-5
7.713580,1511,-5,3,1,-2,1,-2,0,-4
7.736160,1512,-3,-11,-1,-4,-1,-3,-3,-7
7.736193,1513,-8,9,-1,-2,0,-1,-1,-6
7.737137,1514,-3,-8,0,-2,0,-1,1,-5
7.737144,1515,-7,-7,0,-1,-2,-3,1,-5
7.758132,1516,-4,8,1,0,1,0,0,-5
7.758148,1517,-6,-5,-2,-2,2,-3,1,-5
7.759832,1518,-4,3,0,-4,0,-2,0,-5
7.759845,1519,-2,-7,-1,-2,0,-2,-1,-2
7.772354,1520,2,3,-1,-2,0,1,3,-1
7.772369,1521,2,0,-2,-1,-1,-1,-2,1
7.774019,1522,5,-1,-2,0,-2,1,-1,4
7.774033,1523,0,-8,-4,-1,0,1,-1,3
7.796072,1524,9,4,0,1,-3,0,-3,4
7.796094,1525,1,16,-3,0,0,0,-2,4
7.796457,1526,5,-29,-2,-2,-3,0,-3,3
7.796499,1527,2,5,-4,0,-3,-1,0,4
7.818516,1528,0,-8,-1,1,-2,-1,-1,3
7.818540,1529,3,1,-1,2,-3,0,0,2
7.819575,1530,0,6,1,-1,-3,-1,-2,3
7.819580,1531,1,-2,-2,0,-1,2,-2,3
7.831834,1532,0,6,-2,0,-2,0,-2,0
7.831862,1533,-1,-9,1,-1,-1,0,-2,0
7.842512,1534,1,4,-2,0,0,1,-1,0
7.842523,1535,1,-7,-1,-1,-3,-2,-1,-1
7.855618,1536,-3,1,-1,-1,1,0,-1,0
7.855645,1537,-2,-5,0,1,-1,-1,-1,2
7.857245,1538,0,1,-1,0,0,-2,-2,-1
7.857321,1539,-2,-2,-1,-1,-2,-1,-1,0
7.878328,1540,-1,-2,-1,-1,0,-2,-1,0
7.878350,1541,1,-3,-1,-1,-1,-2,-1,-1
7.880527,1542,-3,2,0,-2,-1,0,0,0
7.880542,1543,2,-2,1,-1,1,-1,-2,-1
7.891822,1544,-3,0,-2,-2,-4,-2,-2,0
7.891846,1545,0,-7,-2,-1,0,-1,0,-2
7.900932,1546,0,23,-1,0,0,-2,-1,-1
7.900943,1547,-2,-27,-2,-1,-2,-1,-3,-3
7.915522,1548,-4,-24,0,-1,-2,-1,0,-1
7.915543,1549,-1,4,1,-1,0,-1,-1,-2
7.917128,1550,0,-4,-1,-1,-2,-1,1,0
7.917200,1551,-2,12,1,-2,0,-2,0,0
7.945933,1552,-2,8,-2,-3,-1,0,-2,-2
7.945958,1553,0,-8,2,2,0,-1,-2,0
7.948493,1554,-3,13,-2,0,0,-2,-1,0
7.948525,1555,2,-8,-1,0,-2,-2,-1,-1
7.951821,1556,1,4,-1,-1,-1,-1,1,-1
7.951846,1557,-2,6,-2,-1,-2,1,-1,0
7.961414,1558,-3,-4,1,-2,0,0,-2,0
7.961436,1559,5,0,-1,-1,0,-1,-2,-3
7.975620,1560,-1,17,0,0,1,-1,-1,-3
7.975643,1561,-3,-8,-2,-1,-1,-1,-1,-1
7.977189,1562,-2,-7,0,-3,-2,-1,0,-1
7.977209,1563,-2,14,-2,1,-1,0,0,1
7.998331,1564,-1,-30,-1,1,-1,-2,-2,0
7.998371,1565,0,4,-1,1,0,-1,-2,-2
7.999591,1566,-1,-4,-1,-2,-1,-1,-3,-3
7.999624,1567,-2,8,0,-1,-3,1,-2,-1
8.011703,1568,-1,-9,0,-2,-2,0,-2,0
8.011729,1569,-1,0,-3,-2,0,-1,0,-1
8.026614,1570,0,-12,1,-1,-1,-3,0,0
8.026637,1571,-3,7,-1,0,-1,-2,-1,-3
8.035728,1572,-1,8,-2,0,0,-1,0,-1
8.035819,1573,-2,-9,-2,-1,-2,-1,-1,-1
8.037216,1574,1,0,1,1,-1,0,0,0
8.038362,1575,-1,22,0,-2,0,0,0,0
8.058034,1576,-3,-40,-3,-2,-1,-1,-3,-2
8.058049,1577,0,-4,0,-2,-1,-1,-1,-2
8.059533,1578,0,4,-1,-2,-1,0,-2,-3
8.059563,1579,0,-7,0,1,-1,-1,1,-2
8.071940,1580,1,33,1,-1,1,-1,-1,-1
8.071968,1581,-3,-12,-2,-1,-1,-2,-2,-2
8.081359,1582,-5,5,-3,-3,-1,-1,-2,-2
8.081369,1583,-4,-40,-3,0,-1,-1,-1,0
8.095657,1584,-5,11,-1,-2,1,0,-1,-2
8.095675,1585,-2,5,1,-1,-1,-1,1,-1
8.097076,1586,3,1,0,1,0,0,0,-2
8.097094,1587,-5,-3,-2,-3,-1,-2,-2,-3
8.118456,1588,-1,7,0,1,-3,-1,-1,-2
8.119959,1589,-1,0,0,-1,-1,0,-1,1
8.119969,1590,0,-5,-2,0,-2,-1,-1,0
8.119971,1591,3,3,0,-1,-1,-1,-1,0
8.131836,1592,0,27,1,0,-1,-2,-2,-1
8.131858,1593,-5,-36,-2,-1,-2,-2,-1,-2
8.140786,1594,1,1,-1,0,1,0,-2,-3
8.140803,1595,-2,2,0,-2,0,0,0,-1
8.155458,1596,1,6,-1,-1,-1,-2,0,-1
8.155470,1597,0,13,0,0,0,-1,-1,0
8.157363,1598,0,-1,-2,0,-2,0,0,-1
8.157384,1599,-2,-7,-1,-1,0,-1,0,-1
8.178243,1600,0,-7,2,0,-1,0,0,0
8.178322,1601,-2,29,-1,-1,-1,1,-1,0
8.179632,1602,-5,-32,-1,-1,-1,-1,-1,-1
8.179644,1603,-6,13,0,0,0,1,1,-2
8.191832,1604,1,-17,0,-2,0,0,0,0
8.191848,1605,5,15,0,-3,-1,-1,-1,0
8.202034,1606,-2,1,0,-2,-2,-2,-1,1
8.202054,1607,2,-3,-2,-1,-1,-1,-1,-1
8.215538,1608,-4,2,-1,0,-2,-1,-1,-1
8.215550,1609,1,-14,1,-1,-1,-1,-1,0
8.216935,1610,-3,27,1,-2,-1,0,1,0
8.216940,1611,-9,-37,-2,-3,-1,-1,-2,-1
8.238351,1612,1,-6,-2,1,-1,-1,1,-2
8.238380,1613,0,7,-2,0,-2,0,0,-1
8.240680,1614,-2,-8,-2,-1,-1,-2,-1,-2
8.240694,1615,4,18,0,-1,-2,1,-1,0
8.251946,1616,1,2,-1,-2,0,-2,-2,-1
8.251967,1617,-4,-15,-1,-1,-2,-1,-1,-1
8.261115,1618,0,10,-4,-1,-1,-1,-2,0
8.261128,1619,-2,-6,-1,-2,0,-2,0,-2
8.276279,1620,1,13,-2,-2,-2,0,-1,-2
8.276290,1621,-3,-10,-2,0,0,-1,-1,-2
8.277112,1622,1,-1,0,-1,0,0,1,0
8.277131,1623,-2,3,0,0,-2,-1,-1,0
8.307198,1624,-1,1,0,-1,-2,-1,-2,1
8.307217,1625,-2,8,0,-1,-1,-2,0,-2
8.307219,1626,0,-8,-1,-2,0,-1,-1,-1
8.307221,1627,2,3,1,-2,-1,0,-1,0
8.311803,1628,-2,-4,-1,0,-1,1,0,0
8.311826,1629,-1,1,-2,-1,-2,0,-1,-2
8.322601,1630,0,-9,0,-2,0,0,0,-3
8.322613,1631,1,5,0,-1,1,-1,-1,-1
8.336079,1632,-1,-8,-1,0,1,-1,1,-2
8.337869,1633,-1,0,-1,1,-1,-1,-1,0
8.337880,1634,-1,21,0,-1,-1,0,-1,1
8.337882,1635,0,-17,-1,0,-2,-1,-2,-1
8.358238,1636,-2,2,-1,0,-3,-1,-3,-1
8.358257,1637,-3,1,-1,-1,0,-2,-1,0
8.361085,1638,1,6,0,-1,-1,-3,0,-2
8.361102,1639,0,8,-1,-1,-2,0,0,-1
8.372123,1640,-1,-8,-2,-1,-1,-3,-2,-1
8.372150,1641,0,1,-2,-2,0,0,-1,-2
8.381829,1642,-4,4,-1,-3,-1,0,-2,1
8.381844,1643,0,-1,-1,-1,-2,-3,0,-1
8.395711,1644,-2,-5,0,0,-2,-1,1,-1
8.395734,1645,2,7,2,-3,-1,0,-1,0
8.397225,1646,-1,-8,-1,-1,0,-3,0,0
8.397243,1647,1,-1,0,-1,0,-1,-1,-1
8.418225,1648,-2,8,0,-2,1,-4,0,-1
8.418255,1649,-2,-5,-2,0,-1,-1,-1,0
8.419482,1650,-2,-14,0,1,-1,-2,0,-2
8.419490,1651,-1,0,-1,-2,-1,1,0,-1
8.440836,1652,1,-6,-1,-1,0,-1,-3,-2
8.440859,1653,-2,-1,-1,0,-2,0,-1,1
8.442607,1654,1,-10,0,0,0,0,-2,0
8.442626,1655,-2,5,-1,-1,-1,-2,0,-2
8.456201,1656,1,-5,0,-2,-3,0,-1,-1
8.456234,1657,-1,17,-1,-1,0,-1,-2,-1
8.458495,1658,-1,-24,0,-1,-1,-1,-2,0
8.458506,1659,-3,-2,0,0,-2,-1,-2,0
8.477998,1660,-3,-5,-1,-2,1,0,-1,-2
8.478015,1661,3,6,1,0,-1,-1,-2,-1
8.479695,1662,-1,5,-1,-2,-3,-1,1,0
8.479714,1663,-2,3,-1,0,0,-1,-3,-1
8.491893,1664,-1,-4,-1,0,0,-1,0,-2
8.491910,1665,0,1,-2,-2,0,1,-1,0
8.503061,1666,-6,-17,-3,-1,0,0,-1,-2
8.503073,1667,0,-4,0,-1,-1,-1,-1,0
8.515568,1668,3,7,-1,-1,-2,-1,-1,0
8.515590,1669,0,-6,1,-1,0,-2,-1,0
8.517173,1670,0,3,-2,0,-2,0,-2,-1
8.517190,1671,-3,5,-3,-2,-1,-1,-1,0
8.539000,1672,-3,-9,-2,-1,-1,-1,0,0
8.539028,1673,-2,-2,-2,-1,-2,-1,-2,-1
8.541781,1674,-1,4,1,0,-1,-2,-1,-1
8.541793,1675,4,-6,1,-1,0,-1,-1,-3
8.551573,1676,-1,35,0,-1,-3,-2,-2,0
8.551591,1677,-6,-51,-4,-2,0,-2,-2,-3
8.560924,1678,-1,10,-1,-1,-1,0,0,-2
8.560939,1679,0,-3,-1,-2,-2,0,-2,-1
8.582152,1680,0,6,0,1,-1,0,0,0
8.582173,1681,2,10,0,-1,-1,-1,0,-1
8.592329,1682,2,-2,-1,-3,-1,-2,-1,-2
8.592341,1683,-9,0,0,-1,-1,0,0,0
8.598293,1684,1,-12,-1,-1,-1,0,0,-2
8.599091,1685,-5,0,-1,0,-1,-2,-1,-1
8.599712,1686,1,-3,0,1,0,1,-1,-1
8.599723,1687,2,5,-1,-1,0,0,1,-2
8.611714,1688,-4,-7,1,-3,-1,-1,-1,-2
8.611735,1689,-1,6,-2,0,-1,-1,0,-1
8.621466,1690,2,-2,-1,-2,-2,-3,-2,-1
8.621476,1691,-1,0,-1,-1,0,-3,-1,-2
8.635249,1692,-3,-12,-3,0,-2,0,-3,-1
8.635270,1693,0,12,-1,-8,-4,0,0,-1
8.641738,1694,-3,8,5,3,0,0,1,0
8.641756,1695,-1,-1,3,4,4,2,1,0
8.658268,1696,3,-3,0,-2,0,-3,-2,-3
8.658289,1697,-2,3,-1,-1,0,-2,-2,-1
8.659508,1698,-3,-16,-5,-7,-3,-5,-1,-2
8.659529,1699,0,-5,-3,-1,-3,-2,-3,0
8.680602,1700,-1,0,0,1,-1,-1,-1,1
8.680711,1701,1,-6,-1,-1,-2,-1,-1,-2
8.682783,1702,0,23,-1,-1,-1,-2,-1,0
8.682789,1703,0,-23,-3,1,-3,-1,0,-1
8.695308,1704,-4,-2,0,-2,-1,1,-1,-2
8.695325,1705,1,-4,2,-1,-1,-2,-1,-1
8.701925,1706,1,11,0,0,0,2,-1,-1
8.701953,1707,-1,7,-1,-2,0,-1,-1,0
8.718358,1708,0,-3,-3,-3,0,-3,-2,-1
8.718382,1709,2,21,0,1,0,-1,0,0
8.719461,1710,-10,-33,-5,-2,1,-1,-2,-3
8.719474,1711,2,-6,-1,-3,-4,-3,-1,0
8.741255,1712,1,2,-5,-4,0,-2,0,-2
8.741290,1713,2,-4,13,5,-1,0,-1,-1
8.742909,1714,-5,15,-1,-1,0,-1,-1,-1
8.742921,1715,-3,6,0,-3,-3,-2,-2,-1
8.755005,1716,-1,-3,8,-1,2,1,0,0
8.755027,1717,-2,24,-4,6,1,-2,-1,-4
8.761774,1718,-4,-60,-6,-2,-3,-1,-1,2
8.761791,1719,-2,3,0,-3,-2,-1,-1,-3
8.778214,1720,3,15,-2,2,-1,-1,1,-1
8.778236,1721,6,-29,-4,-4,-1,-2,-2,0
8.779589,1722,-6,9,-4,-5,-3,-1,-2,0
8.779604,1723,-7,8,-1,1,-2,-1,-1,-1
8.800584,1724,6,-3,1,1,1,-2,0,4
8.800607,1725,1,0,0,-1,0,1,0,1
8.802385,1726,2,6,-3,1,0,0,0,-1
8.802395,1727,2,-4,-2,-3,-2,-1,-2,0
8.815254,1728,-5,0,-3,0,-2,-1,-1,-2
8.815279,1729,-5,-13,-1,0,1,-1,-1,-4
8.821768,1730,1,25,0,0,-1,-2,-1,-1
8.821784,1731,-1,-21,-2,-2,-2,-1,-1,-2
8.838116,1732,-4,-5,0,-2,-2,-2,-2,-2
8.838134,1733,-5,1,-4,-3,-1,-1,0,-1
8.839538,1734,3,1,2,0,0,0,-1,-1
8.839581,1735,1,8,0,-1,-1,-1,-1,0
8.860722,1736,-6,-5,-3,0,0,-1,-1,-1
8.860746,1737,-4,-5,-5,-3,-1,-2,-2,-2
8.862355,1738,0,39,0,-4,-3,-2,0,0
8.862371,1739,3,-35,1,1,3,0,-1,-1
8.874237,1740,-3,-2,-8,0,-1,1,0,1
8.874265,1741,-9,-22,-7,-5,-4,-2,-2,-3
8.883254,1742,6,20,21,8,2,-1,1,0
8.883272,1743,0,10,2,7,-1,0,-1,1
8.898205,1744,2,15,6,2,0,-1,0,0
8.898247,1745,-3,-10,-8,-2,-1,0,-2,-1
8.899526,1746,2,-7,-9,-6,-3,-2,-2,-2
8.899584,1747,-4,-2,-4,-5,-2,-1,-2,-2
8.920771,1748,-3,-18,-3,-2,0,-1,-1,-2
8.920789,1749,0,8,-1,0,0,-1,-1,2
8.921966,1750,-2,-15,-3,-1,-1,0,-1,-1
8.921971,1751,2,18,2,0,0,-1,-1,-1
8.943074,1752,-2,21,-1,-3,-2,-1,-3,1
8.943089,1753,-1,-23,0,0,-1,-1,-1,-1
8.944565,1754,4,0,3,2,-1,-1,-2,0
8.944583,1755,-3,20,-2,-2,1,0,0,0
8.958905,1756,-3,-27,-2,-3,-4,-3,-2,-3
8.958916,1757,0,17,2,-1,-1,-2,1,-2
8.959577,1758,0,-6,-3,1,-1,1,0,-2
8.959588,1759,0,1,-3,-1,-1,-1,-1,0
8.980649,1760,-1,-4,1,-1,-1,-1,1,-1
8.980668,1761,-1,2,4,2,-1,0,-1,0
8.982082,1762,-1,0,1,-1,0,-2,0,-1
8.982156,1763,-4,18,-4,-3,-1,0,-1,0
8.994191,1764,1,-40,0,-1,-1,-2,-2,-1
8.994218,1765,-2,-1,-3,-1,-1,1,0,1
9.004544,1766,3,5,-3,-1,-2,-1,1,-1
9.004554,1767,-9,-17,1,-1,-1,-1,-1,1
9.019149,1768,-1,14,2,2,1,0,-1,-1
9.019166,1769,3,10,-2,-2,-1,-1,-1,-1
9.019579,1770,0,-12,-6,-1,-1,-1,-2,-1
9.019619,1771,-2,15,0,-1,0,0,1,0
9.040707,1772,-3,-33,-4,-1,0,-1,0,0
9.040726,1773,3,11,1,-1,-1,-2,0,0
9.042151,1774,-5,-11,-1,0,0,1,-3,-2
9.042195,1775,5,11,-3,-2,-3,-1,-1,0
9.054758,1776,-2,1,-3,-2,-3,-2,-3,-1
9.054787,1777,0,10,2,-2,-1,0,0,0
9.063975,1778,-5,-26,-4,0,-1,-2,0,-1
9.063994,1779,-1,-9,1,0,-1,-1,-1,-2
9.080419,1780,-1,39,0,-1,-1,0,-1,1
9.080432,1781,3,-33,-3,-1,-1,-2,-1,0
9.080434,1782,-3,12,0,-1,-3,0,0,0
9.080436,1783,1,-11,1,-3,-1,-2,-1,-1
9.100859,1784,-1,24,0,-2,-2,-2,-1,-2
9.100878,1785,1,7,2,0,-1,0,-2,1
9.102824,1786,-1,22,-1,1,1,1,-2,-3
9.102831,1787,-2,-44,-3,-2,-2,-1,-1,-2
9.114426,1788,1,-4,0,1,-1,-2,1,-1
9.114457,1789,-4,3,-2,-1,-2,1,-1,-3
9.125044,1790,-10,-14,-2,-1,-1,-3,-2,-1
9.125057,1791,3,12,0,0,0,-1,-2,0
9.138092,1792,-3,3,0,-1,-1,1,-1,-2
9.138113,1793,0,-9,-1,-1,-1,-2,1,-2
9.144380,1794,2,-1,-1,-2,0,1,-1,0
9.144407,1795,-3,-16,-3,-1,-1,0,1,0
9.160563,1796,-7,11,-2,-2,0,-1,-1,-2
9.160583,1797,3,-15,1,0,-1,-2,-1,-1
9.162285,1798,7,7,0,-1,-2,1,-2,0
9.162304,1799,-1,-9,-1,-1,1,-1,-1,-1
9.174278,1800,2,41,2,1,0,0,-1,-1
9.174350,1801,-9,-16,-2,0,0,0,-1,-1
9.184391,1802,-2,-14,-4,-2,-2,-3,1,-1
9.184406,1803,1,10,0,-1,-3,-2,-1,-2
9.198270,1804,3,-3,-2,-2,-2,-2,-1,-2
9.198303,1805,2,22,0,-4,-1,-2,-1,-1
9.200401,1806,-1,-8,-4,-2,-2,-2,0,-2
9.200413,1807,4,9,0,3,1,0,-1,0
9.220928,1808,2,-15,3,0,1,1,0,-1
9.220952,1809,9,5,-2,1,-1,-1,0,-1
9.223211,1810,-14,11,0,-2,0,-1,0,1
9.223224,1811,-10,-37,-2,-4,-1,-1,-3,-4
9.234487,1812,2,-7,0,-2,-1,1,-2,0
9.234510,1813,-2,-5,-4,-1,-2,0,-2,0
9.244224,1814,2,-5,-3,-3,-1,1,-1,-2
9.244235,1815,2,20,2,1,-1,0,0,1
9.258135,1816,-5,-11,1,-1,0,0,-2,0
9.258161,1817,2,18,3,-1,0,-1,0,0
9.260058,1818,-1,-7,2,0,0,0,0,-1
9.260069,1819,3,4,-6,1,-1,-1,-2,1
9.280581,1820,-7,-17,-5,-5,-3,-1,-3,-3
9.280601,1821,2,11,1,1,-3,-1,-2,0
9.282081,1822,-3,-5,-1,0,-1,-1,-1,-1
9.282142,1823,5,7,2,-4,-2,-1,0,0
9.294241,1824,-6,-4,-4,3,-1,0,0,-1
9.294261,1825,-4,-2,3,3,0,0,-2,-1
9.304121,1826,5,29,3,1,-2,0,0,0
9.304131,1827,5,13,-4,-3,-2,-2,-2,-1
9.318348,1828,0,-25,-1,-3,-2,-1,-1,-1
9.319855,1829,-2,-6,-3,-4,0,-2,-1,-2
9.319860,1830,4,0,2,0,-2,-1,-1,-1
9.319862,1831,-5,16,1,-1,-1,0,1,0
9.340699,1832,2,-7,-1,7,0,-1,0,1
9.340720,1833,-4,-10,-2,-1,-1,0,-2,0
9.342173,1834,2,-11,-3,-3,-2,0,-3,-1
9.342188,1835,0,12,1,1,-2,0,-2,-1
9.354136,1836,1,2,-1,-4,-3,-1,-1,-1
9.354154,1837,-22,-2,-3,-1,-2,-2,1,-4
9.370674,1838,3,-3,-2,-4,-1,-2,-3,-2
9.370699,1839,-14,-7,-3,-2,-1,-1,-1,-3
9.378104,1840,12,15,1,2,-1,1,1,2
9.378121,1841,-9,-11,-2,-2,-1,0,-1,-1
9.379594,1842,0,-10,-5,-5,0,-3,-4,-7
9.379607,1843,-2,-30,-2,1,-2,-2,-1,-1
9.407335,1844,2,0,-1,-2,-1,-3,0,0
9.407352,1845,7,18,2,0,-1,-2,-1,1
9.417819,1846,-1,-6,-1,2,-1,-1,0,3
9.417829,1847,9,5,-1,0,0,-1,-1,0
9.417831,1848,-15,4,-2,-2,-1,-1,0,-2
9.417833,1849,4,-6,0,0,-1,0,-1,-2
9.425320,1850,-1,-1,0,2,0,1,-1,-1
9.425332,1851,-5,0,0,0,-2,-1,-2,-1
9.438236,1852,-1,-5,-1,-2,-1,-2,-1,-1
9.438258,1853,-3,17,-2,-3,-2,-1,-1,-1
9.440867,1854,1,-41,-2,-1,-1,-2,1,-1
9.440878,1855,-1,12,0,1,-2,-1,0,0
9.460656,1856,-4,-10,-1,-3,-1,0,-2,-2
9.460678,1857,7,-5,-2,-1,0,-2,-2,-2
9.462144,1858,-5,18,0,1,0,0,-1,1
9.462165,1859,0,10,2,-1,0,0,1,1
9.474910,1860,1,-14,-5,-1,0,-1,-2,-1
9.474922,1861,-5,-15,-3,-1,-1,-1,0,-2
9.484714,1862,-4,9,0,0,-2,-1,-2,-2
9.484725,1863,0,-4,-1,-1,-1,-2,-1,-2
9.497648,1864,3,13,0,-2,-1,0,2,0
9.497669,1865,1,4,-3,-1,0,-1,0,1
9.504651,1866,0,-6,-1,-2,-1,0,-2,-2
9.504687,1867,-2,8,-1,-2,-2,0,0,-2
9.520518,1868,2,-5,-1,-3,-2,-1,-3,-1
9.520529,1869,0,-9,-1,-1,-1,-2,-1,0
9.521962,1870,3,32,1,1,-2,-1,0,1
9.521974,1871,-11,-51,-5,-2,1,-2,-2,0
9.536226,1872,-1,3,-1,0,-1,0,-2,-2
9.536238,1873,-1,-3,-1,-2,-1,-2,0,0
9.544336,1874,0,9,0,-2,-1,-1,-1,0
9.544347,1875,2,13,-1,0,-1,-1,-2,-1
9.557728,1876,-2,-2,0,-1,-1,-2,-2,1
9.557744,1877,1,0,0,0,-1,1,-1,-1
9.564454,1878,1,-5,-2,-2,-3,-2,1,1
9.564481,1879,1,0,-3,-1,-1,-1,0,-1
9.580471,1880,-3,-5,1,-1,-1,0,-1,0
9.580490,1881,-1,5,-1,0,-1,0,-1,-2
9.581950,1882,-3,-8,-1,-1,-3,-3,-2,-1
9.581964,1883,-2,-2,0,-2,-1,-2,-1,-4
9.595892,1884,1,9,0,0,1,0,0,-1
9.595904,1885,-2,6,-2,0,0,-2,-1,-1
9.604600,1886,-4,-23,-1,0,0,-1,-1,0
9.604611,1887,0,10,-2,-1,-2,0,-1,2
9.617561,1888,0,-1,-3,-1,-1,-1,0,-1
9.617579,1889,1,13,0,-1,0,-1,-1,-1
9.624265,1890,-2,1,-1,0,0,-1,-2,-2
9.624297,1891,-2,-2,-1,-1,0,-1,-1,0
9.641921,1892,-2,4,-1,-2,-2,-2,-1,0
9.641933,1893,0,-11,-1,-1,0,-2,-1,-1
9.642092,1894,-1,11,-1,-1,-2,0,2,-1
9.642098,1895,2,-4,-4,-3,-2,0,0,0
9.663214,1896,1,-20,-1,1,-3,-2,-1,-2
9.663238,1897,-2,9,2,2,-1,-3,-3,-2
9.664678,1898,-2,-23,-3,0,-1,-1,-2,0
9.664684,1899,0,23,1,-3,-2,-1,0,-2
9.677542,1900,-1,5,-2,-2,-2,-1,1,1
9.677630,1901,0,-18,0,-2,-1,-2,-1,-2
9.684639,1902,4,21,-1,-2,0,0,0,1
9.684659,1903,-4,-8,-1,-1,0,-1,-2,-1
9.702071,1904,-1,-9,-1,-1,0,-2,-1,-2
9.702081,1905,2,-8,-1,-1,-2,0,-1,-1
9.702084,1906,-2,29,-3,-1,-1,-1,1,-1
9.702085,1907,2,-34,-3,1,-1,-2,-1,-3
9.723243,1908,-7,-14,-1,-1,-2,-1,0,-2
9.723262,1909,-3,10,-2,0,-1,0,-1,0
9.724796,1910,0,-3,1,-2,0,-1,0,-2
9.724817,1911,0,5,0,-1,-2,-1,-2,0
9.737549,1912,1,12,0,0,-1,-1,0,-2
9.737568,1913,-3,-6,-1,-1,0,-2,-1,-1
9.744407,1914,-4,-14,-1,-2,0,-1,-1,-1
9.744425,1915,-2,15,0,-1,0,-2,0,-1
9.762654,1916,-3,-29,-1,-2,-1,-2,-1,-1
9.762666,1917,3,3,-1,-1,-2,-1,-1,1
9.762668,1918,-1,-1,-1,-1,-1,-1,-1,-1
9.762669,1919,-1,-5,0,0,-1,-2,-1,-2
9.792303,1920,2,22,-1,0,0,-1,-1,0
9.792314,1921,-4,-4,-1,-1,-2,-2,2,-1
9.792316,1922,0,0,0,-1,-1,-2,-1,-1
9.792317,1923,0,-1,-1,-2,-1,0,-2,-1
9.796761,1924,-1,5,-1,-1,-2,0,-3,-1
9.796776,1925,0,-14,-2,-2,-1,1,-1,-1
9.807832,1926,0,-14,-1,1,-1,-1,-2,-1
9.807846,1927,-2,28,-2,-3,-2,-2,-1,-1
9.820536,1928,0,-7,0,0,1,-3,-1,-2
9.820558,1929,-1,8,0,-1,-2,-3,-1,0
9.823023,1930,0,-2,-1,-1,0,-1,-1,0
9.823036,1931,-2,-9,1,2,-1,0,-1,-2
9.843177,1932,-1,11,-1,0,-1,-2,-1,-1
9.843198,1933,-2,10,-1,-2,-1,-1,-2,0
9.845232,1934,-6,-22,-3,-1,0,-1,-1,-2
9.845244,1935,1,-7,-3,-2,-1,-1,0,-1
9.856752,1936,1,17,-1,-1,-1,-2,-3,-1
9.856842,1937,-2,-20,0,-1,0,-2,-1,-3
9.866320,1938,-2,5,1,-2,-3,-1,-1,0
9.866329,1939,-1,-3,-1,0,-2,0,-1,0
9.880679,1940,0,7,1,1,2,-1,-1,-1
9.880700,1941,-1,13,-3,-1,0,0,-1,1
9.882668,1942,-1,-16,-1,0,-1,-1,0,-3
9.882684,1943,-1,-1,1,-2,-1,-1,-1,0
9.903691,1944,3,-1,0,0,-2,-1,-1,0
9.903713,1945,-1,9,-2,-2,-1,1,-2,-1
9.906380,1946,-3,6,0,-2,-2,1,-1,0
9.906393,1947,0,-8,0,-1,-2,-1,-1,1
9.916919,1948,-2,-6,-1,-1,-1,-1,0,1
9.916998,1949,-1,-7,0,-1,-1,1,0,-2
9.926987,1950,-1,-5,-1,-2,-2,-2,0,-2
9.927000,1951,0,10,-1,0,0,-2,-2,-1
9.940787,1952,-2,-9,-3,-2,-2,1,-1,-2
9.940816,1953,0,-5,-2,-2,-1,-1,-2,1
9.946666,1954,1,3,-2,-1,-2,-1,-1,-1
9.946687,1955,-1,-2,0,0,-1,0,0,-2
9.970584,1956,-2,28,0,0,-1,-1,1,-1
9.970604,1957,-3,-38,-4,-1,-1,-2,0,-2
9.972527,1958,-1,6,-3,-2,-1,-2,-1,-1
9.972542,1959,-2,-3,-2,-2,-1,-1,-2,-1
9.977035,1960,2,0,-2,-2,0,-1,0,-1
9.977058,1961,0,7,1,0,-3,-1,1,-2
9.986699,1962,-2,3,-2,-1,-2,-1,-2,-1
9.986713,1963,-4,-6,-2,-2,0,0,-2,-2
10.000934,1964,-2,-9,-1,0,-4,0,1,-2
10.000962,1965,-2,9,-1,-1,-2,0,-1,-2
10.003279,1966,-3,-7,1,0,0,-2,-1,-1
10.003292,1967,0,-1,0,0,-1,-2,1,-1
10.023312,1968,0,-7,-3,0,0,0,0,-1
10.023349,1969,-2,0,0,0,-1,-1,-1,-1
10.026235,1970,1,5,-2,-1,-1,1,0,1
10.026247,1971,-1,-1,-2,-1,-1,-1,-1,-2
10.036677,1972,0,-8,1,-1,-1,-1,-2,-1
10.036695,1973,-1,14,-2,-2,1,-1,0,0
10.046519,1974,-3,-31,-3,-1,-1,1,-1,-1
10.046531,1975,-1,1,-2,0,-1,-1,-2,-1
10.060574,1976,-2,-1,-2,-2,-2,-2,-1,-2
10.060600,1977,0,-1,0,-2,-2,-2,-1,-2
10.062655,1978,1,14,0,-1,-2,0,-3,-1
10.062677,1979,-2,0,-1,-2,0,0,0,-1
10.082815,1980,-2,-7,-1,0,-1,-1,-1,-1
10.082835,1981,-2,3,1,-1,-1,-2,-3,-1
10.089661,1982,0,3,0,0,-1,0,0,-1
10.091953,1983,0,-4,-3,-1,-1,0,-1,1
10.096721,1984,-1,1,-2,-3,0,-1,-1,0
10.096744,1985,1,-4,-2,1,-1,-1,-2,-1
10.107674,1986,-2,1,0,0,-1,-1,0,0
10.107694,1987,0,-2,0,0,-2,-1,-1,-1
10.120817,1988,-3,-2,-1,-3,-2,-1,-1,-1
10.120838,1989,0,-1,-3,-6,1,1,0,0
10.122599,1990,-1,2,-2,4,0,-1,0,-1
10.122617,1991,-2,3,-1,-1,-1,-2,-2,0
10.143282,1992,0,-3,2,-2,-1,-1,-2,-2
10.143301,1993,0,0,5,-5,-3,-2,-1,0
10.144531,1994,-3,-2,-16,-3,-1,-2,-1,-2
10.144545,1995,0,0,-2,6,5,2,2,-1
10.157480,1996,-2,-3,5,3,0,-1,-1,-2
10.157492,1997,-3,-4,-1,0,-2,-1,-2,-2
10.165854,1998,0,1,2,-4,-3,-2,-2,-3
10.165864,1999,-1,-2,2,-2,-3,-2,-2,0
10.180627,2000,-1,-1,-4,-1,-1,-2,-1,0
10.180700,2001,-3,1,-1,0,-1,0,-2,-1
10.182032,2002,3,3,4,-2,-5,0,-1,2
10.182069,2003,-7,-4,-4,-2,-4,1,-3,-5
10.211059,2004,0,1,-1,1,3,1,-1,-1
10.212742,2005,-2,-1,-2,0,-8,-1,-1,0
10.212754,2006,2,1,-1,0,5,0,0,-1
10.212756,2007,1,0,1,-7,-1,-2,-2,0
10.217291,2008,-1,-1,-1,3,-2,-2,0,-1
10.219176,2009,-1,-2,-3,3,1,-1,1,1
10.226515,2010,-1,-4,2,2,-4,-2,-1,-1
10.226527,2011,2,1,-3,-5,-2,-3,-1,-1
10.248384,2012,-1,0,0,-1,-3,-1,-1,-1
10.248404,2013,1,0,0,1,5,1,1,1
10.249626,2014,-2,1,2,-1,19,1,-2,-1
10.249633,2015,2,1,-3,-3,-27,-4,0,0
10.263723,2016,0,-1,-4,-8,-8,-3,-3,0
10.263739,2017,-1,-2,1,3,-1,-1,-1,-4
10.264556,2018,0,2,-1,3,-3,-2,-1,0
10.264563,2019,0,-1,0,2,0,-1,0,1
10.276871,2020,1,-3,-5,-8,-11,-3,-1,-1
10.276893,2021,-5,-1,-6,6,31,-2,-3,-6
10.286139,2022,1,2,3,-7,-2,2,1,1
10.286150,2023,0,-3,1,2,13,0,-2,-1
10.300546,2024,2,-2,-4,-2,-1,0,-1,-1
10.300574,2025,-2,-4,-5,-6,-14,-4,-3,0
10.307090,2026,-3,3,6,2,-2,-2,-2,0
10.307255,2027,-2,-2,-6,-1,0,0,0,1
10.324388,2028,-2,2,0,-1,-7,1,1,-1
10.324400,2029,1,3,-7,-3,-5,0,0,0
10.329217,2030,-2,-7,5,0,-4,-1,-1,0
10.329234,2031,0,-8,5,0,1,1,1,1
10.336837,2032,-2,-2,-3,2,5,-2,0,-1
10.336858,2033,0,0,1,-7,-3,-2,-1,-1
10.346227,2034,-2,3,-5,-4,-3,-1,1,-1
10.346240,2035,4,7,1,6,4,-2,0,2
10.359848,2036,-6,-12,0,3,5,0,-5,-6
10.359870,2037,5,3,-6,1,-3,-3,-1,3
10.374590,2038,-1,-3,-5,-5,-9,0,-2,-1
10.374612,2039,-4,-1,1,-4,0,-1,-2,-1
10.385150,2040,2,3,4,5,5,2,1,4
10.385167,2041,-3,-4,1,-2,-7,-1,0,0
10.385172,2042,0,0,2,-1,0,-2,-2,0
10.385176,2043,-6,-3,-1,1,3,0,-1,-4
10.396683,2044,-2,5,-2,-4,0,-1,-1,-3
10.396706,2045,-1,-2,2,-1,-1,0,0,-2
10.407035,2046,-6,-9,-6,-2,-2,-3,-1,-5
10.407052,2047,-3,4,-1,-7,0,0,2,-3
10.421192,2048,0,1,4,3,0,-3,2,-2
10.421224,2049,-4,-2,0,2,0,0,0,-3
10.422908,2050,6,7,-2,-3,-2,-3,2,2
10.422921,2051,-3,-6,-3,0,-3,-4,-7,-11
10.443127,2052,2,-2,-6,-1,-1,-1,0,0
10.443147,2053,5,3,7,2,3,1,0,3
10.444748,2054,1,-1,-1,1,-3,-1,-1,2
10.444763,2055,0,-4,-7,-5,-3,0,1,4
10.456829,2056,1,-2,3,-5,-2,0,-4,-1
10.456858,2057,4,-7,-10,0,-5,-2,-2,5
10.467238,2058,3,1,0,0,-2,2,0,3
10.467249,2059,2,-2,1,1,2,1,-1,4
10.479946,2060,-2,-4,-4,-2,0,0,0,3
10.479962,2061,-6,-2,3,0,-2,-4,-2,-3
10.486651,2062,-8,-1,1,-3,0,-1,-1,-8
10.486671,2063,-7,0,-2,-6,-3,-4,0,-7
10.503297,2064,-5,4,3,-1,-1,-3,2,-7
10.504817,2065,-3,16,5,2,0,-1,0,-7
10.504826,2066,-5,-6,2,3,2,-1,-1,-3
10.504828,2067,-2,2,6,-1,-1,0,-1,-3
10.517265,2068,-5,-3,-8,-3,0,-1,-2,-5
10.517294,2069,0,5,0,-7,-4,-1,-1,-2
10.526967,2070,0,-15,-10,0,0,1,0,2
10.526978,2071,6,19,-1,-1,0,0,0,2
10.540012,2072,-4,-21,-4,1,-1,1,0,3
10.540032,2073,2,-2,1,0,-2,0,0,0
10.546682,2074,3,8,2,0,0,-1,-2,2
10.546700,2075,-2,-7,-3,-3,-1,-1,-2,-5
10.563246,2076,0,16,-2,-1,-1,-1,0,1
10.563266,2077,2,-4,1,1,1,0,-1,3
10.565161,2078,-2,-4,0,-3,-2,-2,-2,-4
10.565174,2079,3,2,0,4,0,1,1,3
10.585936,2080,-3,0,1,-3,-2,-1,-4,-4
10.585961,2081,-5,-9,-1,-1,0,1,1,-1
10.588458,2082,0,-5,-5,-2,-2,-2,-1,1
10.588467,2083,1,-1,1,4,0,1,-2,5
10.600211,2084,-4,-4,-5,-3,-2,-2,-4,-5
10.600231,2085,1,-8,-3,-4,-2,0,-1,1
10.606890,2086,2,23,3,2,1,1,0,0
10.606914,2087,-6,-22,-1,0,0,-1,-1,-1
10.623518,2088,2,-16,-2,0,0,1,-1,4
10.623547,2089,0,3,-1,-2,-2,-1,-2,-1
10.625702,2090,0,2,3,1,1,1,0,-1
10.625715,2091,-1,8,-1,-1,-3,-3,-3,1
10.645735,2092,0,4,3,0,-1,0,0,3
10.645752,2093,-3,-1,-3,0,0,-1,-2,-3
10.647259,2094,3,17,-1,-2,-3,-4,-2,1
10.647278,2095,-8,-27,-4,1,-1,0,-3,-3
10.659969,2096,3,4,0,0,-1,-3,-1,-1
10.659988,2097,0,1,1,1,1,0,-1,0
10.667151,2098,4,5,-12,-3,-3,0,-1,0
10.667171,2099,0,-28,-2,2,-1,0,1,-2
10.683369,2100,2,11,1,1,-2,2,1,2
10.683458,2101,-1,6,29,5,1,0,0,0
10.684516,2102,-6,-8,-5,-4,-2,-2,-2,-4
10.684533,2103,3,7,-5,-1,-1,-2,-1,-2
10.705587,2104,-4,-3,0,0,0,-1,-1,1
10.705618,2105,1,-17,0,-2,-2,-2,-2,-4
10.707341,2106,-1,-4,-2,-3,-1,0,-1,-2
10.707397,2107,1,14,-10,-4,-2,-2,-1,0
10.719310,2108,0,12,-1,0,1,-2,0,-1
10.719326,2109,-2,-18,-6,-1,-1,-1,-1,1
10.729129,2110,-11,-9,2,-2,-1,-2,-2,-3
10.729144,2111,1,7,1,-1,-2,-2,0,-1
10.743253,2112,1,4,4,0,-1,-2,-1,-1
10.743275,2113,1,22,-4,-2,-2,-1,0,-3
10.745196,2114,1,-27,-6,-1,0,-1,-1,-2
10.745211,2115,1,8,6,-2,-1,-1,-2,-1
10.765699,2116,-3,0,-1,-1,-2,-2,-1,1
10.765716,2117,0,2,-12,-2,-1,-1,-1,1
10.767064,2118,1,-2,5,1,0,-1,0,-1
10.767123,2119,-1,6,1,0,-3,-1,-1,0
10.779855,2120,-1,7,2,-1,-2,-1,-2,-3
10.779873,2121,-7,-36,-7,-2,-1,-1,-1,-2
10.786781,2122,1,7,3,1,0,0,0,-1
10.786798,2123,1,-4,2,-1,0,1,0,0
10.803067,2124,1,1,-3,-1,1,0,-2,-1
10.803090,2125,-4,3,-6,-2,-1,-1,-3,-4
10.804579,2126,-1,1,-2,-2,-2,-2,-2,-2
10.804584,2127,-4,5,-1,0,0,-1,-1,-6
10.825523,2128,-1,-9,-3,0,-2,1,0,1
10.825537,2129,2,4,-1,1,-2,-1,-1,1
10.827004,2130,-1,-1,1,-1,0,0,-1,0
10.827019,2131,-1,2,2,-1,-1,-2,0,-1
10.839316,2132,-2,7,-2,-1,0,-1,-1,-5
10.839334,2133,-7,-22,-2,-2,-1,0,-1,-1
10.848139,2134,-3,1,-1,-2,-1,-1,-1,-3
10.848150,2135,1,1,-1,0,1,-1,0,2
10.863081,2136,1,-1,-2,-2,-2,-2,-1,-2
10.863103,2137,1,4,-7,-1,-1,0,-2,1
10.864790,2138,-7,2,2,-2,-2,-1,-1,1
10.864803,2139,0,3,-1,-1,1,-2,0,2
10.885639,2140,0,-6,0,2,0,-1,0,1
10.885657,2141,6,7,2,3,0,0,2,6
10.887196,2142,-1,-12,-5,0,-2,-2,-2,-3
10.887202,2143,-1,-16,-2,-1,-1,-2,-1,1
10.899240,2144,4,9,4,-2,-2,0,0,3
10.899252,2145,6,5,-4,0,-1,-2,0,2
10.909404,2146,-1,5,0,1,0,0,-1,-1
10.909417,2147,-4,0,-4,-3,0,-1,-2,-4
10.924175,2148,-8,-12,-2,-4,-2,-3,0,-5
10.924222,2149,-7,0,3,-3,-1,-3,-1,-9
10.926079,2150,0,0,2,-2,-1,-1,0,-4
10.926090,2151,0,0,-1,-3,-1,-1,0,-1
10.945649,2152,-2,-5,0,-1,0,-1,-1,-4
10.945669,2153,-3,5,-2,-2,0,0,-1,-3
10.947110,2154,-3,-4,-2,-1,2,1,0,-4
10.947199,2155,-6,17,1,-3,0,-2,-1,-7
10.959163,2156,-8,-41,-4,-5,-1,-3,-1,-5
10.959176,2157,-6,4,-1,-2,-1,-2,2,-5
10.970134,2158,-1,-1,1,0,1,-1,0,-3
10.970145,2159,-2,2,-1,-2,-1,1,-1,-8
10.983079,2160,-1,6,-4,1,1,1,0,-3
10.983113,2161,1,-3,-6,-2,0,-1,0,-2
10.984846,2162,1,3,5,1,-1,1,0,5
10.984861,2163,1,1,2,0,-2,-2,-1,2
11.005576,2164,11,13,-3,-1,-1,-1,-1,6
11.005651,2165,0,-6,-7,-2,-2,-1,-5,4
11.007376,2166,-2,-29,0,0,-4,1,0,6
11.007396,2167,17,-4,-3,3,-2,0,-3,2
11.020189,2168,-6,0,1,1,0,0,0,2
11.020200,2169,1,12,-1,-2,0,-2,-2,-3
11.028418,2170,-5,8,-1,-1,0,-3,-1,-3
11.028431,2171,-5,-1,-1,-1,2,-1,-1,-1
11.043284,2172,5,-4,1,-3,0,-3,-1,-1
11.043301,2173,4,4,0,-2,-2,0,0,-2
11.044681,2174,-11,3,-1,-1,-1,-1,-1,-5
11.044699,2175,-1,-3,-1,0,-1,-1,0,-1
11.066991,2176,-7,1,-6,-4,-3,-2,-2,-3
11.067007,2177,11,-3,2,-1,-1,-1,-2,-5
11.067119,2178,-1,8,1,1,-1,1,-1,0
11.067184,2179,14,-5,-1,1,-1,0,-1,8
11.079401,2180,9,5,-4,1,-1,1,-2,9
11.079425,2181,-8,-14,-1,2,-3,-1,-3,10
11.090650,2182,1,5,-3,2,0,-2,-1,5
11.090662,2183,-18,-1,-2,-5,0,-4,-1,-15
11.103686,2184,-19,7,5,-3,0,-6,1,-21
11.103724,2185,-26,3,3,-6,3,-4,3,-20
11.105536,2186,-3,-5,0,-5,1,-5,4,-13
11.105545,2187,-4,3,-2,-3,1,-1,2,-6
11.125776,2188,4,-7,-1,0,2,2,-1,1
11.127419,2189,7,24,-2,0,-1,2,-2,6
11.127431,2190,5,-28,-5,-1,-2,3,-2,8
11.127433,2191,8,3,-1,1,-3,1,-1,9
11.139771,2192,10,-3,-2,2,-3,1,-1,8
11.139801,2193,2,5,-1,0,-2,1,-2,6
11.148793,2194,9,13,-2,1,-3,0,-3,4
11.148806,2195,1,-7,-1,0,-2,2,-2,7
11.163298,2196,0,5,-1,0,-2,-1,-4,3
11.163315,2197,-3,-6,-3,1,-3,0,-3,2
11.165147,2198,3,3,-1,1,-2,-2,-2,4
11.165165,2199,-4,-5,-3,2,-1,-1,-2,-2
11.185764,2200,1,0,0,0,-2,-1,-2,2
11.185848,2201,-3,7,1,1,-1,1,-1,2
11.187734,2202,10,-9,0,-1,-1,0,0,1
11.187750,2203,-5,11,-3,-1,-2,-2,-3,-5
11.199438,2204,11,-11,-2,-1,-1,-1,-1,1
11.201136,2205,-12,-4,0,-3,-2,-2,-2,-1
11.209955,2206,-5,8,1,0,0,1,-3,-4
11.209967,2207,-20,14,1,1,0,-1,0,3
11.223308,2208,8,-31,-7,-3,-3,0,-5,-8
11.223339,2209,12,5,3,-1,-1,-1,0,2
11.224973,2210,-2,6,-2,0,-1,-1,-2,0
11.224997,2211,0,-23,0,0,-2,-1,-2,1
11.245707,2212,-4,15,2,-1,0,-1,0,-1
11.245733,2213,-2,-25,-3,-2,-2,-1,-1,0
11.247122,2214,1,-6,-1,-3,-1,-2,-2,-3
11.247223,2215,5,30,0,-1,0,0,0,-1
11.259374,2216,-14,-22,-2,-2,-2,-1,-3,-5
11.259396,2217,1,-4,0,-1,0,1,0,-4
11.269926,2218,2,9,-2,-1,2,-3,0,-1
11.269938,2219,8,1,-1,-2,1,0,0,-1
11.283041,2220,3,7,2,0,-1,-2,2,1
11.283059,2221,-22,-14,-1,0,-1,-2,-3,-5
11.284583,2222,-6,2,-3,-2,-1,1,-1,-3
11.284597,2223,-12,-19,-2,-1,0,-1,-1,-1
11.306266,2224,18,25,11,1,0,0,1,1
11.306306,2225,10,2,0,-3,-1,-2,1,0
11.308620,2226,0,-3,0,-1,-1,-2,0,-2
11.308632,2227,9,10,-8,-3,-2,-3,-3,-1
11.319378,2228,-9,-15,-6,-2,0,0,0,1
11.321006,2229,8,47,8,1,0,1,0,0
11.328936,2230,3,-39,-7,-2,0,-2,-1,-1
11.328950,2231,-21,17,-2,-1,-2,-1,-1,-3
11.343193,2232,-4,-6,0,0,0,-3,0,-1
11.343208,2233,0,4,-3,-2,0,-1,-1,-1
11.344538,2234,-4,-1,2,0,-3,-1,-1,-2
11.344554,2235,7,-8,1,-1,1,0,0,1
11.365502,2236,-6,6,-2,-2,-3,0,-1,0
11.365524,2237,-3,-17,-3,0,0,-1,-2,-1
11.367082,2238,8,17,1,0,0,-1,1,-1
11.367102,2239,0,-19,-1,-2,-1,0,-1,-2
11.379266,2240,-6,21,-3,-3,-1,-1,-1,0
11.379290,2241,-2,-41,-4,-1,-2,-2,-2,-3
11.389552,2242,-4,-2,10,-1,-2,-1,-1,-3
11.389570,2243,7,4,-1,-2,-2,-1,-2,-2
11.402359,2244,-5,-2,-6,-2,-1,0,-1,-1
11.402370,2245,1,6,2,0,-2,-1,-1,0
11.409229,2246,-7,6,-5,-2,-3,0,-2,-3
11.409251,2247,1,-12,-1,-2,-1,-1,-2,-1
11.426716,2248,6,-3,0,-1,1,-1,0,0
11.426738,2249,1,7,-3,-2,-2,1,0,-2
11.431634,2250,-6,0,-2,-3,0,1,-1,-2
11.431650,2251,2,-3,3,-2,0,-3,1,-2
11.439670,2252,-6,4,-3,0,-1,-1,0,0
11.439713,2253,-2,-4,-1,-2,-1,-2,0,-1
11.448101,2254,4,1,0,-1,-1,0,0,0
11.448116,2255,1,13,-1,0,-2,0,1,-2
11.463656,2256,-6,-51,-7,-4,-3,-1,-3,-3
11.463671,2257,4,4,-1,-1,0,-1,-1,-3
11.469457,2258,8,13,-10,-2,2,-1,-1,0
11.471039,2259,-10,-5,8,2,0,-1,-1,0
11.485946,2260,-6,10,4,1,-1,-1,0,0
11.485974,2261,1,-11,-8,-1,-1,-1,-1,-1
11.488079,2262,3,19,-3,-4,-1,-1,0,0
11.488101,2263,0,-36,-6,-1,-1,-2,-2,-3
11.508739,2264,-22,2,-6,-1,-1,0,-1,-1
11.508752,2265,7,-6,4,0,0,-1,-2,-2
11.509514,2266,-11,7,4,-2,0,-1,-1,-2
11.509569,2267,0,-3,-4,-3,0,-1,0,-1
11.525153,2268,22,17,-9,-2,-1,0,0,1
11.525167,2269,-32,-10,15,5,1,-2,0,-1
11.529518,2270,7,-23,-4,-3,-1,-1,-1,-2
11.531396,2271,-8,20,-4,0,-3,-3,-1,-1
11.545557,2272,-5,-28,-13,-4,-2,-3,-1,-3
11.545575,2273,4,2,-8,-1,-1,1,1,0
11.547113,2274,3,10,-1,0,-2,-2,0,0
11.547124,2275,-14,5,-1,-2,-2,1,1,0
11.569824,2276,19,30,6,1,-1,1,-2,-1
11.569834,2277,-2,-16,-4,-2,0,-2,-1,-1
11.569837,2278,-6,-15,4,0,0,0,-1,-2
11.569838,2279,12,2,-9,-1,0,0,0,0
11.583396,2280,-5,31,4,-1,-1,-1,0,0
11.583408,2281,-8,-1,11,0,-1,0,-1,-2
11.589495,2282,6,-1,-9,0,-1,-2,-1,-1
11.590769,2283,-2,-3,5,1,0,-1,0,-1
11.605773,2284,4,1,2,0,-2,0,-2,-1
11.607345,2285,12,1,-6,-3,-1,-3,-1,-1
11.607360,2286,-5,24,-1,0,-1,0,-2,-1
11.607362,2287,0,-18,2,-1,-2,-1,-1,-1
11.628834,2288,-3,-8,5,1,0,-1,0,-2
11.628846,2289,7,11,-8,-4,-2,-1,-1,0
11.629618,2290,-11,-5,2,1,-1,-1,0,-2
11.629625,2291,1,-2,-4,-2,0,0,-3,-1
11.644616,2292,2,1,-15,-3,-1,-1,-1,0
11.644628,2293,-25,8,41,7,2,2,0,-1
11.649556,2294,24,9,-12,-3,-3,-2,-1,0
11.649577,2295,-24,-32,-11,-2,-2,0,0,-1
11.665538,2296,-13,-4,12,-3,-3,-3,-3,-7
11.665582,2297,23,4,-10,-2,-3,-1,-1,0
11.666963,2298,-16,12,5,1,0,0,-1,-3
11.666970,2299,27,-25,-8,-2,0,1,-1,1
11.689019,2300,-6,3,2,-1,0,0,0,1
11.689151,2301,-6,-3,-9,-3,-2,-2,-1,-1
11.691060,2302,7,2,3,-2,-1,-3,-2,0
11.691072,2303,-4,12,2,-2,-2,-2,-3,-1
11.701916,2304,-3,-9,1,0,0,-2,0,-2
11.701938,2305,6,25,1,0,0,0,-1,0
11.712074,2306,-10,-58,-10,0,-3,1,0,0
11.712085,2307,-1,5,5,0,0,-2,-2,-1
11.725805,2308,-2,-6,3,-8,-1,-1,-1,-1
11.725826,2309,10,0,-11,4,1,1,-1,1
11.728046,2310,-9,13,8,4,-1,-1,-2,0
11.728058,2311,-3,20,6,0,-1,0,0,-3
11.756333,2312,6,-35,-6,2,-1,0,0,-1
11.756357,2313,-6,6,-5,-4,-3,-2,0,0
11.758104,2314,-2,11,3,-3,0,-1,0,-1
11.758116,2315,3,-20,3,0,-1,1,1,0
11.761933,2316,-4,39,5,-1,-1,-2,-3,-3
11.761956,2317,-4,-65,-12,-5,-3,-3,-1,-1
11.771029,2318,-3,-2,1,0,0,1,-1,-2
11.771053,2319,2,23,2,-1,-2,-2,-1,-3
11.785950,2320,0,-1,-6,0,0,1,0,1
11.785980,2321,3,8,-7,-1,-2,-1,-3,-1
11.788400,2322,-3,3,-4,-3,-2,-2,0,2
11.788416,2323,-6,0,4,2,-1,-1,1,-3
11.808058,2324,4,-2,1,-5,0,0,1,0
11.808075,2325,-2,30,1,5,-1,-1,-3,-1
11.809630,2326,3,-29,-2,-4,-1,-3,-3,-1
11.809650,2327,-4,-17,-12,-1,-1,-1,-2,-1
11.822254,2328,-6,-8,7,6,0,0,-2,-1
11.822282,2329,4,7,-3,-5,-1,-2,0,-1
11.831881,2330,-1,12,-4,-3,-2,-1,-2,-3
11.831900,2331,-2,-6,-7,-2,-2,0,-2,2
11.845682,2332,-4,5,-14,-4,-1,-2,-4,-3
11.845705,2333,-1,-2,27,0,0,1,0,-2
11.847039,2334,-1,30,-29,-8,-1,-1,1,0
11.847063,2335,-11,-74,22,5,-1,-2,-3,-14
11.868237,2336,3,28,5,4,0,-1,-2,17
11.868256,2337,5,-2,-18,-4,-3,0,-1,-2
11.870168,2338,-2,-41,-8,-4,-2,-1,-2,1
11.870173,2339,5,53,25,1,-1,-2,0,-1
11.882090,2340,0,6,-9,3,0,-1,1,-5
11.882119,2341,-5,-29,10,-1,0,-2,-1,2
11.892627,2342,14,36,-16,-5,0,-2,-1,2
11.892639,2343,-3,-1,-15,-5,-2,-2,0,4
11.913257,2344,-6,-36,8,3,-2,-1,-3,-8
11.913276,2345,-1,21,-7,-1,0,1,-1,-2
11.914850,2346,-1,-15,8,1,-3,1,1,-3
11.914858,2347,0,30,9,1,1,1,-2,0
11.928388,2348,2,-1,8,-2,-1,-1,-2,-1
11.928405,2349,-3,8,-20,-4,-3,-2,-2,-3
11.929611,2350,-10,-34,4,-5,-1,-2,-2,-3
11.929618,2351,1,4,2,7,0,-2,0,3
11.941776,2352,1,-39,-17,-4,-2,0,1,0
11.941794,2353,2,15,-4,-4,-3,0,-1,-6
11.952850,2354,-21,0,24,7,2,-1,-2,-1
11.952862,2355,7,15,-20,-7,-2,-1,-1,0
11.965629,2356,3,-10,5,-4,-2,-2,-1,-4
11.965647,2357,-8,14,-6,5,2,-1,-1,-1
11.967462,2358,7,-1,-2,-2,-2,-1,-3,0
11.967474,2359,1,-11,6,0,-2,-1,-1,-2
11.988516,2360,-2,36,-5,-3,1,1,2,-1
11.988542,2361,-3,-51,4,2,-1,-1,0,0
11.990784,2362,3,27,2,3,0,0,-3,-2
11.990797,2363,-3,-14,-5,-3,-1,-2,-2,1
12.001958,2364,3,2,-6,-6,-2,-2,0,-1
12.001980,2365,-2,37,4,4,1,1,1,2
12.010604,2366,-2,-61,1,4,2,0,0,-2
12.010624,2367,-4,29,-11,-3,-1,-1,0,-1
12.033318,2368,2,-20,4,0,-2,-2,-3,-1
12.033347,2369,0,6,-16,-6,-2,-1,-2,-2
12.035522,2370,-6,27,20,-8,-1,-1,-1,0
12.035531,2371,3,-9,0,7,-1,0,-2,1
12.048320,2372,-5,-6,6,0,0,-1,-2,-1
12.048349,2373,7,12,-3,1,0,-1,-2,1
12.049815,2374,0,-15,4,1,0,0,1,-1
12.049821,2375,-1,-7,-6,-5,-1,-2,-1,-2
12.061774,2376,4,35,-28,-3,-1,-1,0,0
12.061799,2377,-2,-30,63,6,2,-1,-1,-3
12.070783,2378,-3,18,-3,1,-2,0,-1,-1
12.070794,2379,19,39,-3,-3,1,-1,-1,-1
12.085708,2380,-13,-75,-11,1,-1,0,0,-1
12.085719,2381,-19,7,-17,-5,-2,-1,-1,-1
12.086979,2382,5,5,-7,0,-1,-1,-2,-2
12.086992,2383,-3,-12,0,-3,-1,0,-1,-2
12.107116,2384,8,30,10,1,-1,0,-2,-2
12.107138,2385,2,-18,-8,-2,1,-1,0,3
12.115777,2386,-2,8,3,2,0,-1,0,0
12.115787,2387,0,-17,-7,1,-2,-1,-1,0
12.121558,2388,-4,21,6,0,0,-2,0,0
12.122698,2389,-3,-24,-5,-2,-3,-1,-1,-2
12.131144,2390,2,1,-7,1,0,-1,-1,-1
12.131156,2391,8,24,1,-4,-2,-1,-1,0
12.145718,2392,-12,1,7,2,0,-2,-2,-2
12.145729,2393,-9,-8,-3,-2,-4,-3,-2,0
12.146983,2394,2,17,-11,-2,-2,-2,0,1
12.146990,2395,-1,-15,-1,-8,-2,-1,0,1
12.168446,2396,-15,-1,10,6,-1,-1,-2,-1
12.168475,2397,7,6,-12,-1,-1,2,0,-1
12.170067,2398,-1,-3,-9,-1,-2,-2,-1,-1
12.170073,2399,-8,11,8,4,0,-1,0,-1
12.181688,2400,6,19,-5,-4,-2,0,-2,0
12.181772,2401,6,-37,-4,-4,-2,-1,-1,-2
12.190677,2402,-13,-3,4,1,-2,0,-1,0
12.190909,2403,-2,-9,-11,-2,-1,-1,-2,0
12.205459,2404,14,9,-1,-3,-1,-1,0,0
12.205474,2405,14,34,7,0,-1,-2,1,0
12.207289,2406,-53,-40,-5,-4,-2,-1,-1,-3
12.207313,2407,0,-4,2,-1,-1,0,0,0
12.228179,2408,-9,-23,-5,0,1,-1,0,-1
12.228204,2409,9,11,-5,-1,0,-1,-1,-1
12.229601,2410,24,12,5,0,-1,0,-1,0
12.229615,2411,-15,-27,-3,0,-1,-1,-2,-2
12.241697,2412,3,29,3,-2,-2,-2,0,0
12.241714,2413,-10,-23,1,0,-1,0,-2,0
12.250547,2414,7,9,-2,2,1,-1,-1,1
12.250558,2415,5,46,16,0,0,-1,-1,0
12.264870,2416,-2,-37,-2,-2,-1,-1,-2,-1
12.264883,2417,12,16,-6,-3,-2,-3,-2,-1
12.271708,2418,2,-25,-4,0,-1,-2,1,-1
12.271726,2419,-18,-6,-10,-3,-2,-2,-1,-5
12.288190,2420,6,2,6,-2,-3,0,0,-3
12.288210,2421,-22,9,-6,-1,2,-1,-2,0
12.290046,2422,35,17,0,-2,-2,0,1,0
12.290061,2423,4,2,10,3,-1,-1,0,1
12.301928,2424,-9,-5,4,0,0,-1,-1,0
12.303691,2425,7,-17,-3,-2,-2,-1,0,-1
12.311383,2426,4,8,-1,-2,0,0,-3,0
12.311401,2427,-9,-7,-5,-3,-2,-1,1,0
12.326283,2428,-3,14,-1,-1,-2,-3,-3,-1
12.326295,2429,4,6,-1,-1,-2,0,-1,1
12.326991,2430,2,-4,5,-2,-2,0,-1,1
12.326997,2431,-25,3,1,0,-1,0,-3,-1
12.348068,2432,8,-16,-6,0,1,-1,-1,-1
12.348093,2433,7,-8,-1,-1,-1,-1,-1,-3
12.349854,2434,-56,-32,-1,-2,-2,-1,-1,-4
12.349866,2435,47,12,-1,0,-1,1,0,3
12.361782,2436,-15,16,2,0,0,0,0,-3
12.361800,2437,-16,-15,-6,-5,-4,-2,-1,-1
12.371469,2438,5,13,7,4,2,0,1,0
12.371480,2439,5,-17,-8,-2,-2,0,0,1
12.393647,2440,-9,-5,-2,-2,-3,0,0,0
12.393669,2441,3,7,7,1,0,1,-2,-1
12.395124,2442,2,-5,-6,-2,-1,-2,-2,-2
12.395137,2443,-7,-12,-1,-1,0,-1,0,1
12.408123,2444,11,4,2,0,1,-1,-1,1
12.408141,2445,-3,14,-6,-3,-2,0,-1,-2
12.409673,2446,-1,-37,-2,-3,-2,-1,0,0
12.409857,2447,6,17,-4,1,0,-3,0,-2
12.422010,2448,-1,-44,-9,-1,-2,-1,-1,-1
12.423547,2449,-11,19,7,1,-1,-1,-2,-1
12.431003,2450,5,28,-7,-3,-2,-1,0,1
12.431014,2451,0,-28,-3,-3,-1,-2,-3,-2
12.445895,2452,2,22,2,-2,-2,0,-1,-1
12.445907,2453,3,-20,-4,0,-1,-1,0,-1
12.452053,2454,10,14,0,0,0,0,-1,1
12.452081,2455,-10,-1,-5,-3,-1,-1,-1,-2
12.468418,2456,-3,6,-2,0,-2,-2,-1,1
12.468444,2457,11,-5,6,0,0,-1,-2,-2
12.469770,2458,3,13,-13,-2,-2,-1,-1,-2
12.469776,2459,-1,6,5,1,1,1,0,0
12.491181,2460,5,-27,1,0,-1,-1,0,-1
12.493049,2461,-5,-10,-6,1,0,-1,0,-1
12.493063,2462,2,39,20,-1,-1,-2,0,1
12.493065,2463,-1,-46,-20,-1,-2,-3,0,-2
12.505260,2464,10,-4,-4,1,-1,0,-2,2
12.505308,2465,-2,14,19,2,-1,0,-1,-1
12.512380,2466,-1,6,-2,-1,-1,-2,-2,-1
12.512405,2467,-3,16,4,-1,-4,-1,-1,-1
12.528286,2468,-9,8,-3,-5,-3,-4,-2,-5
12.528307,2469,-6,-51,-13,-4,-2,-1,-1,-3
12.529753,2470,-2,-6,-7,1,1,1,0,1
12.529777,2471,2,13,7,-2,-1,-2,0,0
12.551117,2472,6,12,-3,-1,-1,0,0,4
12.553358,2473,-5,24,1,-3,-1,-2,-3,-2
12.553370,2474,-4,-13,0,-2,-3,-2,0,-2
12.553371,2475,-5,-12,-6,4,1,2,2,6
12.564819,2476,-4,-8,1,-1,-3,-4,-6,-15
12.564841,2477,-4,6,-5,1,-1,-2,-3,-3
12.572074,2478,3,-3,1,1,0,-1,-1,-5
12.572103,2479,0,-11,-1,-4,-2,-1,-2,-1
12.588441,2480,-5,9,3,3,3,-1,-2,3
12.588460,2481,0,2,-4,-3,-2,-1,0,-5
12.590458,2482,-2,-9,-4,-1,-1,-2,-2,-1
12.590476,2483,-1,15,6,-1,-2,-1,-1,-3
12.610752,2484,1,7,-4,-2,-1,1,4,5
12.610776,2485,-6,-22,-8,-7,-3,-3,-4,-3
12.612668,2486,-8,-5,-4,1,-1,-1,-5,-11
12.612690,2487,-2,2,2,-1,-2,-1,-2,-4
12.624348,2488,2,-1,2,-1,-1,1,0,3
12.624367,2489,-1,24,-4,1,0,-1,1,6
12.634194,2490,-1,-34,2,-1,-2,0,0,-1
12.634210,2491,-1,-13,-2,-1,-1,-3,-4,-4
12.648129,2492,-7,4,-3,-3,-1,-1,0,-5
12.648152,2493,4,15,2,1,-1,0,3,4
12.649522,2494,2,9,-2,-1,0,0,0,1
12.650530,2495,-5,-5,-3,-4,-1,-2,-2,-4
12.670841,2496,0,-1,2,0,-1,1,1,3
12.670862,2497,-3,9,-2,-2,0,-2,-1,-3
12.672782,2498,3,-21,-1,-2,0,-2,-1,4
12.672797,2499,1,4,-2,-3,-3,-1,-1,-3
12.685078,2500,2,3,2,1,-2,-1,0,-1
12.685157,2501,-1,-4,2,-1,-1,-1,-1,-1
12.691751,2502,2,6,-12,-2,-1,0,1,0
12.691767,2503,-6,5,-3,0,-1,1,2,3
12.708156,2504,-3,-13,0,-6,-2,-4,-6,-4
12.708173,2505,3,5,6,1,-1,2,0,1
12.709533,2506,0,-1,-4,-2,0,0,1,3
12.709548,2507,2,6,2,2,-1,-1,-1,-4
12.731544,2508,-1,6,-2,-1,-2,0,0,1
12.731568,2509,-3,-21,-3,-1,-2,-1,-1,-1
12.736693,2510,-3,11,3,-2,0,-1,-1,-1
12.736709,2511,-2,-4,1,1,2,-1,-1,0
12.744364,2512,5,12,1,-2,-2,-1,1,0
12.745855,2513,2,2,-1,-3,-1,0,-2,0
12.755493,2514,2,-6,3,0,0,0,0,1
12.755504,2515,-3,5,0,0,0,-1,-1,1
12.768066,2516,-3,-11,-1,1,0,0,-1,-4
12.768084,2517,3,-1,-5,-1,-1,-1,-1,0
12.769410,2518,-5,-1,0,-1,-3,1,-1,-2
12.769423,2519,-2,-1,-1,-2,-3,-1,-1,0
12.790616,2520,-6,1,-5,-2,-2,0,-1,-2
12.790637,2521,0,-42,-3,0,-1,0,-2,-1
12.792446,2522,4,10,3,-1,0,-1,-1,-1
12.792457,2523,-3,-1,0,-1,-2,-1,-2,-3
12.804302,2524,-2,-1,0,-2,-1,-3,0,2
12.804324,2525,1,18,0,0,0,-2,0,-1
12.813062,2526,-2,-1,0,-2,-2,-1,0,-1
12.813085,2527,1,-8,-1,0,-1,-1,-2,-1
12.828479,2528,0,-3,0,0,1,0,-1,-1
12.828494,2529,0,8,0,-1,-1,-2,0,-1
12.829571,2530,-2,-4,-2,-1,-2,-1,-2,0
12.829587,2531,-4,0,-2,-1,0,-2,-2,0
12.850575,2532,-2,-14,-2,-2,-1,-1,-2,-2
12.850598,2533,-1,-1,-2,-1,0,-1,-2,-3
12.852183,2534,-4,8,0,-1,-1,-2,1,-1
12.852203,2535,2,4,0,-1,-3,0,-1,0
12.864303,2536,11,0,1,1,-1,0,-1,1
12.864328,2537,-22,-2,-5,-1,0,1,1,-1
12.873801,2538,4,-6,-1,-1,-1,0,0,-1
12.873822,2539,0,-5,-1,-1,0,-1,-1,0
12.888407,2540,-2,16,0,0,0,1,-1,-1
12.888421,2541,4,-31,-1,-1,-3,-1,0,1
12.888423,2542,-4,2,-1,-1,-3,-1,0,-1
12.888424,2543,-2,-4,-2,0,-2,-2,-1,-2
12.909789,2544,-1,3,-2,-1,-1,-2,-2,-1
12.911151,2545,0,12,-2,-1,0,2,-1,0
12.911168,2546,-1,-4,2,0,-1,-3,-3,-2
12.911172,2547,4,-2,-2,0,-1,-1,1,-1
12.933760,2548,-4,9,-1,0,0,-2,-2,-1
12.933775,2549,-2,-15,0,-1,0,-2,-2,-1
12.933780,2550,4,-7,-3,-3,-2,-3,-1,-1
12.933783,2551,-3,4,0,0,-1,0,-1,-2
12.948419,2552,-7,-5,0,0,-1,0,0,0
12.948434,2553,5,17,1,0,-1,0,-2,-1
12.948436,2554,2,4,1,2,-1,0,-1,1
12.948439,2555,-1,-7,-1,-2,1,0,0,-1
12.969920,2556,0,-3,-1,0,-2,-1,0,0
12.969939,2557,3,6,-1,0,1,-1,-1,1
12.971474,2558,-4,-5,-1,-3,-2,0,0,-3
12.971480,2559,7,21,0,2,0,-2,-1,-1
12.994047,2560,-8,-28,-2,-1,-1,-1,-3,0
12.994059,2561,-2,-9,-3,-1,-2,-1,-3,-3
12.994061,2562,-1,5,2,0,1,-2,-1,-2
12.994063,2563,3,-3,-2,0,-1,0,1,-1
13.007558,2564,-10,1,-2,-3,-2,-2,0,-2
13.007579,2565,-2,5,-1,-1,-1,-1,-1,0
13.009286,2566,-4,-2,-1,-2,-1,0,-1,0
13.009299,2567,2,3,0,-3,-1,-2,-1,0
13.029931,2568,3,-3,-1,-1,-1,0,-2,0
13.029954,2569,1,1,-3,0,-1,-1,-1,-1
13.030565,2570,-4,12,0,0,-2,-1,-2,-1
13.030579,2571,-4,-42,-2,0,-1,-2,-1,0
13.052578,2572,0,2,0,-1,-1,-1,-1,-1
13.052599,2573,-5,2,2,-1,0,0,-2,-1
13.054467,2574,7,6,0,2,1,0,-1,-1
13.054478,2575,1,14,-1,-1,-2,0,-1,-1
13.067710,2576,-6,-14,-1,-1,-2,-2,-2,-1
13.067738,2577,-3,14,-3,-2,-1,-1,1,-3
13.069788,2578,-3,-10,-1,-1,-2,-1,0,-3
13.069799,2579,4,10,-1,-3,-1,1,0,0
13.090248,2580,5,6,0,-2,-1,-2,1,0
13.090281,2581,5,16,-2,0,-1,0,0,1
13.090663,2582,-16,-8,-2,-2,-1,-2,-3,-2
13.090678,2583,-8,-3,-3,-2,-3,-2,-2,-1
13.112693,2584,1,1,-3,-1,0,0,-1,-2
13.114517,2585,2,0,0,0,0,-1,0,0
13.114533,2586,5,-11,-3,-1,-3,0,-1,-2
13.114535,2587,-6,-13,0,1,1,-1,-1,-1
13.127666,2588,-3,25,1,0,-1,-1,-1,1
13.129446,2589,-3,-38,-4,-3,-2,-1,-2,-1
13.129458,2590,2,-5,-1,-2,0,-1,0,-1
13.129459,2591,-5,8,-1,-1,-1,0,-2,-1
13.150054,2592,2,1,0,-3,-2,0,-1,-2
13.150075,2593,5,10,0,-1,-1,-1,1,0
13.150645,2594,-14,2,-2,1,0,-1,-1,-2
13.150663,2595,3,-11,1,-2,0,-2,0,-2
13.173230,2596,5,10,-1,0,-2,-1,-1,-1
13.173269,2597,-19,-41,-1,-1,-1,-2,-2,-3
13.173275,2598,2,7,-2,-3,-2,-2,-1,-1
13.175957,2599,-2,3,-3,0,0,-1,-2,-1
13.187219,2600,3,-5,-2,0,-3,-2,-2,-1
13.187297,2601,4,15,1,-1,-1,0,-1,0
13.188272,2602,4,4,-2,-3,0,-2,0,0
13.188277,2603,2,-7,-1,-2,-2,-1,-2,-1
13.209995,2604,1,-5,-1,-1,1,-1,0,-2
13.210018,2605,-2,17,1,0,-1,0,0,-1
13.210716,2606,0,-34,-1,-2,-1,-2,-1,-2
13.210771,2607,2,10,-1,0,-2,-1,-2,-1
13.232527,2608,-3,-9,-2,-2,-1,-2,-1,-2
13.232549,2609,1,5,0,0,-1,-3,-1,-2
13.234110,2610,3,17,1,-1,0,0,-1,2
13.234121,2611,-3,-2,-2,-2,-4,-1,0,1
13.247409,2612,-3,-9,-1,-1,-1,1,-1,-1
13.247444,2613,-1,-1,-1,-1,-2,-1,-2,0
13.249707,2614,6,10,-1,1,0,-1,-2,0
13.249718,2615,-2,-8,0,-1,-1,-3,0,-1
13.269964,2616,-3,-2,-1,1,0,-3,-1,-4
13.269982,2617,5,3,-3,-1,-1,-1,0,1
13.270593,2618,-6,16,-1,-2,-2,0,-1,-1
13.270655,2619,-2,-4,0,-3,-1,-1,0,-2
13.292354,2620,1,-1,-1,0,0,-1,-1,-2
13.292376,2621,0,-2,0,-1,-1,-1,-1,0
13.300218,2622,1,2,-2,0,-1,1,-2,0
13.300250,2623,-3,2,-1,0,-1,1,-1,-2
13.307486,2624,0,-3,-1,0,0,-1,-2,-1
13.307519,2625,2,5,-2,-2,-2,-1,-1,-2
13.309468,2626,-2,-6,0,-2,-1,-1,1,1
13.309482,2627,0,2,0,-1,-2,-1,-1,1
13.329883,2628,-3,-6,0,-1,-1,0,1,1
13.329914,2629,2,2,-1,0,-1,0,-3,-2
13.330503,2630,-1,-3,0,-1,0,0,0,-1
13.330516,2631,-4,-10,-2,-1,1,-1,-1,-4
13.352261,2632,-2,11,-2,0,-1,0,-3,-3
13.352283,2633,-3,-31,-3,-2,-2,-3,0,-1
13.353720,2634,0,-2,-1,-1,-1,-3,-1,-2
13.353736,2635,1,7,-2,-2,0,-2,-2,-2
13.367725,2636,-2,-5,-1,-2,-2,0,-1,0
13.367754,2637,0,15,0,-3,0,-1,-2,-1
13.369716,2638,4,-6,-1,0,-1,-1,0,-1
13.369722,2639,-1,-5,-1,-2,-1,0,-1,-2
13.389964,2640,-3,-3,-5,-6,-3,-2,-2,0
13.389989,2641,-3,0,-2,-1,-3,0,0,-1
13.390625,2642,1,-4,-3,2,1,-1,-1,2
13.390643,2643,1,7,5,1,1,0,-1,-1
13.412641,2644,-2,-7,-1,0,1,1,0,-3
13.412658,2645,1,5,0,-2,-2,0,-1,-1
13.413735,2646,0,-6,-3,-2,-3,-2,-1,-1
13.413745,2647,0,22,-1,-1,-2,-1,-2,0
13.427550,2648,-4,-47,-5,-2,-1,-3,-2,-1
13.427569,2649,-2,2,0,-4,-1,-2,-1,-2
13.429909,2650,-1,6,1,-1,-2,-1,-1,-3
13.429918,2651,3,1,0,3,0,0,0,0
13.449819,2652,1,11,1,1,0,0,-1,0
13.449837,2653,-3,4,-3,1,-1,-2,-1,1
13.450655,2654,-1,-7,-1,-1,-1,1,-2,-3
13.450766,2655,-2,3,-2,-3,-2,-2,-2,-1
13.472990,2656,-5,6,1,-3,-1,-2,0,0
13.473021,2657,-2,-14,1,3,0,-1,-1,-2
13.474800,2658,-1,9,-1,-3,-1,-2,0,-1
13.474812,2659,1,-10,-6,-2,-3,-3,0,2
13.487547,2660,-6,13,-11,-9,-3,-1,-2,-3
13.487569,2661,3,8,7,7,1,0,1,4
13.489150,2662,1,-9,3,7,1,0,-1,0
13.489168,2663,1,38,0,2,2,0,0,1
13.509941,2664,-4,-52,-4,-3,-3,-2,-4,-3
13.509956,2665,0,5,-4,-5,-2,-2,-1,-1
13.510509,2666,-4,-6,1,0,-1,0,0,-2
13.510523,2667,1,2,0,-2,0,-1,2,0
13.532441,2668,7,22,2,-1,0,1,1,4
13.532467,2669,-2,-6,-2,-5,-2,-3,0,-2
13.533680,2670,1,5,-1,1,-2,-1,-1,-1
13.533696,2671,-3,-14,-5,-5,-2,1,-2,-1
13.547461,2672,-2,22,0,0,-2,-2,-1,-3
13.547496,2673,-1,-49,0,3,3,0,-2,-2
13.549300,2674,-4,3,-7,-7,-4,-3,-3,-1
13.549306,2675,-3,-5,1,-6,-8,-2,1,-1
13.569772,2676,7,14,18,11,4,1,1,4
13.569820,2677,-1,28,4,3,2,0,-3,-3
13.570546,2678,-3,-6,-10,-4,-2,-1,0,2
13.570623,2679,-5,-21,1,2,1,-1,-2,-3
13.592475,2680,2,8,-3,0,-2,-2,-1,1
13.592492,2681,-1,6,1,-1,-2,-1,-1,0
13.594161,2682,-5,3,1,-1,-1,-2,1,-1
13.594173,2683,0,-21,-3,-2,-3,-1,0,-1
13.607433,2684,1,-6,-3,-2,-2,0,-1,0
13.607450,2685,-3,7,-1,-3,-1,-1,-1,-1
13.608889,2686,1,-5,-1,-3,-1,0,-3,-2
13.608900,2687,-1,12,-1,-2,-1,-1,-1,0
13.631562,2688,0,1,1,0,-1,-1,0,-1
13.631574,2689,5,-4,-2,-1,-1,2,-1,6
13.631576,2690,-2,10,6,2,-1,-2,-2,-2
13.631578,2691,-2,-2,-1,3,3,-2,-1,-2
13.652377,2692,-3,-16,-7,-3,-4,-2,-2,1
13.652396,2693,-2,7,-2,-5,-5,-5,-2,-1
13.653454,2694,3,14,3,0,2,0,0,0
13.653470,2695,-4,-27,7,3,1,0,0,0
13.667961,2696,-1,-1,-3,-2,-2,-2,0,-4
13.667990,2697,-2,4,-7,-2,-2,-1,0,-3
13.669825,2698,-1,-7,-8,-3,-3,0,-1,0
13.669832,2699,0,11,-2,-2,-1,-1,-1,-2
13.698712,2700,-2,3,1,-1,-2,-1,-1,-1
13.698795,2701,0,19,-3,0,-1,-1,-1,-3
13.700564,2702,-1,-45,4,-2,-1,-2,-1,-3
13.700571,2703,0,8,-4,0,1,-2,-1,-1
13.712446,2704,-3,-2,-2,3,2,1,0,-1
13.712479,2705,1,-2,-7,-2,-1,-1,0,0
13.714440,2706,-3,5,-3,-3,0,0,0,-3
13.714447,2707,-2,-4,-6,-4,-2,-1,-1,0
13.727584,2708,5,-2,-1,-3,-2,-1,-1,1
13.727613,2709,-4,-14,10,6,3,1,-1,-1
13.729442,2710,-1,18,1,1,-1,-1,-1,-1
13.729456,2711,-1,-28,-3,-3,-3,0,-1,0
13.751463,2712,0,10,-3,-2,-2,-2,-1,-1
13.751479,2713,2,5,-2,-3,-2,-2,0,3
13.751483,2714,-1,-1,-1,0,-2,-2,-2,1
13.751487,2715,-1,14,2,1,1,0,0,1
13.772494,2716,1,0,-2,-1,-2,2,-1,-3
13.774107,2717,-2,-4,2,-1,-2,-2,1,0
13.774120,2718,2,-4,-1,-2,-2,-3,-3,1
13.774123,2719,-6,-9,-8,-3,-1,1,0,-3
13.787978,2720,-2,2,5,1,0,0,-1,0
13.788002,2721,-4,11,-4,-1,-2,-1,-1,-4
13.789786,2722,-4,-20,-1,-2,-2,0,0,-3
13.789800,2723,3,-7,1,0,-1,-2,-1,-1
13.809855,2724,-9,-7,1,-1,-1,-2,-1,-11
13.809878,2725,2,13,0,-1,-2,-1,-1,-2
13.812122,2726,0,10,0,0,0,1,1,0
13.812135,2727,-1,1,4,-1,-1,-2,-1,-5
13.832621,2728,-2,6,2,2,2,1,0,0
13.832643,2729,-3,-12,-2,-3,0,-1,0,-3
13.832941,2730,-1,0,-1,0,2,-2,0,-1
13.832953,2731,0,1,-2,-2,-3,0,0,-2
13.856279,2732,0,20,-7,-2,-1,-1,-1,3
13.856318,2733,-5,-38,-3,-2,-3,-1,-1,-1
13.856322,2734,2,2,-1,-3,-1,-1,-1,14
13.858568,2735,4,18,3,1,-1,0,0,2
13.869897,2736,-4,-10,-4,-2,-2,-2,-3,-9
13.869919,2737,-3,0,-2,-2,0,0,-3,-10
13.871333,2738,-2,1,-3,-1,1,0,1,-6
13.871338,2739,2,5,0,-1,-2,-1,-1,0
13.892451,2740,0,-7,0,-2,-1,-1,0,4
13.892474,2741,1,1,1,0,0,-1,-1,1
13.893096,2742,0,4,-1,0,-1,-2,-2,-3
13.893135,2743,-5,4,-3,-2,-1,-1,-2,1
13.907629,2744,-1,-18,-2,-3,-1,-1,-1,-1
13.907658,2745,2,8,0,-1,-2,-1,-2,4
13.909585,2746,-6,-1,-1,0,-1,0,-1,-1
13.909597,2747,2,8,4,0,1,1,-1,-1
13.929832,2748,-3,-1,-3,-2,-1,-2,-1,-6
13.929855,2749,-2,-3,-3,-1,-1,-1,-2,1
13.931853,2750,0,5,-1,-1,-2,0,-1,-1
13.931859,2751,-2,-8,-2,-1,-2,-3,-2,-2
13.953039,2752,0,-5,1,0,0,1,-2,-2
13.953068,2753,1,3,-2,1,-1,0,1,2
13.953477,2754,-1,14,-1,-1,-1,-1,1,0
13.953588,2755,-2,-37,-2,-2,-1,1,0,0
13.968333,2756,3,6,0,-1,-1,-1,-1,5
13.968362,2757,0,3,-1,-1,-2,-1,-1,0
13.970161,2758,1,4,-1,-1,-2,-1,-3,0
13.970170,2759,0,8,-1,1,0,-1,1,1
13.990474,2760,1,1,-1,0,-2,0,0,1
13.990517,2761,-4,-3,-1,-2,-1,0,-2,-2
13.992579,2762,-1,-7,0,-1,0,-4,-1,-1
13.992595,2763,-1,3,-2,-2,-2,2,0,-2
14.012413,2764,-4,2,2,-1,-3,-1,0,-3
14.012437,2765,-2,-2,-1,-1,-2,-8,-3,-4
14.013098,2766,-3,4,-1,0,0,2,-1,-4
14.013117,2767,-3,-23,-4,-2,-1,-4,-2,-5
14.026720,2768,0,6,0,-1,2,1,-2,0
14.027909,2769,0,5,-1,-3,-1,0,1,-1
14.034913,2770,-2,2,-4,-2,-2,-1,-2,-3
14.034934,2771,-1,9,3,-1,0,-1,0,0
14.049941,2772,1,0,-3,-1,-1,-1,1,-1
14.049964,2773,-1,2,-4,0,0,-1,-2,-2
14.051678,2774,-5,-8,7,1,1,-1,0,-1
14.051693,2775,-3,-14,-4,-1,1,0,1,1
14.072307,2776,-2,-2,3,-2,-2,-2,-2,-3
14.072327,2777,0,4,1,-1,0,-1,0,-2
14.073146,2778,0,6,-5,-1,-1,1,1,-1
14.073164,2779,2,3,-4,0,-1,-3,-1,-1
14.086775,2780,2,1,1,-2,-1,-2,0,1
14.089090,2781,-6,19,-2,-2,1,1,-1,-2
14.095153,2782,-3,-50,-3,-2,-2,-4,-2,-2
14.096976,2783,-3,10,3,0,-3,-3,-3,-2
14.109972,2784,-2,-4,-3,-2,-1,-1,0,0
14.109997,2785,0,2,1,0,1,0,0,-2
14.111024,2786,-7,11,1,-1,0,-1,0,-4
14.111035,2787,-9,6,-3,-1,-1,-2,-1,-2
14.132339,2788,2,-31,-33,-4,-2,-2,-4,-1
14.132358,2789,1,0,69,11,4,2,1,0
14.133058,2790,6,11,-2,-3,-2,-1,-1,2
14.133120,2791,2,1,2,0,-2,-1,-1,1
14.147210,2792,-7,17,-6,-4,-3,-2,-2,4
14.147223,2793,-1,-12,-24,-4,-2,-1,-2,2
14.155026,2794,2,-9,-1,2,-2,0,0,1
14.155048,2795,4,26,3,-3,-3,-2,-2,-1
14.170209,2796,-2,-40,4,0,0,0,0,3
14.170237,2797,-1,-9,-12,-2,-2,-1,-2,-1
14.172117,2798,2,9,6,-1,0,-1,-1,1
14.172129,2799,2,7,-17,-2,0,0,-1,-3
14.192378,2800,-3,6,8,2,1,0,0,-2
14.192462,2801,0,-11,-7,-1,-2,0,0,-2
14.193152,2802,-7,6,-5,-2,-1,0,-1,-3
14.193220,2803,-1,-6,2,-1,-1,0,-1,0
14.206744,2804,5,4,6,2,-1,0,-1,-1
14.206773,2805,-3,17,-5,-4,-1,0,1,1
14.215010,2806,-3,-21,-4,-1,-3,-2,0,0
14.215034,2807,-3,-14,0,-1,1,0,-2,1
14.229829,2808,5,8,5,2,0,-2,-2,1
14.229851,2809,-2,9,-10,-3,-3,0,-1,2
14.232397,2810,3,2,0,-1,-2,0,-1,4
14.232408,2811,-1,-6,1,0,-1,0,-2,0
14.252412,2812,2,9,1,0,0,0,0,2
14.252427,2813,2,-10,-3,0,-1,0,-2,0
14.253610,2814,0,-2,0,-1,0,-2,-1,-2
14.253615,2815,0,-2,1,-1,0,2,0,1
14.268105,2816,0,4,0,-1,-1,-2,-4,1
14.268122,2817,-2,-12,-3,-1,-2,-3,4,-2
14.274992,2818,-2,19,0,-1,1,2,-1,1
14.275010,2819,-2,-21,-3,-2,-2,-3,-1,-3
14.289927,2820,-2,-7,1,-2,0,1,-2,-2
14.289945,2821,3,-1,-3,0,0,-3,-4,1
14.291210,2822,-2,8,-4,-2,-1,0,-4,-1
14.291222,2823,0,6,-1,-1,-1,-1,1,1
14.313069,2824,-3,5,-2,-1,0,-2,-2,-1
14.313082,2825,-2,-12,-1,-1,-2,-1,1,-2
14.313084,2826,2,11,0,0,-1,-1,-1,-1
14.313085,2827,1,5,1,1,-2,0,-1,1
14.335795,2828,-2,-10,0,-2,0,-1,0,-2
14.337843,2829,1,11,-3,-2,0,0,-2,0
14.337851,2830,1,-9,-1,-2,0,0,0,-1
14.337853,2831,-4,0,0,1,-1,-1,-1,-4
14.350124,2832,-1,2,1,0,-1,-1,2,-1
14.350147,2833,-3,-3,-2,-3,-1,-2,-1,-1
14.351544,2834,1,-13,-1,-1,0,-2,-2,-1
14.351551,2835,0,27,0,0,0,-1,0,0
14.373643,2836,-3,-37,-3,-2,0,-1,-1,0
14.373656,2837,-1,-4,-2,-1,2,17,-2,-2
14.373658,2838,-2,-6,-2,-2,-1,-7,-5,-4
14.373660,2839,1,16,0,-1,-2,2,1,-1
14.395803,2840,-2,8,-2,0,-2,2,0,0
14.395826,2841,-3,-8,-3,-1,-2,-17,-2,0
14.397037,2842,-1,-3,0,-1,-1,9,0,-2
14.397046,2843,0,-11,-1,-1,-1,-2,-4,-2
14.410315,2844,-2,34,-2,-1,0,-1,6,-1
14.410338,2845,-1,-36,-4,-2,-1,3,-24,-2
14.411969,2846,0,4,-1,2,-1,0,2,-1
14.411981,2847,4,-4,-2,-1,0,-4,-2,-1
14.434160,2848,1,12,-1,-1,-2,3,2,-1
14.434170,2849,-5,16,0,-2,-1,-3,6,-1
14.434173,2850,2,-1,-1,-2,-1,-4,-1,-2
14.434175,2851,-5,-11,-1,-2,-2,-7,-2,-1
14.455910,2852,4,-7,-2,0,-1,0,-2,0
14.457902,2853,-2,27,-2,-2,-3,-3,3,-2
14.457914,2854,-7,-44,-1,-1,-1,-5,-3,-1
14.457916,2855,0,0,0,-1,0,7,4,-2
14.470118,2856,-3,-1,0,-1,-1,-1,-2,1
14.470140,2857,5,21,-2,-1,-1,-3,1,1
14.471708,2858,-6,-1,-3,-4,-1,1,3,-2
14.471713,2859,-1,0,0,-2,1,-1,-2,-2
14.494016,2860,-2,-6,0,0,-2,-3,-3,-3
14.494027,2861,0,-9,0,1,-1,-3,3,-1
14.494029,2862,4,11,-1,0,-2,0,0,0
14.494031,2863,-3,-13,-2,0,0,0,-1,-1
14.515525,2864,-5,26,1,-1,-1,-1,-1,-2
14.515546,2865,9,-44,-2,0,-2,2,2,0
14.517678,2866,2,6,-1,-1,-1,0,1,-1
14.517693,2867,-14,-5,0,-1,-2,-3,0,0
14.530181,2868,0,4,0,-1,-1,-1,-1,-1
14.530205,2869,-6,7,-1,-1,0,-1,1,-1
14.530782,2870,2,2,-1,-2,-1,-1,-1,-1
14.530799,2871,3,-6,0,-1,0,-1,-2,0
14.552904,2872,-3,14,-1,-2,-1,0,-1,-2
14.552932,2873,-1,-17,0,-2,-1,-1,1,1
14.555598,2874,1,4,0,-1,-1,0,0,-2
14.555611,2875,3,8,-2,0,-1,2,-1,-1
14.575751,2876,3,-2,1,0,-1,0,-1,-1
14.575769,2877,-10,5,0,-2,-1,-2,-1,-1
14.576352,2878,0,3,0,-1,-2,-1,0,-1
14.576367,2879,1,3,-1,-1,-1,-1,-1,0
14.590012,2880,6,-13,0,-1,-1,-3,-2,0
14.591758,2881,-1,2,-1,-1,-2,0,0,0
14.591771,2882,-1,-1,-1,0,0,-1,0,1
14.591774,2883,-3,-2,-1,-1,-2,0,-1,-2
14.612456,2884,-3,-12,-1,1,-1,-1,-1,-3
14.612480,2885,1,8,0,-2,-3,1,1,-1
14.614154,2886,-2,2,-1,1,-1,-2,-1,0
14.614165,2887,1,7,0,-2,1,-1,0,0
14.636095,2888,-2,-6,-1,-2,-1,-2,0,0
14.636128,2889,-2,-2,0,-2,1,0,-2,-1
14.637539,2890,1,6,-2,-1,-1,1,0,-2
14.637546,2891,-2,-5,-1,-2,-2,-2,-1,0
14.650203,2892,-3,-7,-1,-1,0,-2,-1,0
14.650235,2893,0,1,-1,1,0,-2,-2,-2
14.651934,2894,-3,-2,-1,0,-2,-1,-1,-2
14.651948,2895,-1,-3,-2,-2,0,-1,0,-3
14.673080,2896,-1,-4,-3,0,-1,-2,0,-2
14.673115,2897,2,4,-2,-1,-2,-1,-1,-1
14.675597,2898,-1,-1,0,-2,-1,-2,-3,0
14.675609,2899,-1,-2,-2,0,-1,-2,-2,-2
14.695882,2900,0,0,-2,-1,-1,1,-2,-1
14.697440,2901,-1,0,-1,2,-1,-1,2,0
14.697456,2902,-2,-3,0,-1,0,-2,0,0
14.697457,2903,2,-1,0,-1,0,-1,-1,0
14.709762,2904,1,-1,-1,-1,0,-1,-3,-1
14.709786,2905,-2,-1,0,-1,-2,-1,0,-1
14.710547,2906,-4,-3,-1,-1,-2,-1,-1,-4
14.710573,2907,0,-1,-1,-1,-2,1,-1,-2
14.732651,2908,-1,-2,0,0,-2,-1,0,0
14.732672,2909,1,-1,-2,-1,0,1,-1,0
14.734749,2910,0,1,0,0,1,-1,-2,-1
14.734761,2911,-1,1,-1,-1,0,-1,0,-1
14.756311,2912,-2,-3,-2,-3,-1,0,-2,-3
14.756338,2913,-1,-1,-1,-1,-1,-1,0,-1
14.757935,2914,1,1,-1,-1,-1,-2,-1,0
14.757947,2915,-1,-1,-1,0,0,-2,-2,-1
14.770104,2916,0,-3,-2,0,-2,-2,0,0
14.770129,2917,0,-1,-2,-2,0,-2,-1,-1
14.777333,2918,0,-2,-1,-1,0,0,-1,-1
14.777357,2919,0,-2,-1,0,-3,-1,-2,-2
14.792415,2920,0,-5,0,2,-2,-2,-1,-1
14.792437,2921,-1,26,-1,-1,0,-1,-2,1
14.794402,2922,-1,-49,-2,-1,0,0,0,0
14.794413,2923,1,0,-1,-1,-1,0,-2,0
14.815748,2924,-2,4,0,-2,-1,0,-2,-2
14.815775,2925,0,-6,-1,0,-1,-2,-1,-2
14.816413,2926,0,14,-1,-1,-2,-3,-1,-3
14.816422,2927,-1,1,-3,-2,-3,-3,-2,-1
14.829890,2928,-2,-6,-1,-3,-3,-2,-1,-2
14.829914,2929,-2,0,2,0,0,-1,-2,0
14.830450,2930,0,9,-1,2,2,2,0,0
14.830464,2931,-3,-7,0,-4,-1,0,0,-2
14.852530,2932,1,7,-1,5,0,-3,-3,0
14.852560,2933,-1,-6,1,-2,-1,1,-1,0
14.855176,2934,1,-2,-2,-1,-1,-2,-1,-1
14.855185,2935,1,29,0,-1,1,1,1,-1
14.875671,2936,-4,-49,-4,-3,-1,0,-1,1
14.875694,2937,6,19,-2,-2,-3,-1,-1,-3
14.876291,2938,-11,-45,-3,-2,0,-1,-2,0
14.876306,2939,-7,2,-1,0,0,-1,-1,0
14.889919,2940,2,16,0,-1,1,0,-1,-2
14.889943,2941,-3,-5,-5,1,2,-1,1,-1
14.890799,2942,4,21,1,-2,-2,-1,-1,0
14.890849,2943,1,-6,0,-2,-1,-2,0,-2
14.912633,2944,-1,4,4,-2,-1,-2,0,1
14.912658,2945,-4,-8,1,-1,-1,0,-1,-3
14.914379,2946,-2,18,-2,-3,0,0,0,-2
14.914392,2947,1,-16,10,3,2,0,-1,0
14.935648,2948,16,38,-6,-1,-1,1,-1,1
14.935666,2949,-15,-42,-4,-4,-1,-1,0,0
14.936253,2950,-13,-29,-2,2,-2,0,-4,-9
14.936271,2951,-9,-3,0,-2,-3,-2,-2,0
14.949173,2952,2,2,-4,-3,0,-2,-1,-2
14.949191,2953,9,41,1,0,-1,-2,-1,0
14.957393,2954,1,-20,-1,0,-2,0,1,2
14.957410,2955,3,-3,-7,-1,-1,1,-2,1
14.973038,2956,-4,-1,1,-6,-1,-1,1,-1
14.973068,2957,-1,14,-1,4,-2,-1,-1,2
14.975164,2958,5,15,1,-1,0,-1,0,-1
14.975176,2959,3,7,-1,0,-1,-1,0,-2
14.995657,2960,5,15,-5,-2,-2,-1,-2,0
14.995674,2961,-14,-93,-2,-6,-3,-1,-1,-3
14.996292,2962,0,41,-7,2,0,0,1,3
14.996325,2963,-7,-23,17,4,1,-1,-2,-4
15.009149,2964,-14,21,-11,-4,-1,1,1,-3
15.009167,2965,25,21,6,3,3,-1,-2,1
15.017668,2966,1,30,6,1,-2,-2,0,1
15.017689,2967,-3,-36,-11,-3,-1,-1,0,0
15.032323,2968,-1,7,-1,-1,-1,1,0,1
15.032345,2969,-18,-18,-7,-1,0,0,-1,0
15.033533,2970,18,16,-10,-5,0,-1,-2,-3
15.033549,2971,18,9,0,-1,-2,-1,-1,-2
15.055467,2972,-23,-37,-1,0,-1,0,-1,-4
15.055488,2973,-15,-6,-11,-5,-1,-1,-1,-1
15.056331,2974,-5,-17,-20,-2,-1,-2,0,1
15.056353,2975,6,13,23,0,-1,-1,-1,-1
15.070827,2976,11,15,-2,2,-1,-1,-1,3
15.070838,2977,12,56,7,1,1,0,0,1
15.077237,2978,-9,-53,-12,-2,-2,-3,-1,-3
15.077260,2979,-8,6,-16,-3,-4,-1,1,-2
15.092356,2980,-12,-14,7,-3,-1,-3,-1,-3
15.092378,2981,48,26,-2,1,-2,0,0,-1
15.094037,2982,-49,3,14,0,-2,0,-3,-2
15.094051,2983,-12,17,-5,0,1,-2,0,0
15.115710,2984,2,-29,8,3,1,0,-3,0
15.115727,2985,-7,-13,-3,-7,-2,-1,-1,-3
15.116217,2986,13,19,5,5,2,1,0,0
15.116291,2987,-3,17,-6,0,0,-1,1,2
15.130612,2988,-13,-16,-7,-1,-1,-1,-3,-2
15.130629,2989,-2,-16,-1,-1,-2,-1,-1,-2
15.137484,2990,29,-21,4,-4,-3,0,-1,0
15.137504,2991,-6,9,-6,-1,1,-1,-3,0
15.152509,2992,14,18,1,0,0,-2,-1,1
15.152530,2993,-10,-1,0,0,-1,-1,-1,-1
15.154415,2994,-2,12,6,-1,-2,0,0,1
15.154426,2995,-9,6,-4,0,-3,-2,-3,-4
15.175987,2996,2,-35,-2,-1,0,-2,0,0
15.175999,2997,-12,21,12,3,1,-1,0,-1
15.176174,2998,23,15,-2,-2,0,-1,-1,2
15.176241,2999,-42,-53,-4,-2,0,1,0,-1
15.191476,3000,25,34,5,3,1,-2,-1,-2
15.191533,3001,-9,-26,-11,-5,-1,0,0,0
15.197498,3002,-3,2,7,1,0,-1,1,-1
15.197518,3003,33,-2,-4,-1,-3,-2,-2,0
15.212305,3004,-29,-4,1,-4,-1,0,-1,-4
15.212338,3005,11,24,3,1,-1,0,-1,-1
15.213518,3006,-17,-13,-2,-4,-2,-2,-2,-1
15.213524,3007,21,17,-15,-1,-1,-3,1,2
15.236416,3008,17,-37,-6,-1,-1,0,-2,-2
15.236427,3009,-16,2,4,2,0,-1,0,-2
15.236429,3010,7,5,3,-2,0,2,-1,-1
15.236431,3011,-1,20,4,3,-1,-1,-2,-2
15.251162,3012,1,1,-4,-2,-3,-1,-2,0
15.251179,3013,7,-5,-4,-1,0,-1,-1,2
15.257355,3014,-19,-13,-1,-2,-1,-2,-1,-1
15.257381,3015,-1,12,8,-3,0,0,0,-1
15.272798,3016,14,3,-4,-1,-2,-1,-1,-2
15.274031,3017,-24,-21,-5,-1,2,0,-3,-2
15.274044,3018,3,22,-2,-1,0,-1,-2,-1
15.274046,3019,8,3,-3,-2,1,-2,-1,0
15.295663,3020,-6,7,6,1,-1,-2,-1,-2
15.295676,3021,-13,-4,1,1,0,-2,-1,-3
15.296272,3022,10,-18,-4,0,0,10,1,-1
15.296282,3023,-12,-16,-3,0,-2,3,3,-1
15.318517,3024,7,-3,-1,-3,0,-12,-5,1
15.318539,3025,-3,12,-3,-1,0,-1,0,-3
15.320669,3026,-12,4,-3,-1,-1,-5,-1,-1
15.320674,3027,8,-15,3,-2,0,6,2,0
15.332345,3028,-10,7,-1,1,0,2,0,-1
15.332367,3029,6,-1,-1,0,-1,-2,-3,-1
15.333175,3030,-11,-9,1,0,-1,1,-1,-1
15.333187,3031,18,5,-1,-1,-1,-4,-4,-1
15.363247,3032,-27,-11,-2,0,-2,-1,-1,-4
15.363277,3033,-41,20,-1,-1,-1,-1,-2,0
15.365232,3034,16,-37,-3,-2,-2,-1,-1,-2
15.365238,3035,-5,3,-3,-2,-1,-4,-3,0
15.378196,3036,8,-46,2,-1,-2,-1,-2,-1
15.378220,3037,44,-1,-10,-2,-1,1,3,0
15.379999,3038,-15,12,0,0,-1,-6,0,0
15.380009,3039,-6,2,-1,-2,-1,-3,-3,-5
15.392387,3040,-8,25,1,-2,-1,4,0,1
15.392404,3041,1,-25,2,-1,-1,-1,-2,-3
15.393983,3042,16,16,-3,-2,-1,-4,-2,0
15.394001,3043,-5,-5,2,0,1,-2,-1,0
15.415867,3044,4,13,1,2,-1,3,2,1
15.415878,3045,0,-24,0,-2,-1,0,0,1
15.416116,3046,-5,5,-1,1,-1,-4,-1,-2
15.416122,3047,2,-4,1,1,-2,0,-1,0
15.438402,3048,20,30,-5,-2,-1,-2,0,0
15.438431,3049,-54,5,-1,-1,-2,-1,-1,-3
15.440313,3050,3,-15,1,-1,-1,1,-2,-2
15.440326,3051,1,-23,-4,-2,-1,-2,-1,-1
15.452696,3052,6,8,-4,-1,-2,-1,0,-1
15.452725,3053,14,12,3,1,1,-1,0,0
15.454515,3054,13,36,5,1,1,0,0,1
15.454527,3055,-19,-8,-7,1,0,0,-2,0
15.476313,3056,-2,-21,-4,-2,-1,0,-1,-2
15.476325,3057,9,2,-1,-3,1,-1,-1,-2
15.476327,3058,-14,-4,-2,0,1,-2,0,0
15.476329,3059,13,23,1,-1,-1,-1,-1,0
15.498095,3060,-15,11,3,1,0,1,-1,-2
15.498129,3061,9,-15,-1,0,-1,-1,-1,0
15.500388,3062,6,2,-2,-1,-1,-2,-1,1
15.500394,3063,-3,17,2,-2,-1,-1,-1,0
15.512199,3064,-6,-53,-5,-4,-2,-1,0,-2
15.512223,3065,0,2,-2,-2,-2,-2,-1,-1
15.520212,3066,-5,-1,-3,-1,-2,-1,-1,-3
15.520230,3067,-1,3,-1,0,-1,0,-1,-2
15.536474,3068,-7,17,0,-1,0,-1,-1,0
15.536506,3069,30,-12,0,1,-3,0,-2,2
15.538260,3070,-40,16,0,0,0,-1,-2,-2
15.538271,3071,-10,-59,-4,-1,-2,-1,0,0
15.558048,3072,6,18,-2,-2,-1,-1,0,-2
15.558066,3073,1,27,-1,-3,-2,-1,-1,-1
15.558923,3074,3,-21,-1,-2,1,0,-1,-2
15.558940,3075,-7,-4,-2,3,-3,-1,-2,-3
15.573059,3076,1,4,1,-1,3,0,-1,0
15.574914,3077,-27,3,1,-9,-3,-1,-1,-2
15.574927,3078,14,3,-2,6,-1,-1,0,0
15.574929,3079,-1,12,-4,-2,2,1,-1,1
15.595868,3080,-3,-10,2,3,0,-2,0,-2
15.595890,3081,-2,-2,0,-1,-1,0,-1,0
15.597361,3082,6,-1,1,-4,-2,0,0,-1
15.597367,3083,7,25,9,6,-3,-3,0,0
15.618032,3084,1,-17,2,5,-1,1,0,0
15.618057,3085,0,10,-2,-4,0,0,-1,-1
15.619075,3086,-7,-6,-3,-4,-1,-3,0,1
15.619095,3087,15,-1,-1,-4,-1,-1,-2,0
15.632556,3088,-15,8,0,-1,-1,-1,-1,0
15.632580,3089,7,-7,-2,3,0,-1,0,-1
15.640247,3090,5,7,-1,-4,-2,-1,-2,-1
15.640275,3091,-6,-3,-1,-1,0,0,-1,-1
15.655703,3092,5,6,-4,-4,-2,-3,-1,-1
15.655726,3093,0,-16,0,3,-1,-1,-3,-3
15.657526,3094,2,21,-3,3,0,-2,-1,-4
15.657539,3095,-7,-53,-3,-3,0,-1,-1,1
15.678218,3096,-3,7,-3,-1,-2,-1,-1,0
15.678242,3097,6,-2,2,2,0,0,0,-2
15.678878,3098,8,46,4,0,-1,-1,1,2
15.678943,3099,-7,-34,-6,-3,0,-2,-3,-1
15.692587,3100,3,7,1,-3,-1,-1,0,-1
15.692673,3101,-5,-6,0,0,-1,1,-2,-1
15.693164,3102,9,2,2,-1,0,-1,-1,5
15.693195,3103,-3,21,1,0,-1,-1,-2,-6
15.723123,3104,-4,9,-4,-3,1,-1,-2,1
15.723141,3105,8,-8,0,1,-1,-2,-1,0
15.723999,3106,0,-16,-3,-2,-2,0,-1,-3
15.724100,3107,-4,22,0,0,-1,1,1,1
15.738141,3108,-5,-26,0,1,-2,-2,-2,-6
15.738159,3109,3,-4,1,0,1,-1,1,5
15.738758,3110,-6,-18,-2,-3,-2,-2,-4,-5
15.738771,3111,-5,25,1,-1,0,-1,0,-1
15.752447,3112,2,6,-3,-3,-3,-1,-1,-3
15.752620,3113,4,1,2,-1,-1,-1,-1,2
15.753226,3114,-5,9,-10,-1,1,1,1,-1
15.753359,3115,-2,-54,-4,-4,-2,-2,-1,-2
15.775477,3116,1,16,2,1,0,0,-1,0
15.775502,3117,-3,-16,0,-1,-1,-2,-2,-2
15.776415,3118,7,-18,-1,-1,-1,-3,-1,1
15.776433,3119,-7,21,0,-1,-1,-2,-1,-6
15.797965,3120,2,-9,-3,0,0,0,0,0
15.797984,3121,3,1,-4,-3,-1,-2,1,-1
15.798638,3122,-2,14,4,-3,-2,0,-2,0
15.798651,3123,4,4,4,1,-1,-1,-1,3
15.812422,3124,-12,-40,-12,-3,-3,-2,-3,-2
15.812444,3125,14,3,2,0,-1,-1,-1,-1
15.813284,3126,-26,-17,-10,-3,-4,-2,-1,-6
15.813356,3127,8,11,2,0,0,-1,0,4
15.835743,3128,7,19,-2,1,-1,-1,0,-1
15.835764,3129,-5,8,-1,-2,-1,-2,-1,-1
15.836903,3130,-4,3,6,1,0,-2,-2,-2
15.836916,3131,-3,-27,-4,-1,-1,-1,-1,-1
15.858176,3132,-2,6,0,0,-2,-1,-3,-3
15.858200,3133,-1,5,-4,0,-1,-1,2,2
15.859518,3134,3,-10,3,0,1,-1,-2,-2
15.859534,3135,-15,-4,-2,1,-1,-1,-1,-6
15.872913,3136,4,-3,1,1,-2,0,0,1
15.872925,3137,-2,15,-4,0,0,1,0,4
15.880779,3138,-8,-26,-2,1,-3,-2,-2,-4
15.880791,3139,38,13,0,-2,0,0,0,3
15.895617,3140,-28,-6,-4,0,0,-2,-1,-1
15.895639,3141,-10,20,1,3,0,-1,-1,-3
15.896999,3142,-4,-10,-1,-1,-1,0,0,3
15.897014,3143,18,-12,-4,-3,-3,0,0,1
15.917946,3144,3,12,2,-2,0,-2,0,1
15.917965,3145,-2,-7,-2,1,-1,0,-1,1
15.919445,3146,2,18,0,0,0,-2,-1,-1
15.919458,3147,-17,-43,-3,-2,-3,-1,0,0
15.932490,3148,3,3,3,-3,0,-1,-1,-1
15.932503,3149,-6,-4,-4,-1,-1,-2,-2,-4
15.941288,3150,8,-10,1,0,-1,0,-1,-1
15.941299,3151,-3,35,-1,0,2,-1,-2,-3
15.955692,3152,-11,6,1,-2,1,-1,-1,-2
15.955734,3153,9,-39,-2,-1,-1,-1,1,0
15.957858,3154,-10,4,-3,-2,0,0,-1,-1
15.957870,3155,-3,18,0,0,-3,-2,0,1
15.978046,3156,4,-2,0,-1,0,-2,-1,0
15.978060,3157,6,14,1,0,1,0,1,2
15.979577,3158,6,7,1,0,-1,-2,0,3
15.979595,3159,-61,-28,-6,-3,-1,0,-3,-5
15.991737,3160,16,26,2,0,-2,-2,-1,-3
15.993456,3161,-3,-47,-3,0,0,2,-1,0
16.008399,3162,5,-9,1,0,1,-1,0,0
16.008413,3163,20,43,0,0,-1,-2,-2,-4
16.015532,3164,-10,-20,2,0,-2,1,0,2
16.015554,3165,-11,16,-2,-3,-4,0,-1,-2
16.017169,3166,1,26,-1,1,0,0,0,2
16.017180,3167,3,-22,0,1,0,-1,-2,1
16.039777,3168,12,6,-2,0,-1,0,0,-1
16.039791,3169,2,7,1,1,0,-1,-1,-1
16.039793,3170,1,-11,0,-2,0,1,0,0
16.039795,3171,11,38,-2,-2,-1,-1,-2,0
16.053788,3172,3,-26,-2,-2,-1,-1,0,0
16.053805,3173,-25,-15,-2,-2,-2,0,-3,-3
16.061260,3174,6,54,0,-1,-1,1,0,0
16.061273,3175,6,-31,4,1,1,-1,0,-2
16.075105,3176,-14,-32,-6,-4,-2,0,-2,-4
16.075124,3177,1,-9,0,-2,-2,-3,-1,-4
16.081930,3178,-18,4,1,-1,0,-2,0,-2
16.081982,3179,25,80,-5,-2,-1,0,-1,1
16.099432,3180,6,-66,-4,0,-1,0,-1,0
16.099448,3181,7,-1,0,-1,-1,-1,-1,-2
16.099453,3182,-3,-43,0,0,-2,-2,-1,-2
16.099514,3183,-14,25,1,-1,-1,-1,0,0
16.111850,3184,5,39,2,-2,-1,-1,-1,-2
16.111877,3185,-9,0,-4,-4,-2,-2,-2,-5
16.121914,3186,2,-13,2,1,-1,1,-1,1
16.121932,3187,-5,-18,-1,-2,-2,0,-1,-1
16.135416,3188,13,-3,-21,-4,-2,-1,-1,1
16.136383,3189,0,11,-11,0,0,-1,0,2
16.149220,3190,12,16,30,3,-1,-2,-4,-6
16.149242,3191,-8,14,-7,-2,1,-1,0,-2
16.158106,3192,2,-28,5,-1,-2,-1,-2,0
16.158122,3193,9,7,-19,-4,-2,1,0,0
16.160001,3194,-12,-17,-13,-6,-1,-1,0,-1
16.160012,3195,-12,-50,7,3,1,1,1,0
16.172236,3196,-1,45,0,0,1,-2,-3,-3
16.172258,3197,23,6,2,-1,0,-1,-1,-1
16.181494,3198,-28,-16,4,2,0,-1,-2,-2
16.181511,3199,38,45,0,-4,-4,-2,-3,-4
16.195078,3200,-48,-45,0,0,0,-1,3,0
16.195280,3201,-1,9,9,2,0,-1,-1,2
16.201993,3202,8,6,-5,-3,-2,0,-1,2
16.202014,3203,-10,-21,-4,-1,-2,0,-3,0
16.218394,3204,6,24,5,0,1,0,0,-1
16.218423,3205,4,18,3,-1,0,0,-2,-2
16.220685,3206,-7,-32,-13,-3,-1,-2,1,-2
16.220697,3207,-6,-6,2,1,-1,-1,0,0
16.240866,3208,-9,15,4,0,1,-1,-2,-3
16.240966,3209,9,-58,-3,-3,-1,-2,-1,-1
16.242107,3210,9,35,-6,-1,-2,-1,0,0
16.242132,3211,-5,-41,-3,-3,-1,0,-1,-1
16.255205,3212,5,4,8,-2,-2,-2,-2,-2
16.255229,3213,2,28,2,-3,-1,-1,0,-1
16.261650,3214,-31,-18,0,-1,-2,-2,-3,-1
16.261675,3215,6,0,-2,0,2,2,0,0
16.278113,3216,-22,4,-9,0,-3,-1,0,-1
16.278138,3217,18,11,18,4,1,-1,-1,-1
16.279532,3218,5,-9,-5,-4,-2,-1,0,1
16.279539,3219,-2,21,3,0,-2,-3,-1,1
16.301163,3220,-5,-56,-7,0,-1,-1,1,-1
16.301187,3221,4,41,2,0,-1,0,1,0
16.301931,3222,-3,-12,-5,0,-2,-1,-1,0
16.301946,3223,-1,27,-2,-1,-2,-2,-2,-2
16.315064,3224,30,-3,0,-2,-1,0,-1,2
16.315088,3225,-13,3,-5,0,-2,-2,-2,-4
16.321738,3226,21,-13,-1,-2,-1,-1,-1,-1
16.321764,3227,22,4,2,-2,-3,-1,-3,-1
16.338395,3228,-4,50,2,-1,0,0,-1,2
16.338423,3229,-3,-44,0,0,-1,-1,-2,-1
16.341050,3230,-9,17,-1,1,1,2,-1,-2
16.341065,3231,-21,-10,1,-1,-2,-1,2,0
16.361031,3232,23,8,-2,-1,-2,-3,-1,-1
16.361056,3233,-18,-11,-2,-4,-2,-1,0,0
16.362390,3234,6,34,-4,-1,-2,-1,0,-2
16.362430,3235,9,-17,1,0,-1,-1,1,-1
16.375016,3236,-1,-24,2,0,0,-2,-2,0
16.375038,3237,-45,-1,-4,-2,-1,-1,-2,-3
16.381986,3238,17,11,1,2,1,-1,-1,0
16.382008,3239,10,-27,-3,-4,0,-2,-1,-1
16.398245,3240,-23,20,-1,-3,-2,-2,0,-2
16.398360,3241,3,-2,-3,-1,-5,-1,-2,0
16.400266,3242,20,-14,1,-5,-10,0,0,-2
16.400277,3243,-7,1,-4,-14,-69,-10,-5,-5
16.420421,3244,12,4,8,21,73,8,4,3
16.420440,3245,-7,3,-1,11,27,4,1,-1
16.422328,3246,-3,-16,-1,-2,8,-3,-2,2
16.422352,3247,-16,-3,-3,-10,-6,0,0,-6
16.434844,3248,-5,8,-3,-9,-24,-2,-3,-2
16.434862,3249,1,-17,0,-3,-9,-2,0,1
16.441804,3250,2,17,0,-3,-1,0,2,-1
16.443313,3251,11,3,0,5,14,2,0,1
16.458248,3252,-23,-9,-3,-7,-16,-4,-2,-3
16.458271,3253,7,8,1,0,6,0,0,-2
16.459760,3254,-1,-10,-3,-3,-9,-1,-2,-1
16.459771,3255,-4,-5,-1,1,13,-1,0,1
16.480530,3256,1,9,-1,1,-4,0,-3,-3
16.480552,3257,6,7,-1,-7,-15,-3,-1,1
16.482052,3258,-9,-22,-1,2,2,-1,0,0
16.483433,3259,4,5,1,5,15,-1,0,0
16.494140,3260,12,2,-2,-3,-6,-1,0,-1
16.494159,3261,-20,-15,1,-1,-3,-2,-3,-4
16.503237,3262,1,-2,-4,-1,-1,-2,-2,-1
16.503247,3263,-7,-1,-5,1,14,1,-1,1
16.518390,3264,0,-6,0,-4,-11,-2,-2,0
16.518418,3265,5,0,-5,-3,-3,-1,-1,1
16.520030,3266,-3,6,3,1,2,-1,-2,-2
16.520037,3267,-5,-40,-1,-2,0,0,-1,0
16.540678,3268,0,4,0,-3,-4,0,1,-2
16.540701,3269,13,13,7,2,0,0,-1,-2
16.542097,3270,0,-7,-15,-2,0,1,-1,-1
16.542136,3271,-3,6,-2,-1,2,-1,0,-1
16.554214,3272,11,12,4,1,-4,-1,-1,0
16.554270,3273,-2,-4,-3,-3,-1,-1,-1,0
16.563540,3274,-2,2,1,-1,-2,-2,-1,-1
16.563552,3275,-2,-7,2,1,4,0,-1,-1
16.578006,3276,-4,19,-6,0,0,-1,1,0
16.578031,3277,-3,-4,-2,-3,-1,-2,-1,-1
16.579752,3278,1,-3,2,-1,-2,-1,-1,0
16.579770,3279,-6,1,1,1,2,0,-3,1
16.600703,3280,3,4,3,-2,-3,-1,-1,0
16.600722,3281,1,0,-2,0,-3,-1,-1,-1
16.602093,3282,-2,-6,-2,-1,-1,-1,0,-1
16.602112,3283,13,9,3,0,2,-1,0,0
16.614186,3284,-33,-10,-3,0,-5,-1,-3,-4
16.614199,3285,5,14,-4,-2,-3,-1,-3,-2
16.624994,3286,-6,-51,-1,-2,0,-1,-2,-2
16.625007,3287,2,9,0,0,-1,0,-1,0
16.638434,3288,5,-3,0,-2,-2,-2,0,0
16.638466,3289,-3,-4,-1,-7,-4,-2,0,-1
16.640647,3290,-3,19,7,6,1,1,-1,-2
16.640662,3291,-5,-4,-12,-5,0,-2,0,-1
16.660454,3292,7,-5,5,3,-3,0,-1,-2
16.660477,3293,-2,0,-8,0,-2,-2,-2,-1
16.662187,3294,2,7,1,4,-1,0,-2,-1
16.662206,3295,-6,-1,4,2,-1,-2,-2,-1
16.675331,3296,1,1,-8,-4,-1,-1,-1,-1
16.675344,3297,-1,-8,0,-8,-3,-1,-2,-4
16.684457,3298,-2,17,-5,3,-2,-1,0,1
16.684470,3299,-7,-28,3,-2,1,-1,-3,0
16.698360,3300,3,-17,-8,0,-1,-2,-1,-1
16.698446,3301,3,0,-7,-3,-2,-1,-2,0
16.700366,3302,1,1,3,2,1,1,-2,0
16.700371,3303,-4,20,7,-3,-2,-2,-1,-2
16.720560,3304,3,4,-1,-1,0,1,1,0
16.720572,3305,0,-9,-6,1,1,0,0,-1
16.721913,3306,1,18,-4,-5,-1,-1,-1,-1
16.721926,3307,-12,-12,-10,1,-2,-1,-1,-3
16.734099,3308,0,-28,6,-5,-2,-3,-3,-1
16.734111,3309,1,4,-1,-7,-1,-2,0,0
16.744086,3310,3,5,13,1,-1,-1,0,-1
16.744100,3311,3,17,-10,1,-1,-1,-1,0
16.758239,3312,-2,10,-22,1,0,-2,-1,-4
16.758264,3313,5,-4,6,0,1,0,0,3
16.759632,3314,-16,-28,-6,-16,-3,-3,-2,-3
16.759643,3315,4,7,4,0,-2,0,0,3
16.780504,3316,-2,-1,4,-3,-1,-1,-1,-2
16.780525,3317,-3,26,-1,4,-2,-1,-2,-2
16.782236,3318,5,-15,11,-4,-2,-2,-1,-1
16.782260,3319,1,-10,-2,16,2,-1,1,-4
16.794215,3320,1,36,5,2,1,0,0,1
16.794233,3321,-9,-20,-5,-6,0,-2,-2,-4
16.804342,3322,3,-10,-1,-5,-2,-1,-1,-1
16.804352,3323,-23,-19,-7,-10,-3,0,-1,-2
16.817155,3324,0,9,10,0,-2,0,-2,-2
16.817184,3325,-4,-3,-7,-2,-1,-1,-1,-4
16.826403,3326,1,25,-11,-11,-1,-1,0,4
16.826415,3327,2,-17,7,4,0,-1,0,-4
16.840661,3328,2,-1,5,1,-2,-2,-1,1
16.840679,3329,-4,-10,-3,2,0,1,0,4
16.842106,3330,2,-7,-12,18,3,-1,0,-2
16.842128,3331,1,15,3,-2,-2,-2,-1,-2
16.855051,3332,3,-1,9,-6,-7,-3,0,2
16.855062,3333,-9,13,6,-1,2,0,-4,-10
16.864230,3334,-1,-6,-10,-6,-2,-1,-2,-4
16.864252,3335,13,-6,0,-3,-1,-1,1,0
16.878157,3336,-10,3,-5,-6,-2,-1,1,-1
16.878181,3337,6,23,1,0,0,-3,-2,1
16.879742,3338,-7,-54,-1,0,4,0,0,2
16.879752,3339,4,6,-9,-6,-9,-1,-3,-1
16.900550,3340,7,3,2,-3,-2,2,0,4
16.900569,3341,8,5,1,10,0,-1,0,5
16.901919,3342,-5,5,2,-2,0,0,0,-1
16.901925,3343,4,20,0,-5,0,-2,-1,4
16.915932,3344,3,-19,0,3,4,2,1,3
16.915944,3345,-1,-13,-5,-2,0,0,0,4
16.924606,3346,9,35,2,-4,-3,-2,-1,1
16.924618,3347,2,-24,-11,0,-1,1,1,5
16.938192,3348,-4,-3,-2,1,-1,-2,-3,-3
16.938213,3349,-5,-4,6,5,1,0,-2,0
16.940918,3350,-6,5,2,-4,-2,-1,-2,-8
16.940933,3351,-8,10,1,-1,-1,-2,-1,-8
16.961514,3352,-11,-2,-5,-4,2,-5,0,-16
16.961526,3353,-7,-11,2,-6,-1,-3,3,-10
16.962082,3354,-7,1,-5,-7,-4,-5,0,-7
16.962089,3355,-2,43,3,-6,5,-1,0,-6
16.974353,3356,-1,-42,2,11,4,-1,0,0
16.974375,3357,2,-18,-7,-4,-6,-1,-1,-2
16.985164,3358,2,10,0,2,1,0,1,-1
16.985175,3359,5,8,3,0,0,1,1,7
16.998233,3360,1,7,-10,-8,-4,-1,-3,-1
16.998259,3361,1,4,14,1,-3,-1,-2,2
17.000031,3362,4,0,-9,8,0,1,-1,6
17.000044,3363,0,-8,8,-1,-2,-2,-3,1
17.022845,3364,2,7,-4,1,-2,-1,-3,0
17.022860,3365,-1,-14,13,1,-3,-1,-2,0
17.022862,3366,-2,8,12,-6,-4,-2,-4,-5
17.022864,3367,-2,-22,-10,10,-2,-1,-3,-1
17.034578,3368,-3,-3,-8,-31,-3,0,-2,0
17.034606,3369,3,8,-30,8,4,2,0,2
17.044025,3370,5,5,24,42,5,0,-2,4
17.044037,3371,-4,-4,39,3,2,0,0,2
17.058093,3372,8,2,13,1,-2,0,-3,0
17.058110,3373,10,4,-6,-17,-5,-1,-1,1
17.059685,3374,-23,13,-13,-14,-5,-2,-3,0
17.059718,3375,-8,-43,-24,-2,-1,-1,-2,-1
17.080526,3376,-1,12,-6,4,-3,-1,-1,0
17.080542,3377,3,5,1,-6,-1,-2,0,1
17.082090,3378,3,-9,-3,0,0,-1,2,-1
17.082135,3379,5,14,0,-2,-1,-2,-3,-1
17.094305,3380,1,21,1,-1,-1,-1,1,1
17.094331,3381,-8,-19,4,7,1,0,-1,1
17.104567,3382,-4,-36,-6,-9,-3,-1,-2,-3
17.104578,3383,-6,-2,-12,-12,-5,-3,0,-3
17.118072,3384,3,4,-19,12,2,1,-1,-2
17.118113,3385,3,19,6,7,2,-1,0,0
17.124288,3386,3,1,1,-6,0,0,0,1
17.124308,3387,1,2,4,-6,-1,-1,-2,-3
17.140603,3388,-3,-5,-4,-1,-2,-1,0,-3
17.140624,3389,-6,-1,-2,2,-2,0,-1,-2
17.142639,3390,3,11,-2,-8,-1,0,1,-1
