timestamp,emg1,emg2,emg3,emg4,emg5,emg6,emg7,emg8,label
2.002298,-5,-21,-13,0,1,-2,-1,2,5
2.002770,-4,-5,17,0,-1,-3,1,2,5
2.022175,-13,14,-6,0,-2,0,1,0,5
2.022183,27,-1,-6,-4,-6,0,-2,-2,5
2.022832,-3,0,6,-1,-2,1,-1,-2,5
2.022867,-10,-30,-12,-2,2,-1,1,1,5
2.035105,-4,26,3,1,0,0,-1,-4,5
2.035126,-1,31,2,-1,0,-1,-1,0,5
2.045270,1,41,7,2,-1,1,0,-1,5
2.045274,-6,-11,-13,-3,0,-3,-4,-1,5
2.059282,3,3,19,1,0,2,1,6,5
2.059310,-6,3,-11,-3,-2,-1,-3,-1,5
2.061310,8,-25,17,2,1,-2,0,2,5
2.061319,-6,16,-8,0,1,1,0,3,5
2.081221,1,4,-2,-3,-3,-3,-1,-3,5
2.081242,-1,-19,0,2,4,1,2,2,5
2.084292,-7,7,-4,-3,-5,-3,-5,-2,5
2.084296,0,-15,-3,-1,-3,-1,1,-2,5
2.095449,2,-3,-12,-3,-1,-2,0,0,5
2.095477,-1,-6,1,0,-2,0,-1,0,5
2.104023,-14,-23,-8,0,-2,0,0,3,5
2.104043,24,32,19,1,-1,-1,-5,-5,5
2.119178,-7,-3,-10,-3,-2,-1,-2,3,5
2.119205,1,-13,12,3,3,-1,1,-1,5
2.121736,-3,17,0,-2,-1,2,-2,1,5
2.121744,-19,-9,-6,1,0,0,2,0,5
2.141316,18,46,-13,-3,-2,-1,-2,-9,5
2.141337,-2,10,25,5,0,1,-2,2,5
2.143355,2,-77,-11,-5,-2,-2,-1,7,5
2.143363,-5,0,-7,-1,2,0,1,-2,5
2.155053,-2,-3,0,1,-3,-3,-1,-3,5
2.155078,-10,45,-16,-3,-3,-2,0,-1,5
2.165158,0,-60,-4,-1,-1,-3,-1,-2,5
2.165163,10,4,2,-2,-3,-1,-3,2,5
2.178974,-21,-9,1,0,4,3,1,3,5
2.178991,12,5,-10,-5,-11,-5,-3,-3,5
2.180424,-3,-3,7,-3,-4,-2,0,-1,5
2.180444,-10,6,5,1,1,-1,-1,-2,5
2.201739,17,-31,-7,-3,-2,-4,-1,3,5
2.201770,-6,-21,-1,0,1,0,-1,1,5
2.204649,-1,34,-9,-2,2,0,-2,-5,5
2.204657,-10,28,-12,1,3,1,1,0,5
2.214965,0,-6,14,-1,-4,-3,-5,1,5
2.214987,-5,20,-9,-2,1,-1,-2,-6,5
2.223976,1,-13,13,4,0,-1,0,0,5
2.223986,6,0,-10,-4,0,0,0,-1,5
2.240410,-4,-7,1,-2,-1,-1,-3,2,5
2.240418,-2,-18,4,0,0,-3,0,-1,5
2.240421,3,28,-11,-2,1,1,2,0,5
2.240422,-6,-26,5,-2,-2,-1,-3,0,5
2.261519,-2,39,-6,-2,-1,0,2,-4,5
2.261540,-15,-34,7,-2,-2,-2,-5,0,5
2.263977,19,20,3,-2,2,-2,-1,-3,5
2.263982,4,-35,3,-1,0,0,-2,1,5
2.274963,-11,7,8,2,-5,0,1,1,5
2.274987,-5,-13,-14,-1,-1,0,0,1,5
2.286289,-13,28,-17,-3,-4,-3,-1,-3,5
2.286299,0,-34,9,-1,0,0,0,5,5
2.299436,9,-32,-16,-1,1,0,0,-4,5
2.299465,2,-5,15,1,0,0,0,-1,5
2.302329,-3,22,4,0,1,-1,-1,3,5
2.302341,4,-1,4,-2,-2,-2,0,-3,5
2.321350,-15,-18,-6,0,2,0,-1,-1,5
2.321381,16,-10,-13,-1,-1,-1,-1,-3,5
2.322938,-9,-11,3,-1,-2,-1,1,-1,5
2.322955,4,18,-7,0,-1,0,-1,-5,5
2.343984,-4,-51,1,0,0,-1,-2,-2,5
2.345856,-9,50,13,-2,3,-1,1,-2,5
2.345862,0,-20,3,-1,-1,0,-3,-5,5
2.345863,5,-9,2,-3,-9,-2,0,-1,5
2.358149,18,79,-11,-2,3,0,0,-7,5
2.358171,0,-34,27,0,-4,-2,-1,1,5
2.364815,-6,-71,5,0,-4,0,-3,3,5
2.364831,14,14,-9,-1,2,-3,-3,-4,5
2.381703,-4,4,-10,1,0,0,1,0,5
2.381708,-13,-5,-9,-2,0,-3,-1,-3,5
2.382690,3,20,8,1,0,0,-1,-3,5
2.382706,-8,-46,-11,-2,-4,-2,-3,0,5
2.403841,-8,64,8,-3,-1,-2,-1,-5,5
2.405914,2,-37,-3,-2,1,2,-1,2,5
2.405921,24,-20,-9,-4,-4,-4,-2,-1,5
2.405923,-8,5,-4,1,0,-1,-2,0,5
2.419172,9,-3,-2,-2,-3,-2,-2,-1,5
2.419196,-6,0,-7,1,-1,-1,1,-3,5
2.421368,-12,57,-8,0,2,0,-1,-1,5
2.421375,7,-17,19,3,3,1,1,1,5
2.441267,-6,-76,5,-2,1,-2,0,-1,5
2.441289,20,-2,6,-1,-4,-2,-2,-2,5
2.443133,3,-4,-9,-2,-2,-1,-1,0,5
2.443138,-12,24,-4,-4,-1,-2,-2,-3,5
2.464678,-12,3,1,-1,-1,1,1,-2,5
2.464715,-2,13,0,-2,0,-2,-2,-4,5
2.466694,-2,-34,-20,-3,-1,-1,1,2,5
2.466699,1,24,18,0,-2,-1,-1,-1,5
2.478351,6,-9,12,3,2,1,1,6,5
2.478540,-5,11,-15,-1,0,1,0,1,5
2.485055,-1,17,0,0,5,1,2,0,5
2.485076,-12,6,-13,-2,-6,-1,-2,-1,5
2.501404,9,-7,2,-3,-5,-3,-4,-1,5
2.501424,-15,4,-6,1,2,2,1,3,5
2.504004,13,29,14,-3,-4,-3,-4,-3,5
2.504321,-7,-22,2,2,3,-2,2,0,5
2.523847,0,-43,0,0,-1,0,-1,3,5
2.523869,0,15,-11,-1,-1,-1,-2,1,5
2.525355,-6,-18,-3,-3,2,1,0,-1,5
2.525369,-1,52,8,0,0,2,2,2,5
2.538478,9,-62,-8,-3,-6,-6,-5,-2,5
2.538693,-12,10,16,0,0,0,-1,0,5
2.545360,2,19,-18,-3,-1,-1,0,-2,5
2.545384,-6,-31,4,1,0,-1,-1,-3,5
2.561422,-7,26,-4,-3,-2,0,-1,1,5
2.561443,2,-31,-23,-4,0,-1,0,-1,5
2.563035,-1,24,33,2,0,-1,-2,3,5
2.563040,-4,46,-14,0,2,0,-1,0,5
2.585229,16,-40,-4,-1,0,0,0,1,5
2.585242,-1,2,-5,-3,-4,-4,-3,-2,5
2.585549,-7,-6,-6,0,-2,-2,1,2,5
2.585564,-6,7,-13,-2,1,1,-1,-1,5
2.599871,8,-4,6,3,1,0,-3,0,5
2.599877,5,2,17,1,-1,-1,-1,0,5
2.605203,-8,-9,-4,-1,0,1,0,-3,5
2.605224,10,-12,-2,-2,0,-2,-1,1,5
2.621455,-11,-6,-3,-2,0,1,-2,1,5
2.621478,-5,-12,6,3,-4,-2,0,-3,5
2.623530,2,14,-11,-2,0,-2,0,2,5
2.623537,2,-43,4,-2,-1,-1,-3,4,5
2.644847,-1,43,-8,-1,2,0,-2,-3,5
2.644852,-1,-12,-2,0,3,0,0,3,5
2.645423,19,-11,-8,-5,-13,-6,-4,-2,5
2.645495,-7,19,10,1,-2,-1,0,-1,5
2.658392,4,10,7,0,-2,-3,-1,1,5
2.658416,-14,2,2,1,3,2,-3,-3,5
2.665475,-15,-6,-6,-1,4,2,0,3,5
2.665499,20,-2,-1,-1,-3,-2,-2,-2,5
2.681889,-10,73,-37,-3,-1,-3,2,-2,5
2.681911,2,-49,74,8,1,-1,-2,3,5
2.683842,-22,3,-16,-4,-4,0,1,-1,5
2.683849,0,9,27,2,-1,0,1,-3,5
2.703304,-2,0,-2,-2,-1,0,-1,-2,5
2.703333,2,14,-27,-2,-2,-3,0,-1,5
2.705112,14,19,2,0,-3,-1,-6,-3,5
2.705121,33,-16,-8,-4,-5,-5,-1,-4,5
2.717933,-27,-10,3,3,-1,0,-1,-2,5
2.717967,2,14,-2,-3,0,0,-1,-1,5
2.725551,-14,-17,12,2,-2,-1,-1,0,5
2.725572,-12,12,-23,-2,0,2,3,3,5
2.740532,6,-11,-8,-3,-1,-2,-3,-4,5
2.740547,11,4,30,2,2,-2,0,-2,5
2.741368,-2,-16,3,3,0,1,0,-1,5
2.741405,4,83,-34,-7,-5,-5,-2,-4,5
2.763372,-16,-114,41,3,0,-1,1,1,5
2.763393,-9,31,-24,-5,-3,0,0,-1,5
2.766400,0,-4,4,0,0,-4,-2,-5,5
2.766404,0,1,-2,-1,-2,-1,-2,-2,5
2.777592,-3,44,-3,1,-1,1,-1,-2,5
2.777615,-3,10,-11,-3,-1,1,0,-3,5
2.786707,5,-6,8,-3,0,-3,-5,-8,5
2.786713,-17,-34,1,-1,-4,0,0,-1,5
2.802774,0,9,-1,-2,-2,-4,-2,-3,5
2.802787,-1,-3,-9,-1,-2,-1,0,-1,5
2.802789,10,-43,-8,-3,-2,-2,-1,-1,5
2.802790,-31,-13,2,0,2,2,-2,0,5
2.823079,17,4,3,-1,-1,-2,0,2,5
2.823094,-6,34,0,1,-3,1,0,2,5
2.824029,20,1,4,0,0,-2,-3,-2,5
2.824040,5,-60,1,0,1,0,-2,1,5
2.837597,-8,14,-9,0,-3,1,0,0,5
2.837624,-34,-27,-6,2,2,-1,2,2,5
2.845071,67,8,-1,-3,-3,-3,-2,-4,5
2.845089,23,11,6,-5,-3,-3,-3,-4,5
2.860943,-7,19,-6,0,-1,-1,0,5,5
2.860967,4,-9,-21,-5,-4,-2,-1,-5,5
2.863173,-23,12,8,0,2,2,1,4,5
2.863180,-5,-11,-1,1,1,1,1,-3,5
2.883798,4,4,-3,-2,0,1,0,1,5
2.883825,19,-7,-6,-4,-2,-1,-2,-1,5
2.884239,-15,3,2,1,0,-1,2,0,5
2.884262,-2,-4,-14,0,1,-1,-1,2,5
2.897324,-11,34,30,3,0,1,-1,-3,5
2.897341,-1,-1,-3,-1,-7,-3,-3,-3,5
2.905011,-36,-10,-7,-1,-2,-1,0,2,5
2.905035,46,-8,-6,-4,1,-2,-2,-5,5
2.920770,-3,-3,-2,-1,-2,0,-1,0,5
2.920793,5,14,-16,-1,4,1,0,0,5
2.921766,-12,3,2,1,0,-1,0,0,5
2.921771,-11,10,5,0,-3,-1,-2,-4,5
2.943180,3,-57,2,-4,0,-1,-1,-2,5
2.943194,10,49,1,1,-1,0,-2,2,5
2.943804,-24,-81,6,0,0,0,-2,-1,5
2.943820,-22,2,6,1,0,1,1,2,5
2.957406,6,6,-20,0,2,0,-1,-1,5
2.957422,5,-16,-6,-6,-8,-6,-2,1,5
2.964920,4,28,-4,-2,0,-1,-2,0,5
2.964941,-16,-11,-2,-1,-5,-2,-2,-3,5
2.980642,12,8,19,2,-1,2,-3,5,5
2.980664,-4,-8,-4,1,0,0,1,1,5
2.981857,-2,-15,0,-2,-1,1,0,1,5
2.981860,-3,-6,-10,-3,0,-2,-1,0,5
3.004577,-29,24,-7,-1,1,0,3,0,5
3.004582,57,-19,6,-1,0,-1,-2,-5,5
3.004584,9,16,-14,-4,-8,-4,-3,0,5
3.004689,-25,13,8,1,2,1,0,3,5
3.020411,-1,-37,-8,-2,1,1,0,2,5
3.020417,31,3,12,-3,-5,-5,-5,-5,5
3.025056,-7,7,-4,1,0,0,0,-2,5
3.025078,-1,7,-3,-2,-1,1,-1,3,5
3.040593,2,7,-7,-2,0,-2,1,1,5
3.040611,-24,-5,-10,-1,-3,-1,-2,-2,5
3.041352,7,14,9,-1,-1,-1,0,-2,5
3.041374,2,9,1,1,0,0,0,1,5
3.063094,-2,-18,-16,-2,-3,-2,-4,-4,5
3.063116,-35,61,-2,-3,2,0,0,-3,5
3.063982,19,-83,29,2,-2,0,0,2,5
3.063987,-4,21,6,0,0,0,-2,-2,5
3.077860,-8,11,-1,1,-2,-2,-1,-2,5
3.077883,-18,-26,-12,0,-1,0,2,-2,5
3.085510,18,19,-8,-3,1,1,-2,-3,5
3.085541,12,-12,-1,-2,-5,-4,-3,-1,5
3.101316,-18,2,-1,-2,-3,1,-1,1,5
3.101359,12,-37,-1,-1,3,0,-1,-2,5
3.103898,-8,58,0,-4,1,-2,-1,0,5
3.103911,-4,-38,-3,-2,-4,1,-1,1,5
3.123182,7,52,3,-1,-3,-3,0,-4,5
3.123198,-20,-31,-5,3,1,1,1,-1,5
3.124575,-6,16,-5,-1,-1,0,0,-2,5
3.124578,9,-14,-4,-1,-5,-2,0,-2,5
3.137594,2,19,10,-1,-2,0,-1,1,5
3.137615,2,-56,-23,-3,-1,-1,-2,-2,5
3.144872,-9,52,56,8,2,0,-3,-3,5
3.144888,7,10,-1,0,-1,-1,0,-3,5
3.160641,4,-22,-13,-4,-1,0,-2,-4,5
3.160666,-1,18,12,-1,-1,-2,0,-2,5
3.162574,5,-23,-18,0,1,0,-1,-2,5
3.162581,-7,-33,-5,-5,-2,-2,-1,-2,5
3.183372,5,6,15,-3,-3,-3,-2,0,5
3.183394,-11,16,-1,-1,-2,1,-1,0,5
3.185618,-16,2,-18,0,-2,1,1,-1,5
3.185625,0,24,14,4,1,1,2,-1,5
3.197506,3,-12,-18,-3,-1,-1,0,-4,5
3.197529,-13,4,12,-3,0,-2,-2,-1,5
3.205207,2,-2,-1,1,2,-1,-1,-3,5
3.205253,30,4,-7,-2,-2,-3,-2,-4,5
3.221742,-14,-16,-6,0,2,-1,2,-2,5
3.221754,22,-7,-1,-4,-6,-5,-3,-2,5
3.221757,-9,4,-12,-3,-2,-1,0,-1,5
3.221759,-14,64,1,-1,2,-1,1,-4,5
3.243283,0,-51,5,1,0,-1,-2,-1,5
3.243305,-3,46,-7,-2,-1,1,-1,-1,5
3.246238,-10,-51,-12,-6,-3,0,0,-1,5
3.246245,-12,18,2,0,0,0,0,1,5
3.268494,16,-2,7,-1,-3,-1,-2,0,5
3.268507,18,-15,-6,-2,-3,-1,0,3,5
3.268508,-12,3,5,-1,-2,-4,0,0,5
3.268511,-13,-13,-1,-1,-1,-1,-1,1,5
3.280924,0,20,0,0,2,0,-1,0,5
3.280964,-9,-7,6,0,0,0,0,0,5
3.283436,6,7,-7,-1,-2,0,0,0,5
3.283440,-23,-19,-1,1,2,1,2,2,5
3.303245,40,20,-3,-5,-4,-4,-5,-10,5
3.303273,-7,0,3,-3,-1,0,-3,2,5
3.303900,1,5,-8,-1,2,2,0,0,5
3.303925,-2,-8,-4,-2,0,-1,-1,-1,5
3.325588,-10,-8,-1,0,-3,0,1,2,5
3.325611,-6,-2,-9,0,1,0,1,0,5
3.326411,3,17,3,0,-1,-1,-1,-4,5
3.326414,31,3,1,-4,-3,-2,-4,-1,5
3.340668,-9,-11,4,1,1,1,0,2,5
3.340689,-11,1,-10,0,3,1,0,0,5
3.341593,-26,-3,-14,-3,-4,-3,-3,0,5
3.341596,21,-16,-1,-2,-1,1,1,0,5
3.363342,-11,18,-5,-2,0,-1,0,-1,5
3.363347,7,-6,8,1,-2,-2,-3,-3,5
3.363675,-5,-20,-15,-2,1,1,0,1,5
3.363682,-15,-29,27,1,-2,-3,-1,-5,5
3.386193,0,16,-5,-2,-5,-2,-1,3,5
3.386217,-5,2,-1,1,2,1,0,5,5
3.387974,12,2,2,-1,-1,-2,-2,-2,5
3.387979,-6,7,-12,-2,2,1,-2,-2,5
3.400790,4,7,-14,-1,1,1,-1,2,5
3.400814,-11,-57,25,2,-1,-2,-3,-3,5
3.403361,-8,10,-8,-1,-4,0,2,1,5
3.403367,53,-19,-12,-2,1,-1,-2,-1,5
3.425575,-19,-2,-4,-1,-4,-2,-1,-4,5
3.425581,0,41,-5,-4,-3,0,-1,-2,5
3.425583,3,-20,-7,-3,0,-2,-2,-1,5
3.425584,-36,7,11,3,1,-1,2,1,5
3.445566,-14,-14,7,0,0,1,1,0,5
3.445585,59,6,-10,-4,-3,-2,-3,-3,5
3.448118,-7,7,7,0,1,1,1,-2,5
3.448122,-11,1,-7,0,-1,0,0,2,5
3.460625,-3,0,5,0,0,1,-2,0,5
3.460647,-15,3,-1,0,1,-1,3,0,5
3.461621,11,-4,-2,-1,-2,-2,-1,-3,5
3.463749,-9,-15,-13,-2,0,0,0,-2,5
3.483694,10,30,15,1,0,-2,0,1,5
3.483711,-31,-9,11,-1,-6,0,-1,2,5
3.485241,30,-24,-6,-4,-2,-3,-5,-2,5
3.485248,-10,10,5,1,-1,-2,0,3,5
3.505734,-3,16,-20,-1,2,1,-1,-3,5
3.505759,-9,-67,9,1,2,1,-1,0,5
3.506371,-5,34,-9,-1,-3,-1,3,0,5
3.506550,11,30,12,-5,-6,-6,-5,-7,5
3.520602,7,-37,3,-2,1,-1,0,6,5
3.520620,-3,32,-4,-1,3,-1,0,-3,5
3.522012,-32,4,1,2,4,3,1,0,5
3.522016,20,-10,-2,-5,-5,-2,-1,1,5
3.543067,15,17,3,-3,-2,-3,-1,-4,5
3.543084,-6,5,-7,-2,-2,-4,-2,-5,5
3.544325,-4,-17,-4,2,1,0,0,2,5
3.544329,-11,-24,3,1,3,0,0,0,5
3.568335,-20,-45,8,0,-2,-2,-1,1,5
3.568356,16,8,-12,-3,-2,-2,0,-5,5
3.568359,5,0,-1,-3,-4,-1,-3,-6,5
3.568362,-8,9,-11,-1,0,0,-1,-3,5
3.580482,-3,-7,-7,0,-1,1,-2,1,5
3.580503,-3,14,0,2,2,0,0,-1,5
3.581474,7,17,-2,-1,0,-3,-1,-1,5
3.581484,-16,-57,-22,-1,3,3,1,-4,5
3.603273,-31,1,42,6,-4,0,2,3,5
3.603294,61,26,-23,-10,-12,-9,-7,-3,5
3.603929,-3,4,6,-2,1,-2,0,-2,5
3.603951,-6,11,-8,-2,-2,-3,-2,0,5
3.625747,-18,-10,-15,-1,3,2,1,-4,5
3.625768,-11,-1,5,2,2,2,2,1,5
3.627135,8,6,3,-2,-4,-1,-2,-1,5
3.627140,-1,4,4,0,-2,0,0,0,5
3.640813,0,6,-4,1,2,-2,0,-3,5
3.640834,-12,15,6,-1,-5,-1,-3,1,5
3.641322,21,-14,-8,-4,-3,-3,-4,-4,5
3.641337,-12,-2,3,2,-1,0,-1,1,5
3.663188,16,29,-7,-2,-1,-3,-3,-2,5
3.663209,-22,82,-20,-1,7,0,4,-2,5
3.663898,-34,-77,48,6,-2,0,2,5,5
3.663920,44,13,-10,-4,-4,-3,-4,-5,5
3.685692,3,-2,-15,-4,-3,-2,-1,-3,5
3.685717,-6,5,4,0,2,0,-2,3,5
3.687345,-11,28,-7,-3,-4,-3,-2,-5,5
3.687354,-9,-2,6,2,0,-1,0,3,5
3.700616,15,-15,-5,-2,-3,-2,-2,-2,5
3.700639,-14,-26,-1,-1,-3,1,-2,-1,5
3.702126,17,12,-1,-3,-1,-2,-1,1,5
3.702137,-6,7,1,-1,-2,-2,1,2,5
3.723972,-2,-14,-2,-3,-3,-2,-1,-4,5
3.723984,2,-35,0,1,2,1,1,1,5
3.723986,-1,38,6,2,1,0,1,1,5
3.723987,4,0,-13,-6,-1,-2,0,-1,5
3.745663,-18,18,16,0,-5,-2,-4,-2,5
3.745688,16,-35,-6,-1,2,1,1,5,5
3.746713,-5,-9,-4,-6,-6,-4,-2,-2,5
3.746717,-12,11,0,1,1,2,-2,-5,5
3.760531,4,37,-18,-3,2,-1,1,0,5
3.760550,0,-39,14,2,-4,1,-1,1,5
3.761545,-3,36,9,2,3,2,1,-1,5
3.761565,-11,20,7,0,1,-1,-2,1,5
3.783278,7,-10,-11,-2,-3,-3,0,-1,5
3.783306,0,6,5,0,-2,-2,-1,-3,5
3.784685,-4,2,-15,-1,0,0,-3,0,5
3.784695,-10,1,1,0,-2,-3,1,-1,5
3.805565,-9,11,2,0,3,2,-2,2,5
3.805587,1,-11,0,-1,0,0,-1,1,5
3.806237,3,-24,-6,-2,-2,0,-1,0,5
3.806251,7,-3,3,-2,-1,-2,-2,-3,5
3.820670,-3,11,-7,-2,-1,-2,2,-2,5
3.820691,-18,-63,7,0,1,-1,-2,0,5
3.822039,2,-18,-14,-2,-2,-2,-2,-3,5
3.822049,-3,33,1,-1,-3,-1,1,-6,5
3.843740,4,-16,16,0,1,3,1,1,5
3.843783,-6,24,1,-4,-2,-2,-1,-6,5
3.845410,-9,-8,-15,0,1,0,-1,4,5
3.845419,3,-18,-15,-3,0,-1,-4,-5,5
3.865454,16,-12,0,1,0,-1,-2,-5,5
3.865471,-14,36,12,1,-5,-2,1,-2,5
3.866149,8,16,-7,-1,-4,-3,0,-2,5
3.866163,-10,-19,-7,-1,1,1,3,3,5
3.880106,-10,-8,14,-2,-6,-3,-5,-4,5
3.880128,17,-3,-13,-2,2,-1,0,-4,5
3.888148,3,-23,-3,-3,-1,-2,-1,-4,5
3.888168,1,23,8,1,0,2,-1,0,5
3.903193,-7,-10,-11,-1,1,0,0,-2,5
3.903214,-27,17,5,-1,0,-2,0,-3,5
3.905429,52,-15,13,-1,0,-1,-2,-6,5
3.905437,-4,-17,-8,-2,-3,-3,-4,-1,5
3.926176,-4,15,-16,-5,0,0,0,0,5
3.926185,3,12,23,2,-2,-3,-4,-2,5
3.926261,-11,72,7,-1,1,0,-1,-6,5
3.926267,-7,-57,8,1,-3,-1,-1,0,5
3.941016,6,-33,-16,-3,-2,1,-1,2,5
3.941021,1,1,-21,-3,1,-1,0,-5,5
3.948548,-13,-20,13,4,4,3,1,0,5
3.948577,3,-11,-9,-3,-4,-3,-4,-2,5
3.963162,5,8,6,-1,-1,-1,0,-2,5
3.963185,15,-7,-10,-1,2,-2,-1,-4,5
3.963933,-16,5,1,-1,-2,-1,-1,2,5
3.963936,-9,4,-3,0,0,0,0,-3,5
3.987277,-5,-8,-12,-2,-4,-4,-4,-4,5
3.987286,5,-2,7,-1,-2,1,-1,3,5
3.987288,10,-13,-14,-3,-3,-1,-4,-2,5
3.987290,-5,18,4,-1,3,0,-1,1,5
4.000267,2,2,-7,2,3,1,-1,-1,5
4.000290,-1,-17,-9,0,0,0,0,-2,5
4.008282,-27,47,15,1,-3,-2,0,-3,5
4.008369,-3,-16,6,0,1,2,1,2,5
4.023117,38,-5,-1,-3,-2,-2,-3,-5,5
4.023134,-12,-48,-1,-3,-2,0,-2,1,5
4.023787,4,-14,-9,-1,-2,-1,-1,0,5
4.023803,-9,6,-10,-4,-1,-4,1,-4,5
4.045530,-13,9,9,4,4,0,-1,-3,5
4.045546,4,13,4,-6,-9,-3,-4,0,5
4.046327,-2,-25,-13,1,1,0,-1,5,5
4.046331,2,27,8,1,2,1,0,-1,5
4.059945,-13,-22,10,1,2,0,0,5,5
4.059966,3,11,-7,-1,-4,-2,0,0,5
4.068715,-10,35,-5,0,1,-1,-1,2,5
4.068748,-21,-35,-2,2,0,0,-1,0,5
4.083141,23,16,3,-6,-8,-4,-3,-3,5
4.083156,18,-20,-11,-5,-1,-1,-1,1,5
4.083759,-6,-3,5,0,0,-3,-1,-4,5
4.083773,-7,11,7,0,0,-3,0,-1,5
4.105746,-12,-9,-3,2,1,0,-1,1,5
4.105767,-14,-28,1,2,1,0,-1,-2,5
4.106922,23,-24,-13,-3,-2,0,3,2,5
4.106926,-11,30,20,1,-1,-1,-5,1,5
4.120138,4,-24,-2,-2,-3,-1,0,-3,5
4.120160,-17,38,-16,-2,0,0,-1,-1,5
4.128168,16,0,11,-2,2,0,-3,-4,5
4.128191,31,43,-2,0,0,1,2,1,5
4.143352,-20,-70,-2,-1,-6,-3,-6,-4,5
4.143378,-4,45,3,1,1,0,1,1,5
4.144236,-13,-29,-14,-2,0,1,-1,-2,5
4.144265,-1,36,-18,-4,-5,-3,-2,-5,5
4.165876,-7,-4,17,0,0,-1,0,0,5
4.165908,-3,-14,-3,0,-4,-1,0,2,5
4.168880,1,-25,1,-1,-3,-2,-3,-2,5
4.168895,3,-9,-8,-3,-2,-1,-2,-2,5
4.189879,-5,31,-10,-4,-2,-2,-2,0,5
4.189886,-7,-14,1,0,1,0,-2,-1,5
4.189888,-7,15,-7,2,0,2,2,0,5
4.189890,2,-19,18,-4,-7,-4,-3,-1,5
4.205187,7,9,-4,-2,0,-2,1,1,5
4.205194,9,4,4,-1,2,0,-1,-3,5
4.205197,-11,6,-3,0,4,1,-1,0,5
4.205199,5,3,-15,-1,0,0,-1,-5,5
4.225547,-5,33,8,-2,-4,1,0,-1,5
4.225562,2,51,-9,-3,-1,-1,0,-1,5
4.226245,-20,-60,6,-1,0,0,1,-5,5
4.226343,23,-47,-2,-1,0,0,-3,2,5
4.248980,3,16,22,2,0,-1,-1,3,5
4.249008,-4,18,-1,-3,0,0,-3,-5,5
4.250947,0,-7,-12,-2,-5,-4,-3,-5,5
4.250951,-2,36,12,2,0,-2,-1,1,5
4.263201,-13,-40,-12,-1,1,1,1,3,5
4.263224,7,-27,-1,-2,-1,-2,0,-2,5
4.264901,-3,16,2,-2,-7,-3,-4,-2,5
4.264908,-7,-17,-6,0,3,0,0,0,5
4.285687,13,29,-1,2,4,1,0,-6,5
4.285714,-6,-70,3,-2,-10,-5,-1,0,5
4.286491,-7,24,11,-3,-3,-1,-1,1,5
4.286510,-2,21,-13,0,-4,-3,-1,1,5
4.308821,-14,-3,19,2,3,1,1,0,5
4.308839,9,1,-9,-1,2,0,-1,-3,5
4.310204,4,20,-26,-1,2,0,-2,-4,5
4.310208,-16,-62,30,4,0,0,1,-1,5
4.323156,-3,8,-22,-4,-6,-3,-2,4,5
4.323176,-11,18,2,1,1,-1,-1,-2,5
4.324264,17,-14,-3,-3,-1,-3,-1,-1,5
4.324268,-9,18,-10,-1,-1,0,-1,-4,5
4.345454,-9,-6,-20,-1,2,0,1,0,5
4.345467,5,-3,16,-1,-10,-5,-4,1,5
4.346246,-1,-27,-7,-3,0,-1,-1,3,5
4.346272,-2,27,-2,-5,0,-2,-2,-12,5
4.368834,-8,-8,1,1,-4,1,0,2,5
4.368858,-8,10,-4,0,4,3,-1,3,5
4.370178,19,8,7,0,-2,-4,-3,0,5
4.370185,-7,3,-12,-3,-3,-1,0,-2,5
4.383094,4,-16,-12,-1,-1,-1,0,3,5
4.383112,-5,23,-5,-1,2,-2,1,-4,5
4.384092,-12,12,17,1,0,-1,0,2,5
4.384098,-5,-43,-4,0,1,1,0,2,5
4.405879,9,18,0,-1,2,-1,-2,-4,5
4.405907,-4,-16,-3,0,1,0,-1,-2,5
4.407331,11,29,5,-1,-3,0,3,1,5
4.407336,12,-70,-4,-3,-3,-4,-4,0,5
4.428673,-12,33,11,3,1,-1,-2,1,5
4.428689,9,32,-4,-2,0,0,-2,-1,5
4.429646,-15,-35,25,6,2,2,-1,1,5
4.429689,3,13,-8,-3,-4,1,0,4,5
4.443161,2,12,-9,-2,-1,-1,-1,-4,5
4.443183,-3,-16,0,-1,0,-1,0,-2,5
4.444191,-7,-2,-10,-4,-1,-2,-4,-1,5
4.444275,-4,4,2,0,0,1,-2,0,5
4.465574,-7,7,-8,-4,1,-2,-2,-1,5
4.465595,-6,-10,1,-2,-3,0,-1,-2,5
4.467580,-3,-7,-7,-3,-1,2,1,1,5
4.467588,22,14,-9,-1,-1,0,-2,0,5
4.488824,10,16,-3,-3,-4,-3,-2,-5,5
4.488846,-6,6,17,4,2,0,-1,5,5
4.489605,7,-2,-11,-4,-3,-4,-2,-6,5
4.489624,-6,-10,3,0,1,2,2,0,5
4.503284,-3,9,-7,-2,-1,-1,-1,-2,5
4.503295,6,-4,1,0,-1,-1,0,1,5
4.503843,-16,58,-18,-3,1,-1,2,-3,5
4.503975,-4,-32,25,4,0,0,-1,-2,5
4.526225,25,-19,5,-4,-4,-1,-1,1,5
4.526245,-11,-13,-3,-1,-2,0,0,-3,5
4.528279,10,-2,-7,-3,0,-1,1,4,5
4.528283,-1,38,-9,0,0,-1,-3,-1,5
4.549132,-13,-41,0,0,1,0,-2,-3,5
4.549140,-17,45,1,0,-2,-3,-3,2,5
4.549527,6,14,-6,-3,-5,-4,-2,-3,5
4.549609,10,-27,-1,-2,-7,-1,-1,-1,5
4.565067,-8,23,-5,-1,-3,-2,0,-3,5
4.565077,4,9,-6,0,-1,1,0,1,5
4.565079,9,-32,12,3,4,2,-2,-4,5
4.565081,-4,-12,-3,-2,-1,-2,0,3,5
4.585891,-7,37,1,-1,-4,-5,-1,-3,5
4.585919,-1,-46,-12,-5,-1,0,1,-2,5
4.587896,-15,-15,9,2,-2,-2,-1,-2,5
4.587903,10,33,-16,-4,-1,-1,1,-3,5
4.609214,-18,-93,29,5,4,2,-4,0,5
4.609243,35,3,-8,-3,-1,-2,-1,-2,5
4.611524,-12,4,-3,-1,-1,-1,-3,-2,5
4.611528,-11,-50,-2,-3,-2,-2,0,0,5
4.623172,-10,18,-11,-4,-3,0,0,1,5
4.623189,22,-5,14,2,1,-2,-3,-4,5
4.624844,-5,-1,-8,-4,-4,-4,-4,-6,5
4.624848,-17,23,2,-1,0,-2,-3,-3,5
4.645607,3,-2,8,0,2,0,1,-2,5
4.645628,-15,-11,5,1,2,3,0,0,5
4.646246,1,24,-10,0,-1,-2,0,2,5
4.646261,-10,1,1,-2,-4,-2,-1,-5,5
4.669051,-1,2,3,-3,-1,-4,-6,-2,5
4.669072,-8,10,-11,1,1,1,0,-1,5
4.671311,2,-27,14,-3,-4,-4,-6,2,5
4.671320,-5,-54,-6,-4,-2,0,0,-2,5
4.683759,4,2,-3,-1,-1,1,0,-1,5
4.683803,-27,-3,-12,-2,2,-1,0,-3,5
4.686294,15,5,2,1,1,1,2,-2,5
4.686305,1,21,-2,0,-1,-1,-2,-2,5
4.705743,7,-9,-15,-3,3,-1,0,0,5
4.705762,5,-52,28,1,-2,-1,-2,1,5
4.706510,-14,17,6,-2,-9,-2,-1,1,5
4.706528,11,6,-19,-1,2,0,0,3,5
4.728908,-3,6,-3,0,-2,0,0,-2,5
4.728936,-6,20,-13,-5,1,-2,-2,-2,5
4.730062,-1,-21,-3,0,2,2,0,-2,5
4.730071,-11,18,11,2,2,0,1,1,5
4.743269,-2,20,-6,1,-1,-1,1,-2,5
4.743292,7,-31,3,-4,-5,-2,-5,-2,5
4.744434,7,30,-13,-1,2,-1,0,-2,5
4.744439,-8,-32,29,4,-2,-1,-2,-3,5
4.765744,-6,40,-10,-7,-4,-2,0,-3,5
4.765748,-1,-3,-7,-4,-4,-2,-1,-1,5
4.766324,-7,46,11,-1,4,2,1,0,5
4.766361,-3,19,-12,-1,2,-2,2,-2,5
4.789013,5,-34,-2,2,1,0,-1,0,5
4.789074,-4,4,-3,-1,1,-1,1,3,5
4.790516,-13,-15,18,-1,-1,0,1,-4,5
4.790527,4,-4,-8,-2,-1,0,0,-2,5
4.802544,20,-40,-5,-4,1,-1,0,0,5
4.802574,-9,27,14,4,1,0,-1,-2,5
4.810652,-12,-5,0,-3,-5,-4,-3,-2,5
4.810672,24,-6,-9,0,3,-1,-2,0,5
4.825730,-6,76,-5,-5,-6,-4,-5,-9,5
4.825754,1,-53,0,0,1,1,3,1,5
4.827138,-17,7,-3,-1,2,0,-1,0,5
4.827149,15,11,-4,-1,-6,-4,-3,1,5
4.848830,-3,-1,4,2,4,2,0,3,5
4.849982,3,22,-9,0,0,-4,-2,-2,5
4.849986,6,-24,-8,-2,-2,0,0,1,5
4.849988,-15,26,5,-2,0,1,0,-1,5
4.862490,4,-35,-16,-3,-1,-1,-2,0,5
4.862514,0,-6,16,-1,-2,-2,-2,-4,5
4.870731,0,-62,17,5,3,0,1,7,5
4.870754,-13,2,-6,-5,-9,-3,-3,-2,5
4.885904,17,-5,-17,-4,-4,0,-1,0,5
4.887356,-8,16,-11,-2,-2,-1,-3,-5,5
4.887362,6,-7,-26,-2,2,2,-1,-3,5
4.887364,3,3,16,-1,-2,-1,-2,3,5
4.908747,-3,-1,8,0,-2,-2,-2,0,5
4.908762,3,11,-13,0,-2,0,2,2,5
4.909354,-7,44,-19,-1,2,4,0,1,5
4.909382,14,-90,44,7,6,3,0,3,5
4.922715,-18,11,5,-5,-12,-5,-2,-7,5
4.922731,11,2,-9,-4,-2,-1,1,2,5
4.931010,-8,3,5,1,-2,-4,0,-4,5
4.931031,-4,34,-21,-2,2,-1,0,-4,5
4.946392,10,-21,4,4,5,1,1,3,5
4.946419,-7,-7,6,-1,-4,-1,-2,-3,5
4.947590,-7,18,2,-3,-2,1,-1,-5,5
4.947593,4,15,-12,-2,1,-1,-3,-1,5
4.969126,-12,-29,9,1,2,-1,0,-2,5
4.971470,-5,63,-17,-3,-2,-1,-1,-4,5
4.971494,13,-95,22,2,-4,-3,-4,6,5
4.971498,-20,53,-16,-6,-4,-5,-4,-5,5
4.982356,1,-17,-3,-1,1,0,-1,3,5
4.982378,-5,4,-2,-2,0,2,-2,-4,5
4.990606,3,21,-3,-1,1,-2,0,-3,5
4.990623,-3,-8,-3,-1,-3,0,0,-5,5
7.007521,4,0,-1,0,-2,-2,0,1,0
7.007841,-2,-11,-2,-2,0,-1,-1,2,0
7.017143,2,13,-3,0,-3,-2,-2,-1,0
7.017188,1,-4,0,-2,0,-1,0,1,0
7.032672,-3,1,0,0,0,2,-2,-2,0
7.032683,1,-4,0,0,-1,0,0,2,0
7.032905,8,-5,0,-2,0,-2,-2,-2,0
7.032947,0,2,-1,-2,1,-1,1,-1,0
7.053862,-2,2,0,-1,-1,0,0,-2,0
7.053885,0,1,-1,1,1,-1,1,-3,0
7.055404,2,1,-1,-2,1,-1,-1,2,0
7.055416,-4,-1,-1,-1,-2,-1,0,1,0
7.076420,-11,-6,-3,-2,-1,-2,-2,-2,0
7.076441,2,-2,0,-1,-2,-1,-1,2,0
7.078444,-8,0,0,0,-2,-1,-1,-2,0
7.078452,-3,0,-5,-3,-1,-1,-5,-2,0
7.091705,15,-11,0,-1,-2,-1,-1,-2,0
7.091742,-5,12,-3,-1,-2,0,-2,-1,0
7.093414,-2,-2,0,-1,-1,0,-3,4,0
7.093420,11,11,0,-2,-1,-1,1,1,0
7.113734,-14,-5,-1,-2,-2,0,-1,-2,0
7.113755,1,-7,-1,1,-1,-2,-2,-1,0
7.115179,3,0,-1,0,-1,1,0,-1,0
7.115211,14,4,0,0,-1,0,-1,-1,0
7.136561,-21,-11,-1,-1,-2,0,-3,1,0
7.136591,8,-3,-1,0,-1,-1,-1,1,0
7.138335,3,0,-5,0,-2,-1,-1,-2,0
7.138342,2,-4,2,-1,-1,-2,1,0,0
7.150950,3,0,0,0,-2,-3,1,2,0
7.150985,-2,13,-1,1,-1,-1,-1,0,0
7.157474,-6,-18,1,-2,1,-1,0,0,0
7.157497,-9,-1,-3,-1,-2,1,0,4,0
7.173734,12,7,-1,-3,0,-1,-2,-2,0
7.173744,8,-5,-2,-1,-1,-2,-1,-1,0
7.175219,0,15,-1,-1,-1,-3,0,1,0
7.175231,-23,-14,-2,-1,-1,-1,-3,-2,0
7.196506,15,9,1,0,-1,-3,-1,0,0
7.196527,-6,-18,-4,-1,-1,-1,0,-3,0
7.198755,-5,5,1,0,0,-1,0,-2,0
7.198758,4,-12,-1,-2,-2,-2,-1,-4,0
7.210986,5,9,-1,-2,-3,-3,0,-4,0
7.211008,-11,-17,0,-1,-1,0,-2,-1,0
7.217389,19,7,-1,-1,0,0,-1,0,0
7.217406,3,3,0,-1,0,-3,0,-3,0
7.236202,-27,-25,-5,0,-1,-2,-3,-6,0
7.236210,1,11,0,-2,-4,-1,1,-3,0
7.236213,-3,-1,-1,-2,-3,0,0,-1,0
7.236215,1,6,0,-1,0,0,-1,-1,0
7.256442,1,5,2,0,0,-1,-3,1,0
7.256459,-10,1,-1,-1,-1,-2,0,0,0
7.257771,2,-4,-1,1,0,-1,-1,-2,0
7.257847,-5,5,0,0,-2,0,-1,-3,0
7.270691,3,-2,-1,0,0,-1,0,-3,0
7.270713,6,-11,1,0,1,-1,-2,-2,0
7.277642,0,7,-2,-1,-1,-2,-2,-3,0
7.277660,-12,1,-5,-4,-3,-2,-2,-2,0
7.293927,3,5,0,0,-1,0,0,-1,0
7.293949,-6,7,0,0,-1,0,1,0,0
7.296097,6,-16,0,-1,-1,-2,-1,1,0
7.296105,4,4,2,2,0,-1,-2,2,0
7.316886,-2,-2,-2,-2,-1,0,-2,-3,0
7.316913,-4,-5,-1,1,-1,-1,-2,1,0
7.320062,-8,16,-2,-1,-2,-1,-4,0,0
7.320067,0,-5,-1,-2,-1,1,-1,-1,0
7.330590,0,5,0,-1,-3,0,-1,2,0
7.330612,3,-4,1,0,0,0,-2,-7,0
7.337479,-7,-7,0,-1,0,0,0,-3,0
7.337530,0,-6,0,1,0,-3,-1,0,0
7.354027,1,0,-1,-1,-1,-1,0,1,0
7.354052,6,-4,0,-1,1,-2,0,0,0
7.356586,-19,16,-3,-1,-1,-3,-1,-3,0
7.356594,2,-3,0,-1,-1,-2,0,1,0
7.376414,0,-3,-2,-1,0,-1,-1,0,0
7.376432,-5,0,-1,-1,-1,0,-3,2,0
7.377881,8,-3,0,-1,-1,0,-1,3,0
7.377898,14,-1,-2,-2,0,-1,0,-1,0
7.390589,-14,7,-2,-1,-1,-2,0,0,0
7.390606,-4,5,-3,-1,0,-1,-2,1,0
7.397336,-1,-11,-3,-1,0,-1,-2,0,0
7.397354,-8,-4,1,0,-3,-1,1,-1,0
7.413757,5,-2,0,-2,-1,-1,0,-2,0
7.413778,3,-7,-1,0,-1,-2,1,-3,0
7.415187,2,7,-2,-2,-2,1,-2,1,0
7.415224,-7,-3,-1,-1,0,-1,-2,1,0
7.436606,3,-4,1,-2,0,-1,-1,0,0
7.436611,-4,6,-2,-2,-3,0,0,1,0
7.437897,-3,-25,-1,-1,-1,-1,-2,1,0
7.437917,5,3,-3,-2,0,-1,-3,1,0
7.451492,4,4,-1,-2,-3,-1,-1,-3,0
7.451506,2,2,0,-1,-1,-1,-1,0,0
7.460933,7,0,0,-2,-2,-2,-2,-1,0
7.460939,-8,-9,1,0,1,0,0,2,0
7.473740,-21,-5,-1,-2,0,-2,-3,0,0
7.473756,-1,-1,-4,-1,-1,-2,-2,-2,0
7.475308,15,-7,2,1,-3,-2,2,-1,0
7.475322,-8,6,1,2,-1,-2,0,1,0
7.496868,1,23,-4,-1,0,-3,0,-4,0
7.496874,0,-9,-3,-3,-2,-1,-1,1,0
7.497748,0,-2,-2,-1,-1,-1,-2,-4,0
7.497758,-15,-1,0,-2,-3,-1,1,1,0
7.511190,3,-2,0,1,-1,0,0,3,0
7.511212,-2,5,0,-1,1,-1,-3,-3,0
7.517437,-8,-2,0,-1,0,0,0,1,0
7.517510,0,-4,0,-1,0,1,-1,-2,0
7.534251,0,-1,-1,-1,-2,-2,-1,0,0
7.534278,2,-6,0,-1,-2,1,-1,-3,0
7.537178,-16,-10,-2,-1,-1,0,-2,0,0
7.537189,7,-4,-2,-3,-1,-1,-1,-2,0
7.556394,-7,28,-2,-1,-1,-1,-2,1,0
7.556415,24,2,-1,0,1,-3,-1,1,0
7.558484,-25,-6,-1,-1,-2,-2,-1,-6,0
7.558488,1,-1,-1,-1,-1,-1,-2,-2,0
7.570241,4,-12,0,-1,-2,-2,-1,-1,0
7.570258,-4,1,-1,-2,-2,-2,-1,-2,0
7.581238,8,10,-2,0,0,-2,0,0,0
7.581244,-1,-3,-2,1,0,-1,-2,-1,0
7.594011,3,-12,-1,-2,1,-2,-1,-3,0
7.594291,-7,-3,1,1,-1,-1,1,0,0
7.595503,15,12,-1,-2,0,0,-1,2,0
7.595648,-23,-16,-5,-4,-1,-4,-3,-8,0
7.616651,1,-4,-2,0,-1,-1,-2,-1,0
7.616680,-6,-2,-1,0,-2,0,-1,0,0
7.619501,3,1,1,-1,0,-3,1,1,0
7.619512,7,6,1,-2,-2,-1,0,0,0
7.629844,-1,-6,-2,0,1,0,1,-1,0
7.629867,-7,-3,1,-1,0,-1,-1,-4,0
7.640045,17,-8,2,1,1,-2,0,0,0
7.640051,-26,36,-3,1,-3,0,-4,0,0
7.653969,-9,-22,1,0,0,-1,1,-4,0
7.653982,3,-2,-3,-3,0,-2,-3,-1,0
7.655505,0,1,0,-1,-1,1,-2,-3,0
7.655524,11,-6,2,-1,1,0,-1,0,0
7.676748,3,-1,0,0,-1,0,-2,0,0
7.676777,-9,1,-2,-1,0,-1,-2,-1,0
7.678614,0,1,-1,-1,-2,0,-1,-2,0
7.678622,7,-10,1,1,-1,-2,-1,-1,0
7.689996,-4,5,0,-1,-3,0,-1,0,0
7.690011,0,-4,-1,-1,-1,-2,-1,-1,0
7.700731,-4,-3,-3,-1,-3,-2,-1,-3,0
7.700735,15,0,0,-2,-1,-1,1,-1,0
7.716168,-8,-2,1,-1,-1,-1,-2,1,0
7.716172,-15,1,-2,-2,-3,0,-3,-4,0
7.716174,-3,-7,-3,-2,0,-1,0,1,0
7.716175,-12,-2,-3,0,0,0,1,0,0
7.736499,10,-7,3,0,0,-1,-2,1,0
7.736524,3,9,-2,0,-1,-1,1,2,0
7.738357,-7,-16,-3,-1,-1,0,-2,-1,0
7.738362,6,-6,-1,-2,-2,-1,-1,0,0
7.750771,2,0,-1,-1,1,-2,-2,-1,0
7.750796,-1,3,2,1,-1,1,-1,2,0
7.759310,0,8,-2,-1,-1,-2,-1,-1,0
7.759317,-5,6,0,-1,0,-1,1,-1,0
7.773858,16,-4,-1,-1,-1,-1,0,0,0
7.773882,-9,-17,-1,0,0,-2,-3,-1,0
7.775805,-13,39,-1,-2,-1,-1,-1,-2,0
7.775809,15,-7,0,-1,-1,-1,-2,0,0
7.796226,-2,-4,-2,-3,-3,-1,0,-3,0
7.796243,13,4,1,0,0,-1,0,0,0
7.797810,-2,-4,1,0,0,0,-2,0,0
7.797834,-2,1,-2,-1,0,0,-1,0,0
7.809874,-3,3,0,1,-2,-2,-1,-1,0
7.809885,5,3,-1,0,0,-1,-1,0,0
7.821536,-11,-9,-2,-1,-3,0,-2,0,0
7.821546,2,-2,-3,-1,0,0,-2,0,0
7.834419,-1,-3,-1,-1,-2,0,-1,1,0
7.836705,-10,-3,0,-2,-2,0,-2,1,0
7.836717,17,4,-1,-1,1,-2,-2,-2,0
7.836719,-2,-6,-1,-1,-2,-1,0,0,0
7.856338,-9,5,-1,-1,-2,0,-1,-1,0
7.856390,-4,0,-1,0,-1,0,2,1,0
7.857817,8,-6,-3,-3,0,-1,-1,0,0
7.857832,-1,2,-2,-2,-1,0,-2,1,0
7.871085,2,-13,-1,0,-1,0,-2,-5,0
7.871093,-5,-2,0,-2,-2,-1,-1,-2,0
7.879925,-12,-3,0,1,-1,0,-1,0,0
7.879931,16,-5,-1,-1,0,0,-2,0,0
7.893990,-12,7,-2,0,-1,1,-2,3,0
7.896165,2,-1,0,-3,-1,-3,-1,-1,0
7.896171,-4,-6,-1,0,-2,0,-2,1,0
7.896173,6,1,1,0,-2,-2,-1,0,0
7.916291,-25,4,-7,-1,-1,-2,-3,-2,0
7.916314,9,1,-2,-2,0,-1,-1,-3,0
7.918438,-14,-3,1,-2,1,-2,1,-1,0
7.918442,-3,2,0,-2,0,-4,-2,-1,0
7.930479,0,-8,-1,-3,-1,-2,1,-1,0
7.930517,-3,-1,-1,-1,-3,-2,-2,1,0
7.938984,-1,-2,-2,1,-1,0,-1,-1,0
7.939001,-1,0,-3,-1,-1,0,-2,-1,0
7.954021,4,-1,-1,-1,1,0,0,2,0
7.954043,1,1,-2,-2,-1,-1,-1,-3,0
7.955426,2,-2,0,0,-2,0,0,2,0
7.956789,-3,-5,-1,-2,-2,-2,-1,-2,0
7.976381,-2,4,-1,0,-1,-1,-1,-2,0
7.976404,1,-1,0,-2,-1,-1,-1,-1,0
7.978851,-1,-3,1,0,-1,-2,-1,-3,0
7.978857,-7,-4,0,0,1,-1,0,1,0
7.998660,13,1,-1,-2,-1,0,-2,-1,0
7.998695,-1,5,-2,0,-1,-1,-1,-4,0
8.000192,1,-3,-1,-2,0,-2,-3,-3,0
8.000214,-5,-1,-2,-1,-1,-1,0,-3,0
8.014212,0,-1,2,-1,-3,-2,-1,-3,0
8.014217,2,-5,0,1,-1,1,0,0,0
8.015218,9,5,-2,-2,-1,-1,-3,-1,0
8.015294,0,-2,0,-1,-2,1,-1,-4,0
8.036442,-6,1,-1,0,0,-1,0,0,0
8.036465,-14,17,-4,-2,-1,-2,-3,-1,0
8.038162,-1,-4,0,-1,-1,-1,2,-2,0
8.038168,1,-2,-1,-1,0,-3,-1,0,0
8.059058,7,5,-1,-1,-2,-1,-2,1,0
8.059064,0,-1,-2,-1,1,1,0,0,0
8.060282,1,-4,0,-1,0,-1,0,-1,0
8.060301,-26,6,-2,-2,-1,-1,-3,0,0
8.074804,3,-11,-3,-2,-2,-2,-3,-3,0
8.074810,1,-5,-4,-3,-1,-1,0,-3,0
8.075276,0,0,-3,-1,-1,-1,-1,0,0
8.075286,4,-4,-1,0,-2,-2,0,-1,0
8.105699,-4,2,0,-2,1,-2,-1,-2,0
8.105708,-8,-9,-1,1,-1,-2,-1,-1,0
8.105710,24,10,2,0,-1,0,-1,2,0
8.105712,-17,-3,-7,0,-2,-2,-4,-3,0
8.118796,-4,10,-3,-1,-3,-1,-1,2,0
8.118825,0,-11,-1,0,-1,-1,-2,-1,0
8.121178,-1,3,0,-1,-1,1,0,-1,0
8.121191,1,1,0,0,-3,-1,-1,-1,0
8.133343,7,-2,1,-1,2,1,1,0,0
8.133371,6,-1,0,0,0,-3,0,-1,0
8.140108,-18,-2,-2,-1,-2,0,-1,-2,0
8.140132,3,0,-1,0,1,-2,-1,1,0
8.156458,5,-11,1,-1,-3,1,0,-3,0
8.156478,-9,12,-2,0,-2,0,-1,-1,0
8.157856,-5,-6,-2,-1,1,-1,-1,1,0
8.157873,4,-1,0,-2,-2,-1,-1,-2,0
8.178698,-1,0,-1,1,-1,-2,0,2,0
8.178715,4,-8,-1,-1,0,-1,-1,0,0
8.180178,-5,-2,-2,-1,-1,0,-1,-2,0
8.180186,-2,-3,-2,-1,0,0,-1,0,0
8.193326,-2,2,0,0,-1,-1,-2,-1,0
8.193346,3,-1,0,-1,-3,-3,0,-2,0
8.200013,-2,-2,0,-1,-3,-3,-1,2,0
8.200030,4,-18,2,1,0,1,0,0,0
8.216218,-13,41,-2,-5,-2,-2,0,-1,0
8.216228,0,-27,-5,-4,-3,-1,-4,-1,0
8.218031,0,-5,0,-1,-1,-1,0,-1,0
8.218051,1,0,1,1,0,0,2,-2,0
8.238943,3,-6,1,0,0,-2,-1,-1,0
8.238968,-3,6,1,1,-1,1,0,3,0
8.240389,1,2,-1,-1,-1,-3,-2,0,0
8.240396,0,-4,1,-1,-2,0,-2,0,0
8.253417,1,-13,-2,0,0,1,-2,0,0
8.253443,1,6,0,-2,0,0,0,-4,0
8.261630,-1,-8,0,-1,0,-1,-2,0,0
8.261637,-1,7,-2,-1,-1,-1,-1,1,0
8.278231,4,-2,-1,-1,-1,-1,-1,2,0
8.278238,16,-4,1,0,-1,0,-1,1,0
8.278241,-16,-6,-1,-1,-1,-1,-1,-1,0
8.278242,13,3,-3,-3,-3,-1,-3,0,0
8.298741,-20,-4,-3,-1,-2,0,-1,-2,0
8.298763,7,1,1,1,-1,0,0,3,0
8.300601,2,5,-1,-2,-1,0,-1,2,0
8.300606,-4,15,0,-1,-1,-1,0,1,0
8.313039,7,-11,0,0,0,1,0,-2,0
8.313055,-6,5,-1,0,-1,0,-1,0,0
8.320203,-3,-3,0,-1,-1,-1,-1,-2,0
8.320225,-3,1,0,0,-2,-1,-2,-3,0
8.336377,-1,-7,-1,0,-2,-2,0,-3,0
8.336394,-8,13,-4,-2,-2,-3,-4,-1,0
8.338083,5,-3,-1,-2,-2,0,-1,-2,0
8.338122,5,-3,-2,-3,-1,0,0,0,0
8.358928,0,-12,0,0,1,-2,-1,-3,0
8.358949,1,-5,0,0,-2,-1,1,0,0
8.360206,-9,21,0,-1,0,1,0,-2,0
8.360227,5,-21,0,1,-1,0,-1,-1,0
8.381195,12,-3,-2,-1,-1,-1,-1,-3,0
8.381210,-11,-6,-2,-1,-1,-2,-2,-4,0
8.382662,6,-2,-1,0,0,-2,-2,0,0
8.382669,-9,0,0,0,0,-1,1,-2,0
8.396190,-3,3,1,0,-3,-3,-1,0,0
8.396213,-2,1,-2,-1,-1,0,0,-1,0
8.397676,1,-6,-3,0,0,-3,-2,0,0
8.397711,-2,5,-3,-3,-1,-3,-3,-1,0
8.419317,-1,-6,0,0,0,0,-1,-1,0
8.419349,8,8,-2,-2,-1,-1,-1,1,0
8.420499,-7,-4,-1,-1,-1,2,0,0,0
8.420527,-3,-3,-3,1,-1,-2,0,0,0
8.433134,1,1,-1,-1,-1,-1,1,0,0
8.433151,-3,-3,0,-2,-2,-1,-2,-3,0
8.440009,3,-1,1,0,-1,-1,0,-2,0
8.440033,12,7,-1,-1,-1,0,-3,-2,0
8.456381,-13,3,0,0,0,-3,-1,0,0
8.458275,-13,-6,-2,-1,-1,0,-1,-2,0
8.458281,4,-2,-1,-2,1,-2,-1,0,0
8.458283,-2,-1,-2,-1,-1,0,0,-1,0
8.478687,-1,3,2,-1,1,-2,-2,-1,0
8.478699,13,0,-3,-2,-1,-1,1,-2,0
8.480120,-7,-3,-2,-1,0,-2,-1,-2,0
8.480132,-4,1,0,-2,-1,-1,0,0,0
8.494212,-1,0,-3,-2,-2,0,-1,0,0
8.494216,-12,-6,2,-2,0,-1,-1,-3,0
8.503044,4,-7,1,1,-2,-1,0,0,0
8.503054,5,9,1,0,0,-1,0,-1,0
8.516645,-24,-30,-7,-4,-3,-1,-3,-3,0
8.516676,1,-3,-1,-2,1,-2,-1,0,0
8.518307,3,3,0,-3,0,0,-1,-2,0
8.518366,-1,-8,1,0,1,-2,-1,0,0
8.538976,7,10,0,0,-2,1,0,1,0
8.539013,1,2,-2,1,-2,-1,-2,0,0
8.540391,-4,-8,-2,-2,0,-2,0,-1,0
8.540396,-3,2,-1,-1,0,0,0,-2,0
8.552825,6,3,-3,-3,0,0,-1,-1,0
8.552847,-3,-4,-1,-1,0,0,-1,-3,0
8.562518,1,1,-2,-1,-3,0,1,-1,0
8.562524,-8,-3,-2,-1,0,-2,-1,0,0
8.576381,1,0,0,-2,-2,-2,0,-1,0
8.576400,1,-2,0,1,0,-1,0,-2,0
8.577921,-3,1,1,0,1,-1,-2,-2,0
8.577943,-7,-4,-1,-3,-1,0,0,0,0
8.598834,0,-2,0,1,-3,-1,0,0,0
8.598855,3,1,-4,-2,0,0,-1,1,0
8.600552,-1,-10,-4,-1,-2,-1,-2,2,0
8.600560,-2,14,-2,1,-1,0,-1,1,0
8.612332,3,-11,0,-1,0,-1,-1,-2,0
8.612353,-6,5,2,-1,-2,0,-1,-3,0
8.621373,5,5,1,1,-1,-2,-1,0,0
8.621391,-12,-9,-1,-1,-2,0,-1,2,0
8.636268,-9,11,-3,-1,0,-1,-1,1,0
8.636285,4,-6,0,-1,-1,0,-1,1,0
8.637914,-6,-5,0,-1,0,-1,-2,-2,0
8.637940,2,-2,-1,-1,-2,2,-1,-1,0
8.659521,4,-1,-1,0,-2,-1,0,0,0
8.659550,-8,-3,-1,-1,0,0,-2,1,0
8.661294,4,3,-4,-3,-1,-2,-2,1,0
8.661297,1,-7,1,0,-1,-2,0,1,0
8.672534,0,14,-2,-1,0,2,1,1,0
8.672549,9,4,0,0,-1,1,-2,0,0
8.681948,-32,-4,-1,-1,-1,-1,-1,-3,0
8.681952,3,-5,-2,-1,-4,-2,-2,-3,0
8.697217,-1,2,0,2,0,0,-1,-1,0
8.697224,0,-1,1,-1,-2,-4,0,-2,0
8.697696,6,3,-1,-2,0,-1,-1,0,0
8.697703,-2,2,-2,-2,0,-2,-1,-2,0
8.718939,1,-7,1,-2,-1,-3,0,-4,0
8.718961,-4,-5,-1,0,0,0,1,1,0
8.721017,8,12,-1,-3,-1,0,-2,1,0
8.721023,-5,-9,-3,-4,-1,0,-4,-2,0
8.733115,8,-1,-4,-1,-1,-1,-1,-3,0
8.733141,1,-5,-2,1,-1,1,1,0,0
8.741471,-3,2,1,1,-1,-2,1,-4,0
8.743024,2,-13,-1,-2,-1,-2,-2,-1,0
8.756396,-2,2,0,-1,0,-2,-1,1,0
8.756411,-9,0,-1,-2,-2,-2,0,-3,0
8.758705,6,-3,-2,0,-1,0,-1,0,0
8.758710,-2,6,-1,0,0,-1,1,-1,0
8.779500,-2,-9,-1,0,-1,-1,-3,-1,0
8.779523,5,6,2,-2,-2,0,-1,2,0
8.780344,-14,-6,0,-1,-1,-2,-1,-1,0
8.780361,-5,-11,-7,-2,-1,-2,-1,-1,0
8.792461,-14,-4,0,-2,-1,-1,-3,-3,0
8.792480,3,-4,-3,-1,0,-2,-1,-5,0
8.802883,2,-1,2,-1,-1,-1,1,0,0
8.802891,-1,4,-1,2,0,-1,1,-2,0
8.816721,1,-4,0,1,0,-1,0,1,0
8.816744,-2,2,-1,-1,0,-1,-3,-1,0
8.817882,4,-1,-3,-2,-3,0,-1,-2,0
8.817899,-13,-3,0,-4,-3,-1,1,-1,0
8.838862,-2,3,-1,-2,-2,-2,-3,0,0
8.838881,-2,0,-1,0,-1,0,-1,-1,0
8.840299,9,-7,-1,0,0,1,-2,-2,0
8.840315,3,13,1,1,0,-2,-2,-1,0
8.854057,-5,-8,-3,-1,0,0,-1,-2,0
8.854068,-4,-11,-1,-1,-1,1,1,-1,0
8.862203,-2,26,-2,0,-1,-2,-1,-2,0
8.862207,-2,-9,-1,-2,-1,0,-1,0,0
8.876267,1,1,-1,0,-2,-2,0,0,0
8.876291,-4,-2,-6,-2,-1,-1,-1,-1,0
8.877881,0,-2,0,0,0,-1,0,0,0
8.877964,3,5,0,-2,0,0,0,0,0
8.899205,0,2,-2,-2,-2,-1,-1,0,0
8.899209,0,2,1,0,-1,-2,-3,1,0
8.900194,-2,-4,-1,-1,-2,-2,-1,0,0
8.900204,29,8,2,0,-1,-4,-2,-2,0
8.914693,-7,-24,-4,-3,-3,-1,-1,-3,0
8.914699,-1,6,0,-1,-3,0,1,2,0
8.922860,-4,-2,-4,0,0,1,-1,-1,0
8.922864,-5,7,1,0,1,0,-1,0,0
8.936364,2,1,2,0,1,0,-1,0,0
8.936392,-3,-4,-2,-2,-2,-1,-1,-2,0
8.938547,0,-9,2,-2,-1,-1,0,1,0
8.938560,-17,-15,-1,0,-2,0,-1,0,0
8.961002,9,45,-4,-3,-2,-2,-3,-3,0
8.961006,-9,-8,-1,-2,0,-1,-1,1,0
8.961008,7,-3,-2,-3,-2,0,-1,-2,0
8.961010,-2,-6,-1,-1,-2,0,0,2,0
8.981905,2,1,1,-2,-2,-1,0,-2,0
8.981931,-2,0,-1,-1,0,-2,-2,1,0
8.982940,-2,1,-3,0,-1,0,1,-1,0
8.982979,4,5,0,0,0,0,-1,0,0
8.996302,-26,-17,-3,-1,-2,-2,0,-1,0
8.996322,5,5,-1,0,0,-1,-1,-3,0
8.999034,-7,-19,0,0,1,0,-2,1,0
8.999038,2,24,-3,0,0,1,0,-1,0
9.019226,4,-8,3,1,0,1,0,-1,0
9.019264,-2,-2,0,-1,1,-1,1,1,0
9.021601,-1,8,-1,-1,0,-1,-1,0,0
9.021726,-3,-16,-3,1,0,-1,-2,0,0
9.041235,7,2,-1,0,1,0,-1,0,0
9.041249,-8,-3,1,-2,-2,-2,-1,1,0
9.042763,-1,-5,-3,-1,-3,-2,-1,0,0
9.042779,10,4,-4,-3,-3,-2,-2,0,0
9.056225,-1,-5,0,0,-1,-2,-2,-1,0
9.056230,0,-3,-2,0,-2,-1,-1,-4,0
9.062376,2,-2,0,0,0,-1,-1,2,0
9.062391,-11,5,-2,-2,-1,-1,-1,-1,0
9.078702,4,-5,0,0,-1,-1,-1,2,0
9.078720,3,6,-3,-2,-1,-2,-2,-2,0
9.080250,-11,-4,0,-1,-2,-1,0,-2,0
9.080289,2,-1,1,-1,-2,-1,0,-2,0
9.101724,2,4,-1,0,1,-3,1,-1,0
9.101757,-2,-2,-2,-2,0,-1,-3,0,0
9.103759,2,-4,-1,0,0,-2,0,-3,0
9.103768,-4,-7,-2,-1,-2,-2,-1,-1,0
9.116319,-2,1,-1,-1,-1,-1,0,-3,0
9.116346,-2,-1,-2,0,-2,-1,-1,-1,0
9.122606,2,10,-1,-3,0,-1,0,1,0
9.122630,-3,-23,-1,1,-1,-1,-2,-2,0
9.138850,3,6,-3,-1,-2,-2,-1,-4,0
9.138866,0,2,-2,0,-2,1,1,-3,0
9.140298,2,4,4,0,1,-1,-2,2,0
9.140315,-6,4,2,-2,-1,1,-1,-3,0
9.161527,5,-6,0,-2,0,1,-1,0,0
9.161542,-11,-7,-2,-1,-1,-1,-2,-1,0
9.162806,2,11,-4,-1,-2,-1,0,-3,0
9.162814,8,-17,0,0,-1,1,1,2,0
9.176130,-5,9,1,-1,-1,-2,0,2,0
9.176161,9,6,-3,-2,0,-2,0,-2,0
9.182919,-2,-8,-2,-2,-1,-2,-3,-3,0
9.182941,1,10,-2,0,-1,-3,-2,1,0
9.199337,-2,-3,-1,0,-2,-2,0,1,0
9.199359,-1,-4,-1,1,-1,-1,-3,-2,0
9.201804,-1,-3,-2,-2,-1,-2,0,-2,0
9.201816,-6,-1,-1,-3,1,0,0,-3,0
9.221450,-2,-6,0,1,-1,1,-1,-1,0
9.223157,-10,8,-1,-2,0,1,-2,1,0
9.223163,6,-7,-2,-1,-1,0,-2,-2,0
9.223165,-7,14,-1,0,-2,-1,-3,-2,0
9.235698,-3,-12,-1,-2,-1,-1,-1,0,0
9.235721,0,1,2,0,-2,-1,0,1,0
9.242640,6,0,-2,0,-1,0,-1,1,0
9.242660,-4,-5,1,0,-2,0,-1,1,0
9.258710,2,6,-2,-1,-2,-1,-1,-2,0
9.258727,-1,-5,1,1,-1,-1,-1,-3,0
9.260255,2,-4,-2,-1,1,0,-2,1,0
9.260270,0,3,-3,-1,0,-3,0,0,0
9.281446,-1,-5,-2,0,0,-1,0,1,0
9.281467,2,-2,-2,-4,-1,0,-3,0,0
9.282880,-6,-5,-1,-2,-1,-1,0,1,0
9.282934,0,2,4,-1,0,-1,-1,1,0
9.295551,1,3,-1,-3,-1,0,-1,1,0
9.295571,-5,-3,-1,-2,-1,-1,-1,0,0
9.302693,2,3,-1,-3,0,-2,-2,-1,0
9.302725,-3,0,-3,0,-2,0,1,-1,0
9.321195,-1,-3,-1,-2,-2,-1,-1,-1,0
9.321202,11,-9,2,1,-1,-1,0,-1,0
9.321205,-6,2,-2,-3,-2,-1,-4,-2,0
9.321207,3,-4,-4,2,-1,-1,-2,-1,0
9.341396,-4,-3,0,-2,-2,1,-2,1,0
9.341490,3,1,0,0,-1,0,-1,1,0
9.344214,-4,-2,1,-1,-2,0,0,-4,0
9.344220,4,-3,-3,-2,1,-1,1,1,0
9.355617,2,1,1,0,1,-1,-2,-1,0
9.355633,-3,-2,-3,0,-3,-3,0,-1,0
9.362976,-2,-3,0,2,-1,0,0,0,0
9.363004,-2,-1,-1,-3,0,-3,-2,0,0
9.378805,0,8,0,-1,-3,-2,0,-2,0
9.378826,-4,-11,-1,-1,-2,-2,0,0,0
9.381679,-4,-1,-3,-1,-1,1,-3,-1,0
9.381685,0,-2,-2,0,0,1,-1,-1,0
9.402124,0,-17,-1,0,0,-2,-1,-4,0
9.402143,-2,3,0,-1,1,0,0,0,0
9.404310,3,6,-1,0,-1,-2,1,1,0
9.404316,-3,-6,1,0,0,0,-3,0,0
9.415575,-3,8,-4,-1,-1,0,0,-1,0
9.415594,-3,-4,-1,-1,0,0,-1,-4,0
9.422471,-2,-6,0,-1,-1,0,-1,1,0
9.422491,0,5,1,-1,-2,-2,-2,-2,0
9.438890,0,1,-1,-1,-1,-1,-1,-3,0
9.438907,7,7,0,-2,-1,-2,-1,-1,0
9.440478,-6,-7,-2,-2,-2,-1,-1,-1,0
9.440522,2,2,-3,-2,0,-2,-1,-4,0
9.461218,-14,-6,-3,-2,-1,0,-1,-2,0
9.461261,4,4,-1,0,-2,-2,-1,-1,0
9.462732,-1,-5,0,-2,-1,-2,1,-1,0
9.462740,-6,2,2,-1,-1,-1,-1,-1,0
9.474850,12,-6,-5,-2,-2,-1,-2,-2,0
9.474889,1,-2,-1,-1,-1,-2,0,-3,0
9.486144,-9,6,-1,-3,-1,-2,1,0,0
9.486167,-1,3,-1,0,-2,-1,0,2,0
9.498829,-4,-6,-1,-1,-1,-3,-1,-2,0
9.498862,-6,-3,1,-2,0,0,0,-4,0
9.500552,-1,-1,-2,0,-2,-2,-3,-2,0
9.500556,6,-1,1,-2,-2,0,0,-4,0
9.522496,-7,0,1,-1,0,-1,-1,-2,0
9.522500,-6,2,-1,-1,-2,0,-1,-1,0
9.522801,-2,-14,-1,-1,-1,-2,0,-3,0
9.522853,2,4,-2,-2,0,-2,0,-3,0
9.534899,0,12,0,-2,-2,-2,-2,-1,0
9.537391,-4,-25,-3,-1,-2,-2,0,-3,0
9.545436,-1,7,0,-2,-1,-1,-1,-2,0
9.545444,-2,-6,-2,0,0,-1,-1,1,0
9.558771,4,-5,0,-2,-2,1,-1,2,0
9.558786,-2,11,0,0,0,-1,2,-1,0
9.560425,2,-2,0,0,-2,0,-1,0,0
9.560474,-12,-10,-4,-2,-3,-1,-2,2,0
9.581228,-1,2,-1,0,-2,-1,0,0,0
9.581249,-1,0,-1,-2,-1,-2,-1,1,0
9.583447,4,2,1,1,0,0,0,0,0
9.583451,-5,-4,0,0,1,-1,0,-1,0
9.594929,-7,3,-2,0,0,-2,0,1,0
9.594948,-2,-12,0,-2,1,-2,-2,-4,0
9.605126,-6,2,-2,0,0,0,0,-2,0
9.605138,-2,12,1,0,-1,0,-3,1,0
9.618951,4,-23,-3,1,0,1,0,-1,0
9.619003,0,7,-2,-2,-1,0,0,-2,0
9.620675,-6,2,0,0,1,-2,0,-2,0
9.620699,7,-9,-2,-2,-2,-1,0,1,0
9.641841,-2,15,2,-1,-2,-1,-2,-2,0
9.644629,1,4,-2,-1,-1,-1,-1,3,0
9.644634,3,-7,-1,0,-1,-1,-2,0,0
9.644635,-2,5,0,-3,-1,0,1,-4,0
9.655121,-1,-11,1,0,1,-2,-1,1,0
9.655142,-4,21,-2,-1,-1,-2,-2,-1,0
9.665242,-3,-17,-2,-3,-2,-1,-3,-1,0
9.665248,6,-2,-1,-1,0,-1,-1,-1,0
9.679164,-5,-3,-1,-3,-2,2,-2,-1,0
9.679168,2,-1,-1,0,-1,-2,0,1,0
9.680137,-1,6,0,0,-2,0,-1,-2,0
9.680146,-1,-1,1,-1,-1,0,-1,1,0
9.701509,2,-3,0,1,-1,-1,0,-1,0
9.701527,1,2,-2,-1,0,0,0,2,0
9.703485,4,-6,0,-2,-1,-2,-1,-1,0
9.703495,-7,12,-4,-2,-1,0,-1,0,0
9.715362,-1,-18,1,0,0,-2,0,-4,0
9.715420,-3,-8,-1,-2,0,1,-2,-1,0
9.725039,5,9,-1,-2,-1,0,-1,0,0
9.725043,-2,3,-1,-2,-1,0,-3,0,0
9.740981,-1,7,-1,-1,-1,-1,-3,3,0
9.740987,-2,1,-2,0,0,-2,0,-1,0
9.740990,-6,-7,0,-2,-1,0,0,-1,0
9.740993,0,-20,-3,2,0,-1,-2,-1,0
9.760761,1,14,0,-2,-1,-1,0,1,0
9.760792,2,-15,2,0,-1,1,-2,-1,0
9.771154,0,19,-1,-2,-1,-2,0,2,0
9.771160,-2,-14,-2,-2,-1,-3,0,-3,0
9.775066,1,5,-1,-1,0,-1,-2,-1,0
9.775087,-1,2,-1,-2,-2,-2,-2,0,0
9.786744,4,-1,-2,0,1,-2,0,-1,0
9.786753,4,2,0,-2,-1,-1,1,1,0
9.799279,-2,-8,5,1,0,-1,0,4,0
9.799307,-2,9,-3,-2,0,0,-1,-2,0
9.801879,-1,0,-3,-1,-1,0,-3,-3,0
9.801895,-2,-3,-2,-1,0,-2,-3,0,0
9.821557,-4,0,-2,-2,-2,0,-2,-3,0
9.821628,-2,-5,0,-1,-2,-1,-2,-1,0
9.822822,0,-3,-1,0,0,-1,-1,1,0
9.822870,-3,5,1,-1,-2,-3,-1,-3,0
9.835113,5,0,-1,-2,-1,-2,0,-3,0
9.835128,-5,9,-2,-1,-1,0,-2,-2,0
9.845060,-7,-9,0,2,0,-1,-1,-2,0
9.845066,-1,-7,-2,-1,-2,-1,-1,0,0
9.859323,3,9,-1,-1,1,-1,2,2,0
9.859351,0,-5,-1,-1,0,-1,-2,-2,0
9.861325,-8,-6,-3,-1,-3,0,-2,-2,0
9.861329,-1,6,-1,-1,-2,0,-1,-2,0
9.881616,1,-8,-3,0,-1,0,-2,-4,0
9.881622,0,-5,-1,-1,-2,-2,1,0,0
9.882746,-1,-5,-1,-1,0,-1,0,-4,0
9.882763,-1,1,0,-1,-2,1,-2,-1,0
9.903807,-8,-3,-5,-2,-2,-3,-3,-2,0
9.905837,3,4,0,0,-1,0,-1,0,0
9.905848,2,2,-2,-2,0,-2,-1,-3,0
9.905850,-3,2,-1,-1,0,0,-1,-1,0
9.918775,1,-3,-2,-2,-1,0,-1,-3,0
9.918801,-3,-3,0,0,0,-2,-1,-2,0
9.921066,2,2,1,-1,1,0,0,0,0
9.921077,-4,-5,0,-2,-1,-1,0,-2,0
9.943083,1,7,-2,-1,-2,-1,0,-1,0
9.943087,-5,-11,1,-2,-1,-1,-1,-3,0
9.943089,-4,-3,-3,-2,-1,-1,-2,2,0
9.943091,2,-8,0,-2,0,0,-1,0,0
9.963849,0,5,-1,-1,-3,1,-3,-4,0
9.963871,-16,0,-2,0,-2,0,-1,-2,0
9.966573,2,-5,-2,0,-1,0,-1,0,0
9.966577,1,-1,-3,-1,-1,-1,-1,-1,0
9.978868,-1,-6,-1,0,-2,0,0,-1,0
9.978890,2,17,-1,-1,0,-1,0,-1,0
9.980467,4,1,3,-1,-1,-1,0,-2,0
9.980472,-13,3,-1,-2,1,-1,-1,0,0
10.002087,2,-6,-1,-1,0,-2,0,-3,0
10.004328,6,1,0,1,-1,-1,-2,-3,0
10.004335,-1,2,1,-1,-2,-1,1,1,0
10.004337,4,3,0,-1,-1,0,-1,-3,0
12.025786,-18,-18,-5,-7,-10,-2,-3,-3,5
12.026161,-7,-17,-3,-2,2,3,1,3,5
12.027737,4,-4,-11,-2,-2,-1,1,-2,5
12.027810,-4,30,-4,-3,-3,-2,0,-3,5
12.048893,-11,-10,0,4,7,0,1,7,5
12.048923,-4,-29,-1,0,-4,0,-2,-2,5
12.049797,-5,6,14,-3,-6,-1,-1,-9,5
12.049819,-7,59,-69,-6,1,-3,-8,-6,5
12.063439,50,-63,101,9,-4,0,7,0,5
12.063457,19,-11,-15,-7,-3,-3,-2,8,5
12.063977,-29,36,-6,-2,2,-1,-2,-6,5
12.064002,4,5,2,4,2,1,1,25,5
12.085845,-35,23,0,2,-2,-2,-3,-2,5
12.085884,-12,-22,-12,-3,-6,-4,-2,-1,5
12.087368,22,23,-2,0,10,5,3,1,5
12.087376,7,-45,16,1,-3,-2,-2,-10,5
12.109595,-2,41,-14,-5,-2,-2,-2,-9,5
12.109611,-28,-32,14,6,8,2,3,4,5
12.109613,14,44,-3,1,-1,-3,-4,-7,5
12.109615,4,-46,-5,-7,-7,-3,-3,-16,5
12.124436,-23,57,-11,-3,1,-2,-5,0,5
12.124443,-3,-24,-10,-3,0,-1,0,-7,5
12.124446,25,-35,-3,2,0,0,-1,-7,5
12.124449,-10,-8,7,0,-2,0,1,-4,5
12.145815,-2,9,-3,-3,-8,-3,-1,1,5
12.145844,-23,-16,-14,-3,2,-1,-4,-7,5
12.146409,4,-4,12,1,-3,-1,1,0,5
12.146442,2,-16,-1,-2,-1,0,1,-2,5
12.168958,-12,63,-42,-4,-1,-2,-6,-23,5
12.169004,1,-74,48,10,7,4,8,13,5
12.171070,-11,17,8,2,-3,-1,4,1,5
12.171093,42,4,-13,-6,-7,-5,-7,-12,5
12.183698,22,10,-17,-3,-6,-4,-3,-7,5
12.183728,-12,9,-19,-1,5,2,-3,-5,5
12.190880,-1,1,20,0,-4,-5,-4,1,5
12.190903,-12,11,2,3,2,2,3,5,5
12.205780,-27,31,15,0,-3,-1,0,0,5
12.205815,6,-45,0,1,4,1,-1,4,5
12.206675,4,-24,-10,-6,-10,-1,-1,8,5
12.206705,1,-9,-8,1,5,2,2,-2,5
12.228938,17,-16,-12,-5,-9,-4,6,8,5
12.229135,-43,25,-14,-9,-11,-5,-5,-4,5
12.230483,38,46,-1,0,3,-5,-9,-15,5
12.230597,-15,-75,26,1,-4,-1,7,6,5
12.243413,9,-10,-2,2,6,2,0,6,5
12.243925,-14,26,18,3,-1,-1,0,-2,5
12.244221,-9,28,-8,3,0,5,3,24,5
12.244237,-7,-11,-7,-5,-6,-4,-7,-7,5
12.265996,-12,-27,4,3,2,-2,3,8,5
12.271980,17,35,-1,-4,-5,-2,-3,-2,5
12.271992,-12,-40,4,0,0,0,-1,-10,5
12.271997,-18,26,-2,0,1,1,0,0,5
12.289093,-2,-16,-5,-5,-6,0,2,2,5
12.289122,4,25,-5,1,6,-1,-3,-6,5
12.290814,-9,-55,-16,-3,-3,-1,2,1,5
12.290823,7,48,8,2,-2,-1,0,1,5
12.304998,-30,-16,3,0,-1,0,-3,-4,5
12.305028,46,1,-18,-1,-1,0,0,1,5
12.305031,9,11,0,-7,-2,-1,0,1,5
12.305937,-7,-64,45,1,-7,0,-3,8,5
12.325802,-6,2,-9,4,8,1,-1,-1,5
12.325834,-22,16,-2,-4,-4,-2,-7,21,5
12.327505,-11,0,-17,-2,-1,0,7,-4,5
12.327513,-6,48,-31,-7,-5,-5,-2,-4,5
12.348905,24,-33,8,-4,9,-3,-2,2,5
12.348933,-10,35,-6,1,2,2,2,-4,5
12.349624,7,-43,4,-3,-5,-5,-6,-6,5
12.349650,-17,15,-12,1,6,1,2,7,5
12.371454,-25,16,-2,1,-1,0,-3,15,5
12.371484,22,-3,1,-4,-4,-5,-8,-15,5
12.373129,-28,20,7,0,1,0,1,-7,5
12.373139,10,33,3,3,1,1,1,-5,5
12.385751,29,-34,-4,-1,-2,-1,-3,1,5
12.385784,14,33,21,1,1,0,2,-2,5
12.387235,9,7,-5,-3,-3,-1,-1,3,5
12.387242,-37,-8,-15,-5,-7,-3,-2,7,5
12.408805,0,41,-21,-3,-6,-3,-4,-9,5
12.408838,6,0,23,4,5,2,3,1,5
12.409535,-22,-2,-1,2,7,-1,-6,-1,5
12.409595,22,6,-10,-2,-4,-4,0,-24,5
12.425472,-3,39,-4,-5,-7,-1,0,-4,5
12.425482,-2,-21,-18,-3,0,-2,-2,-1,5
12.431305,-25,-28,-3,2,1,2,3,-2,5
12.432752,21,13,7,-4,-7,-2,-7,1,5
12.445804,-1,31,12,1,1,0,1,-8,5
12.445834,28,-43,-32,-4,-6,-4,-3,-4,5
12.447448,12,-47,55,5,-6,-1,-4,-6,5
12.447457,-14,-3,-1,5,-3,7,3,10,5
12.468972,7,2,-3,-2,1,1,0,0,5
12.468996,31,11,-13,-7,0,-3,-2,-11,5
12.470511,-16,4,-3,1,-1,0,1,5,5
12.470520,-4,-28,-1,-3,-2,-2,-1,1,5
12.482558,15,-27,12,0,0,0,0,2,5
12.482584,-19,10,-4,0,2,2,-4,-10,5
12.490683,-13,1,-2,1,0,-1,9,2,5
12.490704,0,8,3,-1,-1,-2,3,-7,5
12.505889,-17,52,-31,-2,-1,0,-1,11,5
12.505912,9,35,49,6,6,2,3,3,5
12.506466,-14,-22,-26,-6,-6,-4,-5,-3,5
12.506482,0,-7,-9,1,7,0,-2,13,5
12.528701,-9,26,-16,-2,-2,-1,0,-7,5
12.528724,-28,-2,-3,-3,-5,3,5,4,5
12.529701,14,52,-7,-4,-8,-3,1,-3,5
12.529748,-19,-35,-3,-3,1,-2,-7,-5,5
12.542417,18,-46,9,3,-7,-4,-2,-2,5
12.542442,-30,15,-13,-1,20,5,-1,-1,5
12.550645,4,-18,6,3,8,3,-5,-9,5
12.550663,20,49,17,-3,-3,-3,-2,-1,5
12.567116,-27,-45,8,4,-2,0,1,1,5
12.567123,-12,14,-6,-2,-1,-2,1,4,5
12.567125,21,22,-38,-8,-3,-4,-9,-18,5
12.567127,5,-25,22,3,2,-2,2,-18,5
12.588900,2,-62,15,2,3,2,0,0,5
12.588928,-6,45,-18,-4,-7,-2,-2,-9,5
12.589960,-7,43,-7,-1,1,0,0,1,5
12.589966,10,-44,-11,-2,-9,-4,-1,-2,5
12.602590,-21,11,9,-1,-1,-1,1,1,5
12.602617,-8,-16,-12,-1,-2,-1,0,0,5
12.610982,-22,-19,1,-3,-5,-3,-2,-1,5
12.611016,17,14,-7,-3,5,0,0,6,5
12.625785,-8,22,-2,-2,0,0,2,-3,5
12.625815,-2,-37,3,1,-8,-4,-5,0,5
12.627872,4,20,19,2,7,2,2,5,5
12.627877,-33,-1,-23,-5,-2,-2,1,4,5
12.649060,40,-53,31,2,-1,-2,-6,-4,5
12.649091,-12,20,-7,-6,-5,-3,-1,-10,5
12.649678,20,1,4,2,-2,-1,-8,0,5
12.649698,-21,16,-33,-4,1,-1,-4,-4,5
12.662449,30,-66,3,1,3,3,0,9,5
12.662466,-20,-17,11,2,-3,-1,-1,1,5
12.670804,11,53,-10,-3,0,-1,3,0,5
12.670826,-5,-75,8,6,10,6,1,6,5
12.685786,-20,26,-7,-7,-9,-3,-6,-8,5
12.685815,23,1,5,-5,-17,-5,6,2,5
12.687051,-25,-9,-2,-3,8,1,-4,3,5
12.687057,22,27,6,0,-10,-2,-2,-1,5
12.709345,-11,44,2,1,2,-1,0,-1,5
12.709354,-7,-34,-4,-1,2,2,0,5,5
12.709423,8,19,-5,1,-1,-2,2,0,5
12.709430,-16,8,-5,0,5,1,-3,1,5
12.724817,-5,14,11,5,2,2,4,-1,5
12.724830,10,12,2,-4,-6,-5,-6,-2,5
12.730655,-16,-42,-13,-4,-7,-1,2,-2,5
12.730677,29,-26,12,-1,-1,-1,-1,1,5
12.745712,-25,18,-32,-4,-4,-3,0,-2,5
12.745734,0,9,10,1,-1,-1,4,7,5
12.746645,-6,17,10,0,1,0,1,5,5
12.746650,-11,-7,6,2,1,0,-2,1,5
12.769041,-7,6,-10,-3,-1,0,1,-4,5
12.769058,0,-10,-10,2,3,-2,-5,-13,5
12.769731,5,-13,28,-1,-2,1,1,3,5
12.769762,-16,74,-30,-5,-4,-3,-3,-9,5
12.791263,-7,-36,16,4,3,2,1,8,5
12.791287,-4,-3,5,6,7,4,-8,8,5
12.792561,17,-8,0,-5,-7,-3,4,-4,5
12.792567,-35,-8,-1,-7,-30,-8,-7,0,5
12.805746,34,20,-15,-11,-9,-5,-3,-7,5
12.805769,-9,-41,-5,1,4,-1,-1,1,5
12.807007,-8,21,-5,5,6,1,1,4,5
12.807011,7,3,6,0,7,-1,2,-1,5
12.828793,-11,26,9,0,-4,-1,-2,-5,5
12.828824,-7,-9,7,1,-7,-1,3,1,5
12.831423,-19,-25,1,-1,3,2,-2,1,5
12.831427,30,-6,2,-1,1,0,1,-1,5
12.851989,-17,-6,5,1,-1,0,-3,-3,5
12.854190,-33,20,-25,-5,4,2,4,33,5
12.854201,-32,23,7,6,17,6,2,-7,5
12.854203,29,-88,32,1,-10,-3,-5,-2,5
12.865476,1,21,-11,-8,-16,-4,-2,-5,5
12.865498,-4,-34,-9,-6,-3,0,-4,-13,5
12.866180,-6,-11,-14,-3,-5,-1,2,0,5
12.866194,-26,21,3,7,13,5,2,10,5
12.888932,11,2,2,4,5,-1,0,-1,5
12.888954,5,0,3,0,-6,-3,-3,-8,5
12.890047,15,-2,0,-2,-4,-2,-3,0,5
12.890052,-9,43,-9,0,6,-2,2,-11,5
12.911414,-2,-29,-4,-2,-1,1,-3,10,5
12.911435,-25,47,12,4,3,-1,5,-5,5
12.912051,87,-14,10,-5,10,0,-8,-7,5
12.912166,-18,-18,-8,-8,-11,-2,0,-1,5
12.925646,4,-8,-4,-7,-7,-7,-7,-3,5
12.925665,-4,69,-15,-5,-2,-1,1,-10,5
12.926321,-27,26,-19,2,1,1,6,4,5
12.926339,6,-84,22,2,4,0,-6,-6,5
12.949019,-8,-4,-6,3,8,2,0,3,5
12.949041,8,6,4,1,2,-1,1,-7,5
12.950626,-4,11,-9,-4,-14,-5,-3,1,5
12.950631,-24,10,-16,-3,1,2,-4,0,5
12.971306,15,19,-3,0,-2,-3,8,-8,5
12.971323,-3,-26,2,2,2,2,3,4,5
12.971912,30,-17,36,0,-6,-1,-5,-3,5
12.971926,-8,-54,-2,1,10,3,2,8,5
12.987786,-9,23,-10,-1,4,1,-5,1,5
12.987796,7,-36,-20,-13,-30,-8,-3,-5,5
12.987798,3,-10,-5,-3,1,-1,2,2,5
12.987800,23,61,1,1,1,-2,0,-4,5
13.008747,-12,-15,1,3,11,2,0,1,5
13.008764,12,-43,-6,2,9,1,-3,-2,5
13.010936,-26,-42,12,0,-13,-3,-2,-6,5
13.010946,6,34,-17,0,0,2,2,5,5
13.031305,-26,1,2,1,-5,-2,-3,-5,5
13.031327,-7,17,8,-4,-1,-2,-4,-1,5
13.033880,10,-17,-26,-1,-3,-3,-1,-2,5
13.033931,2,31,-14,-4,-2,1,2,0,5
13.045754,1,22,18,2,-3,0,-3,-3,5
13.045775,39,-60,28,1,2,-1,-10,-2,5
13.048179,-46,32,-18,1,3,0,7,21,5
13.048187,-19,-28,6,-3,-4,1,7,2,5
13.068901,-7,-1,-6,-2,-8,-4,-5,5,5
13.068928,7,49,4,-1,2,0,0,22,5
13.069667,-40,-57,-7,-2,0,-4,-7,-4,5
13.069694,1,-24,2,2,2,0,2,-4,5
13.098683,-5,50,-8,-4,-6,-1,1,-2,5
13.098700,17,28,18,3,-3,1,1,-3,5
13.099348,-4,-13,-11,-3,-6,-4,-3,0,5
13.099363,-6,77,6,1,0,-4,-2,-3,5
13.105527,-10,-60,-8,-1,5,2,-2,3,5
13.105546,-22,-23,-20,1,4,2,-2,-7,5
13.106393,46,37,7,-2,-4,0,1,-6,5
13.106397,-30,7,-5,0,3,-1,-4,-2,5
13.128664,36,-43,-2,-3,-5,-1,1,-2,5
13.128673,-41,-24,14,1,-2,0,-1,-1,5
13.129342,-3,5,-8,-2,2,1,0,0,5
13.129349,19,-9,-2,0,0,-4,-10,1,5
13.151307,-34,10,3,0,1,2,10,-3,5
13.151327,24,0,-5,3,4,-1,1,-2,5
13.153256,5,13,1,-3,1,-2,-4,-5,5
13.153261,-17,-2,-19,-5,-6,-3,-1,-5,5
13.165518,12,-15,31,3,5,0,-1,2,5
13.165540,18,-13,-10,-4,-11,-2,-1,-2,5
13.166571,-6,-29,-5,-1,-2,-4,-2,-5,5
13.166575,-5,58,10,-1,4,1,2,-1,5
13.190086,-23,-19,-38,-1,4,1,3,-1,5
13.190092,46,-23,20,0,-1,-4,-3,-5,5
13.190095,-26,29,0,-3,-3,-1,-5,-5,5
13.190097,4,0,-3,-1,-8,-2,0,-1,5
13.211544,-8,-3,0,-2,-4,-2,-5,1,5
13.211616,-5,22,6,2,5,-2,1,-1,5
13.213233,0,15,3,0,-6,-1,-1,-2,5
13.213239,5,5,-4,-3,-7,-1,0,-9,5
13.225729,-3,2,-10,-6,-2,-3,-4,-5,5
13.225752,-13,18,6,1,3,0,-4,-2,5
13.226332,-13,-15,11,3,3,0,3,-1,5
13.226347,-17,-37,-14,-2,1,0,-2,20,5
13.249366,8,6,18,2,-1,-1,0,17,5
13.249396,-17,-4,-18,-9,-7,-3,-3,-2,5
13.252323,-20,0,13,2,-5,-2,-1,2,5
13.252333,-11,-29,2,0,22,5,2,0,5
13.271366,4,32,-32,-7,-8,-2,-6,-14,5
13.271386,-14,-52,33,5,4,2,1,1,5
13.272244,-8,-27,2,2,-2,-1,-1,1,5
13.272270,32,20,-8,-4,-2,-5,-4,-10,5
13.285804,-18,-62,6,3,5,1,-1,-3,5
13.285825,0,64,11,0,1,-2,1,-6,5
13.286347,20,-2,-16,-6,1,-1,0,-2,5
13.286363,7,-11,13,1,-9,-5,-2,-1,5
13.309333,-15,-25,0,-2,-7,-3,-1,-4,5
13.309425,-33,39,-18,0,1,-1,0,-3,5
13.311447,30,-2,8,-1,-3,4,1,-3,5
13.311454,-25,6,-4,-7,-4,-2,-1,0,5
13.331275,2,57,9,1,1,-2,-8,-5,5
13.331296,-5,-23,-28,-4,1,-2,4,-1,5
13.332730,0,46,-2,-1,1,-2,-4,-1,5
13.332746,-11,-34,8,4,-1,1,2,0,5
13.345787,3,0,3,1,0,-1,-1,-3,5
13.345792,-8,-2,-6,0,2,0,1,1,5
13.355500,23,-1,-9,1,-3,0,-3,-7,5
13.355509,3,9,-2,-5,-14,-5,-5,1,5
13.368979,-3,-7,11,-2,-3,-3,0,-2,5
13.369003,14,8,-8,-3,0,-1,-4,1,5
13.371071,-17,12,-1,-1,-12,0,3,1,5
13.371078,31,-27,11,5,5,0,-1,-1,5
13.391272,-18,12,-4,-2,-1,1,3,-2,5
13.391286,71,-2,-16,-5,-1,-1,-3,-6,5
13.392855,-19,-76,7,-5,-4,-2,-2,2,5
13.392874,-2,18,-3,0,-3,-1,0,-3,5
13.405081,23,6,-12,-2,-2,-2,0,-2,5
13.405107,-21,30,15,1,-1,-2,1,1,5
13.413846,3,2,-7,-1,5,-2,-4,-1,5
13.413850,0,2,0,-2,0,-1,1,-1,5
13.428703,10,-22,9,2,3,0,0,-3,5
13.428719,-14,13,-14,-6,-5,-2,-3,-1,5
13.430149,26,-10,-3,0,1,-2,-2,0,5
13.430157,-30,16,29,5,4,0,2,-1,5
13.451426,-7,43,-35,-8,-7,-3,-1,-3,5
13.453494,0,-75,37,7,0,2,2,4,5
13.453502,-37,17,-4,1,0,-1,0,1,5
13.453504,37,-10,-23,-6,-4,-2,-9,-2,5
13.464835,-6,-14,1,0,-5,1,6,-2,5
13.464857,2,47,7,3,4,2,3,-5,5
13.474732,-16,-22,-11,-7,-9,-5,-1,-1,5
13.474737,-9,3,7,0,-2,-1,0,1,5
13.488849,5,-7,-6,0,1,-1,-6,-1,5
13.488873,-24,70,-2,-2,-1,-2,-2,-1,5
13.490473,-6,6,10,7,7,3,3,1,5
13.490491,31,-50,-2,-3,-2,-2,-6,-3,5
13.511381,22,-6,8,2,6,-1,1,1,5
13.513263,-18,-28,-30,-9,-12,-5,-4,-3,5
13.513270,-16,67,4,0,3,1,-1,-4,5
13.513272,-3,-1,2,-2,0,-1,-1,-2,5
13.525165,18,-15,16,5,-2,0,-1,1,5
13.525187,-23,-17,-10,-1,-2,-2,-4,1,5
13.533691,37,-25,-9,-7,-1,-4,-4,-3,5
13.533744,-30,7,-1,3,3,2,3,0,5
13.549323,36,0,8,0,1,-1,-1,3,5
13.549329,-15,-14,-2,-2,-3,2,0,-2,5
13.550152,44,-3,-3,-1,-1,-1,0,-1,5
13.550162,-11,25,2,2,1,-2,1,0,5
13.571505,-24,-17,1,-2,-3,-3,-8,-3,5
13.571528,9,-4,-12,0,-15,-2,3,2,5
13.573573,-24,-45,6,-2,1,-1,-2,0,5
13.573585,-9,-10,-8,-2,-2,1,-1,-3,5
13.585335,-7,-8,22,0,1,-3,-2,-2,5
13.585364,21,15,-3,0,0,0,-6,-3,5
13.595059,-33,-16,6,2,1,2,2,1,5
13.595069,-9,2,-10,-1,-4,-1,1,3,5
13.610872,11,19,-8,-6,-4,-3,-3,-2,5
13.610877,-6,-12,-10,-3,0,-2,-1,-1,5
13.610879,4,25,7,1,0,-2,1,-1,5
13.610881,-20,12,-23,-1,0,-1,1,-5,5
13.631669,0,11,9,3,7,3,1,-2,5
13.631692,-18,-19,4,-1,2,-2,-2,-1,5
13.632950,-12,49,-10,-3,-3,-2,-3,-3,5
13.632969,-13,-21,35,-1,-9,-3,0,2,5
13.644971,35,-33,-24,-5,-4,-1,0,-3,5
13.644993,7,-20,12,0,2,-1,-1,-1,5
13.655531,-16,27,-2,-4,3,-2,-3,-2,5
13.655553,11,12,-3,3,4,1,0,-4,5
13.668901,-36,22,-5,-2,-1,0,1,1,5
13.668932,-7,-16,-13,0,7,0,1,0,5
13.670537,22,19,-16,-10,-1,-2,-10,-2,5
13.670555,-8,21,14,1,-4,-2,6,0,5
13.691263,-12,26,-6,-2,-2,0,5,-1,5
13.691279,-7,-56,-7,3,5,0,0,1,5
13.692795,-10,22,-14,-1,3,-3,-2,-5,5
13.692812,-2,-3,1,-2,-3,-5,-7,-4,5
13.713910,7,-9,6,-1,-2,-3,-1,-2,5
13.713941,-8,25,-3,-2,2,-2,-8,-2,5
13.715386,39,-25,-8,2,3,2,7,-1,5
13.715406,0,-14,9,-2,0,1,-6,-2,5
13.728919,-10,-75,11,0,-6,-3,-1,1,5
13.729703,-8,8,-1,-1,-2,0,-2,-2,5
13.730172,3,-12,-16,-1,2,-2,-2,-2,5
13.730179,5,18,-5,-7,-12,-3,-2,2,5
13.751876,-22,54,8,-2,-3,-4,-2,-5,5
13.751895,29,-99,16,4,-2,2,2,4,5
13.753008,-13,15,18,4,-11,1,3,0,5
13.753026,0,26,-35,0,6,-1,-2,-1,5
13.773739,-40,7,19,1,-1,2,0,-2,5
13.773763,12,-3,-1,-5,-4,-5,-2,-2,5
13.775204,-19,12,10,2,4,2,4,1,5
13.775281,9,7,-1,2,6,2,-1,-4,5
13.788870,-14,-69,-16,0,-2,-3,-2,2,5
13.788886,-14,31,-5,-3,-3,-2,2,-3,5
13.790212,-3,-23,0,-3,-4,-1,0,4,5
13.790230,4,10,-4,0,4,0,1,2,5
13.811352,20,-20,-1,2,6,1,2,-3,5
13.811376,-23,33,-6,-2,-1,-1,-5,0,5
13.813015,9,-2,14,2,-5,-3,4,-6,5
13.813020,-14,-31,-1,-2,-2,-1,2,2,5
13.834209,11,37,-8,-3,11,4,-3,-4,5
13.834235,13,-31,-11,-3,-4,-1,2,4,5
13.836997,-23,78,4,3,4,-2,-3,-6,5
13.837005,-9,-85,2,-3,-4,-3,-3,1,5
13.848066,29,9,-5,0,0,-1,3,1,5
13.848215,-16,2,7,-2,-5,-1,-2,-4,5
13.854914,7,44,-7,0,6,4,-2,2,5
13.854938,-32,-10,-9,-2,-5,-3,-1,-1,5
13.871286,40,0,-10,-4,-5,-3,-6,-2,5
13.871306,9,34,-2,-1,-3,0,1,3,5
13.872758,-1,-34,2,-1,-4,-2,-3,0,5
13.872841,-4,7,4,-2,0,-1,0,-6,5
13.893787,-13,1,7,1,-1,-5,-4,3,5
13.893809,8,-30,3,0,1,2,0,-2,5
13.895907,-5,-5,-2,-2,-2,-1,-9,-1,5
13.895934,-19,-11,-3,0,-1,2,4,0,5
13.908238,3,-6,0,-1,-3,1,-2,2,5
13.908260,16,18,-1,-1,1,-2,-2,-8,5
13.914806,17,-63,13,6,2,0,-3,4,5
13.914829,15,22,-7,-4,-2,-1,-2,-1,5
13.931484,-26,7,-2,2,-1,1,2,0,5
13.931507,-2,14,-10,-2,-3,-3,-3,-6,5
13.933312,13,-15,-8,-9,-18,-1,1,3,5
13.933317,-2,20,8,3,1,0,-2,0,5
13.954040,-21,-36,-15,2,2,0,3,0,5
13.954051,3,42,0,-2,-6,-2,-1,2,5
13.955399,27,-35,-2,1,6,-1,1,1,5
13.955419,6,12,9,-1,-2,-2,-1,-2,5
13.968837,-3,-6,-12,-8,-7,-4,-5,-3,5
13.968851,-19,-35,17,6,9,2,1,-1,5
13.974892,-35,-5,-11,-2,-3,-4,0,-7,5
13.976261,34,14,-2,-1,-2,0,0,0,5
13.991250,-8,13,13,3,0,-3,-4,-3,5
13.991272,-4,21,-6,-1,1,2,2,2,5
13.993159,-14,-3,9,-4,-4,-1,-2,0,5
13.993170,4,-24,-8,-4,-3,-2,-1,0,5
14.015671,-9,19,4,-3,-3,-1,0,-4,5
14.015676,-9,31,-20,1,4,1,-4,-2,5
14.015679,-15,-23,27,3,4,2,5,1,5
14.015680,34,-12,-12,-7,-5,-6,-8,-8,5
14.028221,-7,2,11,1,3,3,1,4,5
14.028243,6,21,-8,-2,-3,-3,-3,-4,5
14.035272,-21,-13,-13,-2,0,-4,-3,-1,5
14.035388,-23,-33,30,6,1,1,0,0,5
14.051547,23,32,-8,-3,-2,-3,0,-2,5
14.051582,-11,-3,11,-2,-5,-4,-4,-7,5
14.053767,-1,5,-2,0,1,3,2,2,5
14.053773,-6,19,-6,-1,3,1,1,1,5
14.073685,-8,-8,-9,1,-1,0,-1,-1,5
14.073701,18,-77,5,-3,0,1,2,1,5
14.075238,13,25,5,-2,-6,-6,-5,-4,5
14.075254,-7,12,-8,0,0,0,0,6,5
14.088242,-16,-22,-20,-3,-1,-2,-1,-5,5
14.088262,-4,25,4,-1,-8,-1,3,2,5
14.095011,-2,-42,-3,-5,0,2,-1,-1,5
14.095033,-11,-10,2,1,0,-1,-2,0,5
14.111298,22,1,2,-4,-7,-3,-3,-4,5
14.111329,-17,22,-5,-2,3,-2,1,0,5
14.113946,-4,2,-9,0,1,-3,-2,-4,5
14.113950,-6,10,-7,0,4,0,2,-3,5
14.133932,-14,28,3,0,-15,-1,1,3,5
14.133954,11,-12,-2,1,3,0,-2,-5,5
14.136232,4,11,-1,1,0,1,5,-1,5
14.136238,-19,9,6,-2,3,-1,-3,0,5
14.148012,8,16,10,4,3,-2,0,-3,5
14.148034,11,-34,4,0,-2,0,-3,2,5
14.154944,-11,36,-1,0,-1,0,-1,-3,5
14.154967,14,-6,-11,-4,-7,-3,-1,-2,5
14.171364,-12,0,-5,-4,0,-1,-2,0,5
14.171377,20,-31,9,-1,-2,0,-3,-1,5
14.172891,-23,-8,-4,-2,2,-2,-1,-2,5
14.172910,-10,-15,-4,-1,1,1,0,-1,5
14.194570,23,11,-6,-3,3,3,0,-1,5
14.194596,-16,23,8,1,7,-1,1,0,5
14.196120,32,-15,-12,-1,-6,-5,-8,-3,5
14.196126,-9,47,-1,-1,-7,-3,1,0,5
14.207909,-1,-43,-3,-2,-12,-1,-1,1,5
14.207932,-21,6,-3,-1,-1,-3,-1,-3,5
14.218464,7,10,0,-2,0,2,0,1,5
14.218472,15,-5,3,1,0,-3,0,-1,5
14.232042,7,-1,6,0,6,-3,-3,-6,5
14.232071,-6,-16,3,2,-1,-1,1,-1,5
14.235601,-8,10,-5,-4,-2,-1,-4,-1,5
14.235615,11,-9,-14,-1,5,1,-2,-4,5
14.253909,-15,-13,6,-1,1,-2,0,1,5
14.253941,-9,34,-4,-4,-8,-3,-1,-1,5
14.255694,9,1,10,2,-1,0,2,0,5
14.255699,14,-2,2,-2,-1,2,-1,0,5
14.267307,-17,-12,-4,1,10,1,-1,-1,5
14.267323,-8,9,-8,-4,-9,-2,0,2,5
14.277982,-11,-1,-16,0,2,1,0,0,5
14.277991,4,-27,-3,-4,-3,-5,-4,-2,5
14.291315,-16,23,18,1,11,6,1,0,5
14.291337,1,-5,-9,0,3,-1,-4,-5,5
14.293037,8,10,29,2,-4,-2,1,2,5
14.293046,26,-10,1,2,0,-1,-1,-2,5
14.313619,-4,-2,-19,-3,-3,-5,-3,0,5
14.313676,-15,56,-10,-2,1,2,1,1,5
14.315132,-19,-57,-22,-2,2,0,-2,0,5
14.315148,19,32,22,0,-3,-1,-4,-2,5
14.328635,17,-73,8,-1,-6,-2,0,4,5
14.328644,8,26,-5,-3,-2,-1,-2,-8,5
14.338222,-14,-12,-8,0,0,1,0,0,5
14.338229,-21,14,1,-1,-1,-1,0,-4,5
14.351458,-9,14,-6,-3,-6,0,0,0,5
14.351489,7,-22,3,0,-2,-2,-2,2,5
14.353776,1,-2,-9,-2,-2,-2,-1,-3,5
14.353785,-8,-7,5,2,-1,0,0,-2,5
14.373728,-9,20,35,3,0,-3,0,-6,5
14.373745,-7,-17,-1,0,4,0,-2,2,5
14.375456,5,-1,-3,0,0,-4,-2,0,5
14.375463,-7,21,-9,-4,-1,-1,0,0,5
14.387565,1,7,-9,-1,-11,-3,-1,-8,5
14.387583,5,-46,-11,-4,0,-2,0,5,5
14.396546,-15,19,19,-2,0,0,-1,-2,5
14.396551,-15,-14,1,3,6,1,0,0,5
14.411533,5,39,-3,-2,0,-1,-2,0,5
14.411549,3,-30,-8,-2,-3,-2,-2,-4,5
14.412778,-20,-32,-8,0,-2,0,1,-2,5
14.412793,-8,93,-15,-6,-5,-4,0,-3,5
14.434122,-8,-117,29,9,7,3,0,6,5
14.434146,10,53,-8,-6,-4,-2,-2,-4,5
14.436748,11,16,-3,-5,-8,-3,-3,-1,5
14.436755,-12,-4,-4,1,1,1,0,-1,5
14.447416,3,45,-19,-4,2,-1,-1,-2,5
14.447439,-14,-13,14,3,2,0,-1,1,5
14.458108,4,-17,-7,0,-2,-1,-2,-2,5
14.458113,-15,10,21,1,5,-4,0,-2,5
14.471297,7,-22,-7,-3,6,5,-1,4,5
14.471319,14,-8,7,-1,-6,-1,0,-2,5
14.472766,-8,37,-3,0,1,-1,-2,-8,5
14.472785,1,-54,5,2,2,5,1,1,5
14.493924,-14,10,-3,-4,-5,-7,-2,3,5
14.493954,0,-5,-27,-9,-9,-4,-1,-2,5
14.495950,23,15,40,5,0,1,-1,1,5
14.495956,-12,-9,-10,-2,0,0,0,0,5
14.507506,-15,40,-9,-4,-6,-2,-3,-6,5
14.507529,4,-33,4,1,3,0,-3,-1,5
14.516781,-14,8,-12,0,2,0,-1,3,5
14.516786,23,-25,-1,-2,-3,0,-3,3,5
14.533033,-25,28,-10,-2,-2,-1,-1,0,5
14.533037,1,-2,8,1,-1,-1,0,2,5
14.533039,9,-43,-6,-4,-1,0,2,-1,5
14.533087,-8,22,13,4,-1,-3,-2,0,5
14.553889,12,-60,-18,-5,8,0,1,0,5
14.553914,-22,15,10,5,2,1,1,1,5
14.555781,12,-7,-8,-2,-2,-3,-3,-2,5
14.555786,22,-27,-13,-7,-5,-2,-2,-1,5
14.567934,-15,-10,-5,2,2,-1,-2,-3,5
14.567963,19,34,17,4,7,-1,-1,-2,5
14.577931,2,5,-1,-5,-9,-1,0,0,5
14.577938,18,-7,-18,-5,-9,-2,1,-2,5
14.591376,-1,-2,-11,-2,-5,-1,-3,2,5
14.591407,-4,7,21,1,3,3,4,-2,5
14.594269,-7,-5,10,6,2,1,-1,4,5
14.594275,19,-27,-11,-8,-10,-6,-7,-8,5
14.613658,-4,2,10,2,-1,2,-6,0,5
14.613681,-10,-2,-9,-3,-10,-7,5,0,5
14.615303,13,4,-2,1,1,4,5,0,5
14.615319,-24,31,-8,-2,-1,-1,0,3,5
14.636364,8,5,0,1,-8,-3,-3,1,5
14.636382,-5,-37,-7,-2,0,-2,-3,-1,5
14.638441,-7,15,3,-2,-1,-3,-4,-2,5
14.638449,7,-14,-15,-2,2,1,2,2,5
14.651454,-14,10,1,-2,-2,-2,-1,-4,5
14.653673,3,42,-13,-3,-1,0,-1,-8,5
14.653685,11,-29,2,-3,-2,-2,-2,5,5
14.653687,-3,-40,12,6,7,3,0,1,5
14.674273,18,28,-2,-2,-2,-4,-1,1,5
14.674280,4,-8,-7,-4,-5,0,-4,-2,5
14.675264,-18,-1,-16,-3,-1,-1,-1,1,5
14.675280,-16,9,15,1,-3,1,0,2,5
14.696246,15,18,4,3,-4,-1,2,-1,5
14.696268,-15,-14,2,0,3,-6,-2,1,5
14.698364,-6,15,-18,-1,9,4,-2,-1,5
14.698370,4,-21,13,1,-3,-4,-1,4,5
14.711659,13,-1,5,-2,0,-1,0,-3,5
14.711676,-17,27,-5,-3,-4,-1,-4,-5,5
14.713074,12,-51,-8,-1,4,-1,-2,-1,5
14.713078,-6,10,16,3,3,-1,-4,-6,5
14.733894,7,-9,-12,-2,-4,2,3,2,5
14.733918,-4,8,16,-2,-3,1,0,-2,5
14.736262,5,42,-11,0,-3,-2,-3,-3,5
14.736273,-17,34,-4,0,1,0,1,-6,5
14.756314,32,-16,3,-3,-6,-2,-2,-1,5
14.756337,-19,15,-2,0,3,2,1,2,5
14.757742,-10,-4,6,1,-6,-3,-2,-5,5
14.757789,10,17,-17,-2,-1,1,0,1,5
14.771316,-22,32,-10,-2,3,-1,-2,-3,5
14.771341,-15,-51,28,1,-2,0,-1,-2,5
14.772747,9,26,4,-2,-2,-6,-3,-4,5
14.772760,-7,-22,-23,-2,10,4,0,-2,5
14.794060,-15,18,-7,-4,-2,-4,0,-6,5
14.794094,11,-25,-13,3,-2,4,1,7,5
14.795769,-16,-4,4,-1,-2,0,1,-2,5
14.795774,18,-2,3,-2,-3,-4,-2,0,5
14.816247,-9,-33,-10,1,-1,0,-1,0,5
14.816264,10,9,-6,-1,3,0,-3,-1,5
14.817991,14,-2,-1,-3,2,0,-1,-2,5
14.818029,4,-13,0,-1,-4,-1,-1,0,5
14.830476,-11,44,21,4,4,-1,-1,-1,5
14.830487,-20,-87,2,-2,-10,-4,0,1,5
14.837813,9,37,1,-3,-4,-1,0,2,5
14.837837,10,-95,11,0,-4,0,-1,-3,5
14.853751,-11,24,4,-1,5,-2,-2,-5,5
14.853774,-11,2,-8,3,14,5,0,-1,5
14.856072,-13,41,-17,-4,-3,-1,-2,-1,5
14.856081,13,15,53,6,0,-4,-1,0,5
14.878450,2,-10,-2,-4,-6,-4,-3,-1,5
14.878456,19,-9,-22,-4,-2,-2,-2,1,5
14.878458,-31,11,13,0,0,0,0,-2,5
14.878460,-1,38,-28,-4,-3,-2,-1,-3,5
14.890788,25,-9,8,0,0,1,-2,-2,5
14.890811,4,17,8,3,1,0,-2,1,5
14.897996,1,-18,-3,-3,-10,-1,0,1,5
14.898018,-16,3,-6,-4,-5,0,-1,4,5
14.913638,7,-15,-11,-5,-4,-3,-1,-2,5
14.913654,0,46,-5,-1,-1,-1,1,-1,5
14.915076,7,-81,11,3,6,-1,-2,-2,5
14.915091,19,3,-1,0,0,1,2,3,5
14.936538,-18,52,-8,-8,-11,-5,-1,-5,5
14.936601,13,-7,-9,-3,-8,0,-2,2,5
14.938421,-6,9,17,4,3,-1,-3,-1,5
14.938432,-6,16,-7,2,3,0,0,-1,5
14.950991,1,-15,-3,0,2,2,0,3,5
14.951020,3,6,1,0,1,-3,-1,0,5
14.957437,-25,49,-31,-4,-2,-2,-7,0,5
14.957459,7,-80,49,2,1,2,5,1,5
14.973739,-4,-21,-6,4,5,2,4,3,5
14.973752,-26,8,-3,1,0,-1,0,-6,5
14.975246,53,7,-17,-10,-10,-3,-4,5,5
14.975261,-19,21,-22,-1,-1,-3,-5,1,5
14.996316,-14,-24,4,-1,-3,-2,-1,0,5
14.996339,-6,-9,-1,0,2,-1,0,4,5
14.997763,-14,0,5,3,4,1,2,-5,5
14.997780,0,9,1,0,2,0,-1,-1,5
15.011226,-2,-14,5,-1,-8,-1,0,4,5
15.011266,8,-33,0,-3,-1,-3,-3,-5,5
15.017800,-9,19,27,4,-1,-2,2,0,5
15.017952,-10,-9,-33,-5,-2,-1,-1,1,5
17.037256,6,7,0,-2,0,-1,-1,-2,0
17.045513,1,-1,-1,0,-4,-1,-2,0,0
17.045521,-9,3,-1,-2,0,0,-2,-1,0
17.060425,-6,-1,1,-3,-4,-3,-2,-4,0
17.060438,-6,-3,1,-2,-5,-2,-1,-3,0
17.060440,3,-3,-3,0,-3,-3,0,-3,0
17.060442,-3,3,4,0,4,-2,0,0,0
17.081710,0,-2,-1,-1,-2,0,-2,3,0
17.081740,-20,-5,-2,-3,3,-2,-4,-1,0
17.083963,15,1,-4,-2,-4,-4,-1,-3,0
17.083982,6,3,-2,-1,1,-1,1,1,0
17.094824,-8,-7,-3,0,-1,-1,-1,-3,0
17.094839,6,0,1,0,-4,-2,0,-3,0
17.104677,-2,7,2,2,-4,1,-1,-1,0
17.104699,-4,5,2,-1,2,-1,0,-3,0
17.119156,-4,-7,-8,-5,-3,-4,-4,-2,0
17.119179,-2,-8,-4,0,-3,1,0,-3,0
17.121632,1,20,9,0,0,0,1,0,0
17.121637,-26,-29,-7,0,10,1,-4,-3,0
17.141242,6,-15,0,-4,-5,-1,0,3,0
17.141273,-2,0,-4,-2,-3,-2,-3,0,0
17.142738,2,-3,-2,-1,-2,-2,-2,-2,0
17.142753,7,15,1,2,1,-1,-1,-2,0
17.157058,-3,9,7,1,1,0,1,-2,0
17.157068,2,-6,-1,2,1,-1,-2,-1,0
17.165533,1,-7,-6,-3,-6,0,-1,-3,0
17.165540,0,7,0,0,-3,-3,0,1,0
17.178832,-2,-4,-3,0,0,-1,-2,-3,0
17.178847,9,-11,1,-2,-3,0,0,-1,0
17.180218,-7,12,-7,-6,2,-1,-3,-1,0
17.180227,10,0,-2,-1,-4,0,-2,-1,0
17.201424,5,2,-2,-1,1,-1,1,0,0
17.201454,-11,-2,3,2,-1,-1,0,-2,0
17.203656,-9,-5,-3,-1,-3,-2,-1,1,0
17.203664,9,-1,2,-4,0,-1,0,1,0
17.215278,-2,2,-4,-1,-3,-1,-2,4,0
17.215307,-2,1,-10,1,-3,0,-3,-2,0
17.225672,1,-11,4,0,-2,1,-1,0,0
17.225679,-4,0,-3,-1,-1,-2,-1,0,0
17.238964,-2,-2,8,2,1,1,1,2,0
17.238986,1,-1,-6,-4,-1,0,-2,-1,0
17.240316,-4,0,1,0,-6,2,-1,-1,0
17.240333,-1,2,2,-1,12,-3,-3,-3,0
17.261666,6,-7,-7,2,6,0,-2,-1,0
17.261683,-5,-10,-3,0,-3,-1,-1,0,0
17.263110,8,3,8,1,-4,0,0,1,0
17.263125,-6,6,-1,-2,-5,0,2,2,0
17.275101,15,4,-9,-5,-5,-3,-2,-3,0
17.275124,6,3,3,-2,3,0,-2,3,0
17.284774,-4,-14,-13,-1,0,-2,0,1,0
17.284786,-8,14,10,1,-9,-2,1,3,0
17.299367,5,9,4,-2,-1,-1,-2,3,0
17.299372,2,17,0,-2,1,0,0,2,0
17.300232,1,-45,-10,-2,-1,-3,-2,0,0
17.300240,-1,-6,-1,-2,0,0,-2,0,0
17.321465,2,0,-9,-1,-3,-1,-2,-2,0
17.321495,-1,8,11,2,-1,-1,0,2,0
17.323297,2,5,2,0,1,-1,-2,1,0
17.323305,2,-2,-5,0,1,0,-1,-3,0
17.335247,-13,-7,2,-2,-3,-3,0,-2,0
17.335277,-14,-3,0,-1,-1,0,0,-2,0
17.345734,6,8,3,-1,-1,-1,1,-4,0
17.345739,10,-8,-16,-3,1,-1,-3,-2,0
17.358948,-8,6,6,-1,-2,0,-1,2,0
17.358971,-2,0,0,0,3,-3,1,-4,0
17.361022,-14,5,1,1,0,1,2,-2,0
17.361031,12,3,-4,0,0,0,-2,0,0
17.381937,-15,-11,-2,-1,-3,-2,-1,-7,0
17.381966,-8,-5,-6,-3,-4,-3,-4,3,0
17.384243,-1,1,12,0,0,-3,-2,-1,0
17.384254,-4,11,-6,0,-2,-1,1,-4,0
17.394905,-12,-10,-4,-1,0,0,2,-1,0
17.394926,2,-1,2,-1,-2,-1,-1,-6,0
17.404842,8,7,0,0,0,-2,-2,1,0
17.404850,-7,0,6,-2,-2,-3,-1,0,0
17.418878,2,4,1,-1,-2,0,-1,1,0
17.418902,-10,3,-8,-3,-4,-2,-1,-2,0
17.420675,-19,-20,-7,-4,1,-1,-2,-2,0
17.420682,-14,-9,0,1,-15,1,-1,-2,0
17.441416,0,7,-1,-2,3,-2,-4,0,0
17.441438,3,-10,-6,-1,-2,-1,2,-4,0
17.444551,-8,7,2,-2,-1,-1,-2,-3,0
17.444558,-10,-14,-3,-1,-4,0,0,-2,0
17.463903,1,4,4,-1,-1,-2,-1,-4,0
17.463927,3,8,4,-1,1,-2,-2,1,0
17.465256,4,6,-4,-3,-6,-1,0,-1,0
17.465273,3,-7,4,1,28,-1,-1,-2,0
17.479429,2,-2,-6,-4,-12,-1,0,1,0
17.479459,4,-5,-3,-1,1,-1,-2,-3,0
17.482104,-6,2,3,0,2,0,1,-2,0
17.482115,1,1,5,-2,-1,1,2,1,0
17.501508,1,-5,-6,-2,2,-1,-1,-1,0
17.501530,-20,-9,0,-3,-1,-2,-1,0,0
17.503138,24,18,-5,-2,-1,-3,-2,-4,0
17.503160,-1,-3,0,-1,-6,0,0,-2,0
17.523698,-20,0,-8,-2,2,1,0,1,0
17.523716,19,-8,5,0,-4,-1,-2,-2,0
17.525418,6,8,-9,0,1,-1,-1,1,0
17.525432,-25,-2,0,-2,-3,-3,-1,1,0
17.538954,-8,-5,2,1,-3,-1,-2,-3,0
17.538973,-4,-2,-6,-1,2,1,-1,2,0
17.540272,-2,-1,1,-2,-14,1,-1,0,0
17.540284,8,-5,-10,-3,-6,0,-1,1,0
17.561720,0,0,8,0,1,-2,0,-3,0
17.561726,3,2,-7,-1,2,-2,0,-2,0
17.562647,5,-6,1,0,-2,-3,-2,1,0
17.562663,-9,1,-6,-5,-9,-1,-1,0,0
17.584401,7,3,-3,1,7,1,-2,0,0
17.584431,-6,-18,11,2,-7,0,0,-3,0
17.587265,-10,-8,-4,-1,2,1,-1,0,0
17.587277,13,0,0,0,0,0,-1,-1,0
17.599143,6,-3,-3,-2,-1,-3,-1,-2,0
17.599173,3,8,-2,-2,0,-1,-1,-2,0
17.601527,-9,0,0,-1,1,-1,-1,-2,0
17.601538,5,-2,3,-1,-2,1,-2,0,0
17.621412,-8,3,9,2,-2,-1,0,-5,0
17.621439,-3,-6,4,-2,1,-1,-1,1,0
17.623106,-6,-3,1,-2,0,-1,-2,0,0
17.623112,12,0,-1,-1,-2,-3,-1,-1,0
17.643992,7,-2,-3,-2,-4,-1,0,1,0
17.644008,4,11,2,-1,1,-2,-1,0,0
17.645590,3,-5,2,0,2,-1,-1,0,0
17.645595,2,4,1,-1,0,1,-1,-2,0
17.658027,1,-8,-2,-3,-13,0,-1,3,0
17.658043,-17,2,1,2,17,-1,-3,-2,0
17.665090,-3,-15,-3,-2,-5,-2,-4,0,0
17.665113,29,-7,-1,3,1,-1,-1,-3,0
17.681820,-3,-2,-2,-2,-2,1,-1,-1,0
17.681849,7,-1,-3,-1,-7,0,1,-3,0
17.683331,4,6,-3,-4,1,-3,0,-1,0
17.683339,-10,0,-4,-1,-3,-2,-2,-1,0
17.703789,3,-2,6,3,3,-1,0,-1,0
17.703811,1,-3,-5,-2,-4,0,-1,3,0
17.705360,-6,1,-7,-2,1,-2,-2,-1,0
17.705377,-6,4,12,-1,-3,-3,-1,1,0
17.718289,4,-11,-19,-2,-1,-2,-1,-2,0
17.718317,11,4,-2,0,-5,-2,0,-3,0
17.725442,-23,-7,-3,0,-4,-1,-1,1,0
17.725465,22,-12,-4,-4,-1,-1,-1,-3,0
17.741242,-16,13,-6,-1,3,0,0,-2,0
17.741265,9,-2,1,-1,-1,1,-3,-2,0
17.742926,0,1,-7,-1,0,0,-1,1,0
17.742948,-12,0,-1,0,2,-1,-2,-1,0
17.763749,0,-2,3,0,0,-2,-2,1,0
17.763769,5,9,2,-1,-6,-2,2,2,0
17.765155,2,3,-2,4,-3,-2,-1,-4,0
17.765171,-16,-5,-4,0,-4,2,0,3,0
17.781206,4,-7,-2,-3,-8,0,-1,1,0
17.781216,-6,5,3,1,4,1,1,-2,0
17.785391,11,-2,1,-2,-3,-1,1,-1,0
17.785422,-7,17,-2,2,2,-1,0,-1,0
17.801402,-1,-5,1,-2,-2,-1,0,-4,0
17.801426,-4,-5,1,-2,-1,-2,-2,-1,0
17.802974,-1,-1,1,1,-3,1,-1,-2,0
17.802979,-4,7,-3,-1,-2,-2,-3,-1,0
17.824105,-2,1,2,-1,2,-2,1,0,0
17.824128,3,0,-6,-1,-1,-2,-1,-1,0
17.826140,0,4,5,-1,2,-2,-1,-2,0
17.826145,-5,-5,-1,-2,-1,-1,0,0,0
17.838257,0,0,-2,-1,3,-1,-2,-2,0
17.838276,3,-4,0,-2,-4,-2,-2,-2,0
17.845238,-4,0,-2,0,0,1,-1,-1,0
17.845271,4,-2,-3,0,0,-2,-1,-1,0
17.861639,2,-1,5,0,-1,-1,-1,2,0
17.861664,-11,-1,-4,-1,0,-1,-2,-3,0
17.862854,-9,-6,-2,-5,5,-1,-1,-1,0
17.862873,12,-7,-1,-3,-2,-2,0,-3,0
17.883865,-7,1,-1,-1,-14,-1,-3,0,0
17.883888,-11,-1,-1,-2,6,-2,-1,1,0
17.886290,9,2,1,2,7,0,0,0,0
17.886297,-5,2,0,-2,-1,-1,0,0,0
17.898233,-4,-7,-3,-2,-4,-2,-1,-4,0
17.898258,4,-3,-2,-2,-8,-1,0,-2,0
17.905117,-1,6,-4,-3,-2,-2,0,0,0
17.905146,-5,3,2,0,-1,0,-1,-1,0
17.923069,7,2,3,-4,0,-1,-1,-2,0
17.923076,-4,1,2,-1,-1,-1,-4,-7,0
17.923079,-9,-4,-3,1,0,0,0,0,0
17.923081,0,-10,-1,-2,-4,-2,-1,-3,0
17.944210,4,2,-4,-4,2,-1,1,-1,0
17.944232,-9,-8,-5,-2,-2,1,1,2,0
17.946109,7,-2,-2,1,-2,-1,0,-1,0
17.946113,-9,-2,-1,0,-2,-2,1,0,0
17.957355,-1,10,2,1,3,-2,-1,0,0
17.957372,-2,-14,-4,-1,-3,0,-1,0,0
17.968459,-1,8,-1,-3,-3,0,-2,-4,0
17.968468,-10,-1,0,-3,0,-1,-1,-1,0
17.981428,3,-2,-2,0,2,-2,-1,-3,0
17.981450,6,8,-1,-1,-2,-1,0,2,0
17.983944,4,-2,2,-3,-3,0,-2,0,0
17.983954,-2,-10,-5,0,-5,-1,-2,-3,0
18.003798,-10,3,-1,-2,28,-2,0,-2,0
18.003822,9,2,1,-1,-4,-1,-1,-1,0
18.005426,-6,0,3,-1,-6,-2,1,-1,0
18.005446,-8,-14,-2,-2,1,-3,-2,0,0
18.017430,6,17,-5,-1,-4,1,1,0,0
18.017462,0,-3,10,1,-1,1,-2,-1,0
18.028006,4,5,0,1,2,-1,-2,0,0
18.028013,-2,0,-1,-2,0,2,1,4,0
18.041525,-4,-1,-6,-3,-6,-1,-1,2,0
18.041547,3,5,3,-1,0,-1,1,1,0
18.043888,-2,-6,-8,-2,-6,-1,-2,0,0
18.043892,1,7,-1,0,-1,-2,-2,-2,0
18.063735,2,-7,1,2,-3,0,-2,-1,0
18.063752,-10,3,0,-1,-1,-2,1,2,0
18.065599,3,-4,4,0,-1,-1,-2,-1,0
18.068547,-10,-9,-12,-4,-2,0,-2,0,0
18.077471,28,0,-3,-1,-3,-1,0,3,0
18.077478,-9,-14,-4,-1,-2,0,-2,-6,0
18.088254,5,14,-5,-1,1,-1,0,-1,0
18.088263,-8,-24,0,-4,2,-2,-2,-1,0
18.101315,-11,-1,3,-1,-5,0,-1,-4,0
18.101351,4,4,-3,2,2,-1,-2,-2,0
18.103458,7,1,1,0,-3,0,0,0,0
18.103467,10,9,-1,2,-3,-1,1,-2,0
18.124288,-7,-4,-1,-1,-3,-1,-2,0,0
18.124295,1,-1,-1,-2,-3,-3,-2,0,0
18.125295,-4,-7,-3,2,7,0,-2,-3,0
18.125310,-7,3,-3,0,-2,-2,-1,-2,0
18.137526,-3,-5,11,2,-1,-1,-1,-2,0
18.137547,10,5,-8,-2,-6,-2,-2,-2,0
18.148334,-15,-10,-2,-1,-5,-2,-3,0,0
18.148341,3,7,4,1,-1,-3,-1,1,0
18.161479,5,2,-6,-1,-1,-1,1,2,0
18.161498,-15,-5,18,1,-1,-1,-3,-1,0
18.163422,-21,11,-2,-4,-2,-3,-2,1,0
18.163426,4,-14,3,1,4,0,0,0,0
18.183913,5,6,4,-3,-5,-1,-2,-2,0
18.183940,1,28,-15,-3,-1,-2,0,0,0
18.186419,-5,-17,-1,-3,-3,-2,-1,-4,0
18.186435,0,4,6,-1,-3,0,-1,-3,0
18.197309,-17,-7,3,-1,0,-2,-1,-3,0
18.197331,1,9,-5,1,3,-1,-1,-6,0
18.206689,1,-5,-3,-1,2,0,0,0,0
18.206694,2,8,-4,-2,-2,-1,0,-2,0
18.221333,3,-6,-3,0,0,-2,0,2,0
18.221355,-5,-10,7,0,-3,0,-1,1,0
18.222738,5,5,7,1,-2,0,0,1,0
18.222753,21,-10,-6,-1,0,-1,-1,-1,0
18.243629,-33,4,-2,0,0,-2,-1,-2,0
18.243663,-4,-21,-1,-2,0,0,-1,-3,0
18.244440,6,2,-3,0,-3,-1,-1,1,0
18.244444,0,12,0,0,0,2,0,1,0
18.266068,6,5,6,-2,-1,0,-2,-2,0
18.266076,-8,3,-3,-2,-1,-2,-1,0,0
18.266227,2,-14,-1,0,6,0,0,-2,0
18.266234,-13,2,0,-2,-5,-3,-3,1,0
18.282944,4,-10,-4,1,-2,0,-1,1,0
18.282950,-4,-2,-4,-1,0,-1,-2,1,0
18.282952,4,4,1,-2,-3,0,-1,-2,0
18.282954,-9,4,0,-1,0,-1,-1,0,0
18.303059,18,-11,-3,1,-3,0,-1,-4,0
18.303081,6,12,1,-3,-3,-2,-2,0,0
18.304430,2,-16,0,1,-7,-2,-1,-3,0
18.304442,-13,-17,-6,0,-5,-1,0,-1,0
18.325624,3,7,-1,-1,-1,-1,0,-1,0
18.325646,8,-6,-11,0,2,-1,-1,-3,0
18.327003,9,0,1,-1,0,-3,-1,-1,0
18.327014,4,8,6,1,1,-2,0,-1,0
18.340926,-11,-9,-3,1,-2,-1,-3,2,0
18.340949,13,-4,1,-2,4,1,1,1,0
18.343533,13,10,2,-1,-1,0,1,3,0
18.343538,2,-5,-7,-1,1,-2,-1,-3,0
18.363027,-10,34,-2,-2,3,-2,-1,1,0
18.363051,3,-23,4,-3,-9,-3,-1,0,0
18.363694,9,-10,-3,-2,4,1,1,-3,0
18.363709,4,5,0,2,-1,-1,-1,-2,0
18.385781,3,-5,1,3,-15,2,-2,-2,0
18.385803,2,10,-1,3,-2,2,2,0,0
18.387416,-12,1,-3,-4,-3,-1,-2,3,0
18.387421,3,-2,4,-3,0,0,-2,-1,0
18.400568,-8,-11,-18,-3,-5,-1,-1,-1,0
18.400592,-3,-8,2,-2,1,1,1,-2,0
18.402418,-3,21,3,-1,-2,-1,-2,0,0
18.402431,6,-24,-2,0,-6,1,0,-2,0
18.423123,-13,-7,2,-1,3,-1,-1,0,0
18.423147,-6,-6,-6,-2,1,-3,-2,-3,0
18.423851,1,3,-3,-2,1,-1,-2,0,0
18.423868,1,17,2,-3,1,-1,0,4,0
18.445553,-5,-4,-3,0,2,-2,-1,3,0
18.445576,5,-8,11,1,1,0,-1,1,0
18.446881,-30,-4,1,-1,-3,-1,-2,-2,0
18.446885,-4,1,-3,0,0,1,0,-1,0
18.461005,0,-16,-1,-4,2,-2,-1,-4,0
18.461035,-3,1,-10,-4,-3,-2,0,-1,0
18.462645,-3,-3,0,-1,-9,-2,-1,-3,0
18.462650,-4,3,0,-3,-12,-1,-2,-2,0
18.486104,5,-2,3,-1,2,0,-1,-1,0
18.486110,2,2,-6,-1,0,-1,-3,-3,0
18.486112,4,-3,-2,1,-1,-3,-1,-5,0
18.486113,-16,-8,-3,0,1,0,0,-6,0
18.505687,6,6,2,-1,-1,-2,-1,2,0
18.505711,-3,2,-1,-1,-2,-1,-1,2,0
18.506691,-15,-6,-4,-1,-1,0,-1,-1,0
18.506697,7,-6,0,-1,1,-2,-2,-1,0
18.520750,0,10,3,1,2,-3,-1,-1,0
18.520788,-15,-2,0,-2,1,-1,1,-1,0
18.522583,22,2,-6,-2,2,-1,-1,-1,0
18.522588,-16,1,3,0,2,-1,0,1,0
18.543029,-5,0,-8,-1,1,1,1,-4,0
18.543046,6,-8,-7,-2,-3,-1,-3,-2,0
18.545438,-1,19,2,0,-2,-1,1,-1,0
18.545444,1,3,-2,2,1,-2,-3,-2,0
18.565739,-6,-9,3,-1,-3,1,0,5,0
18.565759,-1,10,-4,-1,0,-2,1,-1,0
18.566488,2,-26,-4,-1,1,-2,0,-3,0
18.566509,4,6,7,-1,1,-2,0,3,0
18.580879,7,-1,0,-2,-3,-1,0,0,0
18.580900,-18,-5,1,1,0,-2,-1,-2,0
18.583077,-1,2,1,0,1,-2,-1,2,0
18.583081,9,9,-3,-1,-13,0,0,-2,0
18.603163,-7,-4,0,-1,11,-3,-2,0,0
18.603189,3,2,-4,-2,-3,2,-1,0,0
18.605101,0,-9,-1,-3,-3,-1,-3,-1,0
18.605106,0,8,11,2,-1,1,-1,-2,0
18.625550,1,2,-4,-1,-3,-1,-1,1,0
18.625563,4,-5,-3,-1,1,-1,-1,1,0
18.626203,-14,-3,-2,0,1,-1,0,0,0
18.626214,12,9,-7,-2,4,-1,-1,0,0
18.648996,6,-24,4,0,-2,1,1,0,0
18.649025,-4,-6,-7,-5,0,-3,-3,-2,0
18.652600,13,9,6,1,-1,0,-1,2,0
18.652609,-16,-10,-16,-3,1,-1,-1,-1,0
18.663235,-3,-1,2,0,-2,-2,-1,-2,0
18.663259,-1,0,-2,0,-5,-1,0,-2,0
18.665548,0,3,0,0,-1,-2,-1,-2,0
18.665556,-1,-3,-1,0,3,-1,0,1,0
18.688055,11,16,-1,-3,-5,-1,-2,-3,0
18.688068,-3,-25,-4,-2,1,-1,-2,-1,0
18.688070,-16,-1,-6,-2,-1,0,-2,0,0
18.688071,10,1,14,2,1,0,-2,-1,0
18.703521,0,4,-5,-2,6,-1,-1,4,0
18.703527,10,20,6,0,-4,-1,0,0,0
18.703529,-5,-5,-7,-2,-1,-1,0,-1,0
18.703531,-6,-9,-4,-3,-2,-2,-2,0,0
18.723245,-3,7,-2,-1,-2,-3,-1,-3,0
18.723263,21,4,0,-1,0,-1,0,-2,0
18.723825,4,-2,5,-2,-14,-2,1,0,0
18.723842,13,-6,-1,1,2,-2,-1,0,0
18.745485,-9,10,-2,0,-1,-1,-2,-1,0
18.745507,-10,-24,5,2,17,-1,-2,1,0
18.746349,4,4,-2,-3,-15,0,0,-2,0
18.746353,-10,1,0,-2,-1,0,1,-4,0
18.760645,6,1,-2,0,-4,0,-1,1,0
18.760666,-7,10,-2,1,-4,-1,-1,-1,0
18.762346,6,-5,5,0,7,-2,-2,-1,0
18.762350,2,-4,-14,-3,-2,-3,-1,1,0
18.783071,-10,-4,1,0,0,0,0,-2,0
18.783087,-5,-4,-7,-3,-2,-3,-3,-5,0
18.783883,-17,-10,2,0,0,1,-1,1,0
18.784099,-1,9,-2,-1,-2,0,-1,2,0
18.805776,2,-9,-3,-2,-4,-1,-1,-2,0
18.805794,2,13,13,3,-2,0,0,2,0
18.807193,2,3,-4,-2,4,-2,0,-1,0
18.807198,-12,-9,-1,0,1,-1,-1,-3,0
18.820688,1,5,-2,-1,-1,0,-2,0,0
18.820716,-4,-27,-3,-1,-6,0,-2,2,0
18.822160,-4,1,-7,0,8,-1,-1,-4,0
18.822164,-12,-3,-3,-3,0,0,-3,-1,0
18.844330,13,-3,3,-1,-2,-1,-2,-4,0
18.844335,1,15,-2,-2,-4,-1,0,1,0
18.844337,-15,-4,1,0,-8,-1,-2,-2,0
18.844339,25,8,3,-1,15,-4,-3,-4,0
18.865624,-27,4,-1,-1,-4,-1,-1,-4,0
18.865646,34,-5,-7,-1,-2,-2,0,-4,0
18.868619,-2,-3,-5,-3,4,-1,-2,-1,0
18.868637,-2,3,2,-1,-8,-2,-2,-1,0
18.880752,9,3,0,0,0,-2,-1,0,0
18.880773,-11,7,0,-2,1,-2,-1,-3,0
18.882428,14,-1,2,1,3,0,-3,-2,0
18.882434,-5,0,-5,-2,-4,0,-2,-3,0
18.903229,-7,-8,-1,-1,1,-2,-1,-1,0
18.903249,-13,-1,2,-2,-6,1,2,1,0
18.905039,1,-1,-3,-1,1,-1,0,-4,0
18.905044,-12,5,1,-1,-3,-1,-3,-3,0
18.925634,-5,-13,-4,-1,0,-1,-1,0,0
18.925659,-8,3,0,1,4,0,-3,1,0
18.926293,0,5,2,-2,1,1,0,-3,0
18.927779,-3,-8,-3,-1,-2,-2,1,-1,0
18.940573,3,2,1,-2,-2,-1,1,-1,0
18.940595,3,5,6,2,-3,-2,1,1,0
18.941142,-4,6,-8,0,0,-1,1,-2,0
18.941162,1,-16,1,-2,-17,2,0,2,0
18.963154,-6,3,-5,-2,4,-2,-4,-3,0
18.963180,-18,-7,-5,-1,-2,0,0,0,0
18.963986,21,11,8,-1,-3,-4,-1,-1,0
18.963990,-5,-5,-6,-1,0,-1,1,-1,0
18.985687,6,-3,-2,1,-4,-1,1,-1,0
18.985710,0,4,-10,-1,-2,0,0,0,0
18.986462,-6,-5,0,1,-1,-1,-2,-3,0
18.986477,1,-1,-8,-3,0,-2,-1,2,0
19.001407,2,-12,6,-2,1,2,-1,2,0
19.001449,7,34,-1,-3,-2,-1,-1,-3,0
19.004811,-24,-30,-5,2,3,1,-2,-3,0
19.004821,13,6,2,-1,3,0,-2,-2,0
19.023116,-6,-9,-9,-2,-1,-2,0,-4,0
19.023138,3,-6,1,0,-3,0,0,0,0
19.024254,-5,28,4,-3,-1,-2,-1,2,0
19.024261,-12,1,-1,0,-1,-1,0,-1,0
19.045437,25,-4,-3,1,-3,1,-1,-2,0
19.045493,-1,-15,-1,-1,-1,-2,0,-5,0
19.046187,11,-4,-7,-3,1,-1,-2,-1,0
19.046199,-11,1,8,1,3,0,-1,-3,0
19.060044,-6,2,0,-1,8,-3,-2,1,0
19.061779,-2,-4,-5,-2,-5,-2,-1,-2,0
19.068311,4,-6,-5,-3,-4,-2,0,-1,0
19.069602,-3,5,-2,-1,2,-2,-3,-2,0
19.083032,-1,3,-4,-1,-3,-2,0,-1,0
19.083053,-5,-1,8,1,2,1,-3,-4,0
19.085812,-3,-5,2,0,-2,0,-2,1,0
19.085829,-1,0,-5,-3,-5,0,0,2,0
19.106775,9,6,7,2,-4,-1,0,-1,0
19.106784,-18,-7,-5,-3,-3,-2,-2,0,0
19.106787,8,19,-2,-2,-3,1,0,-2,0
19.106790,7,-8,7,-1,0,1,0,-2,0
19.121712,-5,-2,-4,-3,-8,-1,-2,2,0
19.121723,6,7,4,5,3,-2,-1,-3,0
19.128092,2,14,6,1,0,-2,-1,-1,0
19.128114,-31,-23,-12,-5,2,-2,-1,-1,0
19.143625,-1,-1,2,0,-5,1,-1,0,0
19.143650,1,0,-1,-2,-1,-1,-2,-3,0
19.146206,-11,-8,-10,2,5,0,-1,-2,0
19.146213,29,6,1,0,-9,-2,0,-1,0
19.168346,-6,-8,-3,-3,-3,-2,-2,0,0
19.168360,-1,-2,10,-1,3,-2,-3,1,0
19.168363,0,0,-10,-1,-5,-2,-1,1,0
19.168364,-3,-5,-3,1,-1,-3,-1,-5,0
19.180441,-10,8,1,0,3,-3,-2,0,0
19.180482,6,-2,1,-2,-6,-1,-1,2,0
19.188126,-11,-15,-6,-4,-3,-2,-1,0,0
19.188146,4,9,5,0,0,2,0,3,0
19.203420,-3,-5,-4,-2,1,1,1,2,0
19.203441,-6,7,-2,-1,1,0,0,2,0
19.204641,-2,-18,4,0,-3,-1,-1,-2,0
19.204649,-19,-2,6,0,2,0,-1,-1,0
19.225721,-2,-2,-4,-1,-1,1,-1,-4,0
19.225744,3,-4,-1,1,2,1,1,-2,0
19.227921,-11,11,-3,-3,-1,-1,-1,0,0
19.227929,17,-11,-6,-2,-2,-1,-1,-1,0
19.239993,-14,11,0,-2,-1,1,0,-4,0
19.240015,7,10,0,-3,-1,1,-1,0,0
19.247945,-1,-5,1,-1,-1,-2,-2,-2,0
19.247954,2,8,-4,-1,0,-2,0,-1,0
19.263007,1,-4,8,3,-2,-2,-2,1,0
19.263023,7,-3,-5,-1,4,-1,1,-3,0
19.263671,-11,-6,0,-3,-2,-1,0,-1,0
19.263685,-6,-1,1,0,0,0,-1,0,0
19.285740,9,-9,-13,-4,-2,-3,-3,-3,0
19.285761,-12,-3,1,0,-4,-1,-1,-2,0
19.288373,10,-4,5,0,1,0,0,-2,0
19.288381,4,18,-1,-1,1,-3,-1,0,0
19.300270,-18,-10,-6,-1,0,-2,0,-4,0
19.300298,-11,-4,4,-1,0,-1,-2,-1,0
19.308011,16,1,-1,0,-1,0,-1,-1,0
19.308033,-8,4,2,-1,-2,-1,-1,0,0
19.323342,1,1,4,1,0,-1,-2,-2,0
19.323348,-14,-17,1,-3,-3,-2,-2,0,0
19.323698,2,17,-11,0,-1,-2,-1,-2,0
19.323707,-11,-27,0,-1,-1,0,0,-4,0
19.345859,4,1,1,-1,-3,1,0,-1,0
19.345882,3,-2,-1,1,-1,-1,0,0,0
19.348278,0,-2,3,-1,-1,0,-2,1,0
19.348287,12,18,4,0,-12,-3,-2,1,0
19.371061,-18,-7,-8,0,12,0,0,-1,0
19.371074,12,-11,-8,0,-2,-4,-2,-2,0
19.371076,-19,5,9,1,-1,-1,-1,2,0
19.371077,17,-20,-10,-1,-3,-2,-1,-2,0
19.386338,2,3,5,2,-2,-2,0,-1,0
19.386351,7,9,-3,-1,1,0,0,4,0
19.386353,-3,-17,-4,0,1,-1,1,-2,0
19.386355,-7,14,5,-2,2,-2,-3,-4,0
19.405636,2,-25,1,-2,-5,0,0,-1,0
19.405653,0,0,-3,-2,0,-1,-1,-3,0
19.406664,5,-3,0,3,-1,1,-1,-3,0
19.406670,-8,1,-5,-3,-3,0,0,-1,0
19.428774,7,2,-5,-3,1,-2,-1,-2,0
19.428796,-7,3,-1,0,-4,0,0,2,0
19.431094,19,-1,0,-2,-1,-1,0,-1,0
19.431098,-2,2,2,0,3,-1,1,-1,0
19.443858,-10,5,-2,1,-4,-1,-2,2,0
19.443880,8,-4,-2,-2,3,-4,-2,0,0
19.445578,-3,5,-4,-2,-7,-1,-1,-1,0
19.445583,-8,-7,4,0,4,0,-2,-3,0
19.465920,10,-2,5,0,0,-1,1,0,0
19.465950,-14,1,-9,0,-4,1,-1,0,0
19.468089,15,-2,5,-3,0,-1,-1,-2,0
19.468094,2,16,-6,-2,0,-2,-2,-2,0
19.488968,-1,6,3,-1,-7,0,1,0,0
19.489909,-13,-11,3,-1,0,-1,0,-2,0
19.489914,-10,-12,-5,-2,-2,-2,-2,-2,0
19.489916,-10,-18,0,0,-1,-2,-2,-2,0
19.503100,9,10,5,1,2,0,-3,4,0
19.503133,5,12,-6,-1,0,-1,-1,-5,0
19.505190,-6,-2,-2,-3,3,-2,-2,-1,0
19.505197,-7,-6,2,0,0,0,0,4,0
19.525687,3,2,-5,-4,-2,-2,-2,-2,0
19.525712,-12,0,-3,0,-8,-1,1,1,0
19.526163,-12,-18,-6,0,2,1,-1,-1,0
19.526179,-1,-4,0,1,1,-1,0,-3,0
19.549166,-2,-3,-2,-2,-1,0,-2,-3,0
19.549195,2,9,2,-4,-3,1,0,-1,0
19.552425,-1,-1,-2,0,-1,-1,1,-1,0
19.552439,4,1,7,2,-9,0,-1,-1,0
19.563274,-6,8,-12,1,9,-2,-3,-4,0
19.563296,4,-13,-1,-3,3,0,-1,0,0
19.565702,-14,5,4,0,-3,-2,-3,0,0
19.565712,9,-1,-4,-1,-2,2,0,1,0
19.588017,-3,-1,1,-2,-7,-2,-2,0,0
19.588030,23,5,2,0,-2,-1,-2,0,0
19.588032,4,-7,-3,-3,-1,-2,0,-1,0
19.588034,-14,3,-2,0,1,0,0,0,0
19.609182,22,-14,-2,0,0,-3,-1,-3,0
19.609205,7,1,-1,-1,2,-1,0,0,0
19.610785,-3,7,2,-1,-2,0,0,-3,0
19.610791,0,-23,-12,-2,1,-3,-3,-2,0
19.623158,-22,-9,-4,-2,-3,-1,-2,2,0
19.623183,-6,1,3,-2,-4,0,-2,-4,0
19.623873,4,6,3,0,-1,0,0,-1,0
19.623886,5,10,2,0,1,0,0,-1,0
19.646039,1,3,-7,-4,-2,0,0,1,0
19.646068,-4,-11,-5,1,0,-1,-2,-3,0
19.649475,0,-2,1,-1,0,-2,-1,-2,0
19.649479,-6,4,0,-1,0,-3,-1,-1,0
19.669045,0,-3,-1,-1,-1,-2,1,-3,0
19.669070,-8,4,1,-3,-1,-2,-2,0,0
19.670928,5,5,3,0,-4,-1,2,-1,0
19.670937,-7,3,-1,-2,-2,-1,-1,-2,0
19.683290,-3,-3,0,-1,16,-1,0,-4,0
19.683325,-17,-7,3,-1,-5,0,-2,-1,0
19.684207,3,-1,-8,-1,1,1,-1,-3,0
19.684382,2,-7,-1,0,1,-1,-1,-2,0
19.705642,11,22,4,2,-3,0,1,1,0
19.705659,-25,-16,-5,-1,0,1,-1,-2,0
19.706665,-2,-8,-7,-2,0,-2,-3,2,0
19.706670,2,12,2,-1,-3,3,0,3,0
19.727843,-1,3,-3,0,-6,0,0,2,0
19.727850,14,5,-1,2,-1,-1,1,5,0
19.735611,-4,-1,2,0,-2,1,-1,-1,0
19.735634,1,-4,-4,-2,1,-1,-1,-3,0
19.743228,3,-2,10,0,-3,-1,1,2,0
19.743270,-5,2,-1,-1,0,-1,-2,1,0
19.744197,-13,-19,-11,-1,-1,-1,-1,-1,0
19.744223,5,3,11,0,-1,-1,-1,1,0
19.765673,-5,-5,-1,-6,1,-2,-4,-2,0
19.765694,-1,6,4,0,-2,-1,-2,2,0
19.768970,5,9,4,1,0,-1,0,-2,0
19.768979,1,1,0,1,1,0,0,0,0
19.788826,-2,-12,-13,-1,-6,0,0,-3,0
19.788843,11,3,9,-1,-11,-1,-2,-4,0
19.789562,5,7,-6,-1,-1,-1,-3,0,0
19.789575,-20,-6,-4,-4,0,-1,-2,-1,0
19.804255,-4,5,7,1,-2,0,0,2,0
19.804265,11,-8,-8,-3,-3,-2,-1,0,0
19.811608,9,7,4,1,0,-1,-1,-1,0
19.811645,0,0,-6,-2,-2,-2,0,0,0
19.825585,-2,-3,0,-2,-4,0,-2,1,0
19.825609,3,6,-1,-1,5,0,0,-1,0
19.826717,-2,1,7,0,-2,-1,-2,2,0
19.826725,-3,-5,-4,-1,0,-3,-1,-2,0
19.849241,10,2,2,-1,0,0,-1,0,0
19.849250,4,-4,-5,0,2,1,0,-1,0
19.849456,11,-10,2,2,3,0,0,-3,0
19.849503,8,18,-7,-2,-4,-2,-2,1,0
19.863328,-10,-27,5,1,-1,-2,-2,-1,0
19.863352,-13,-5,3,0,-7,1,0,-3,0
19.864670,0,1,0,-2,26,-1,-2,-2,0
19.864678,18,10,1,-1,-1,0,-1,-1,0
19.885696,-6,6,-5,-5,-5,-3,-3,-2,0
19.885720,3,0,-8,2,3,-1,1,0,0
19.887082,-7,-5,1,-1,-8,-1,0,3,0
19.887092,-14,-14,-2,0,1,0,-2,-4,0
19.908800,0,8,2,-2,-3,-1,-2,-1,0
19.908821,-5,-13,-5,-2,3,-2,-1,2,0
19.909814,-2,2,-4,-2,-7,0,0,3,0
19.909819,2,6,4,2,-1,0,-1,0,0
19.923043,-12,-12,-5,-2,-6,1,-2,-2,0
19.923060,-2,-3,-1,0,0,0,-1,-3,0
19.924063,-5,3,0,-2,-4,-1,0,1,0
19.924067,0,-5,-1,0,0,-2,0,-1,0
19.945656,4,7,2,1,3,-2,0,-4,0
19.945684,-3,11,0,-3,-2,0,-2,0,0
19.946434,-5,-5,1,1,-1,1,0,1,0
19.946462,-3,6,1,-4,-3,1,-1,-4,0
19.968793,9,6,-3,0,-2,-1,-1,-1,0
19.969949,-15,-9,2,1,7,1,-1,-2,0
19.969956,1,1,-2,-4,-7,-1,-2,1,0
19.969957,-2,6,-9,-2,-12,-1,1,-1,0
19.982520,-19,-25,11,0,7,-1,-1,-1,0
19.982542,4,2,-8,-3,-2,-1,-2,-3,0
19.990543,3,6,1,-2,-2,-2,1,-4,0
19.990565,-9,-11,-2,0,0,0,0,2,0
20.008542,5,10,-3,-2,0,-2,-3,-3,0
20.008548,6,4,0,-5,-3,-4,-1,0,0
20.008550,-8,-3,2,0,-6,1,0,-1,0
20.008552,3,-3,1,0,12,-2,0,-2,0
20.028854,0,6,-3,3,0,1,-1,0,0
20.028883,-4,-5,3,-2,4,0,0,0,0
20.030391,-1,5,-7,-2,-5,-2,1,-3,0
20.030395,-1,-11,-5,-3,-2,-1,0,-3,0
22.053995,13,9,3,1,2,1,0,-3,5
22.054252,-2,-1,2,4,1,1,1,0,5
22.055358,1,-11,-4,-6,-6,-1,-2,0,5
22.055545,11,5,11,3,0,-1,0,-1,5
22.067667,-11,-9,-16,-8,-5,-5,-2,3,5
22.067693,3,1,4,-1,-2,-1,-1,-2,5
22.076989,-9,12,3,3,5,0,2,0,5
22.077014,6,-21,-3,2,0,1,-1,-3,5
22.091175,2,-23,-1,-1,-4,0,-2,-1,5
22.091192,-3,25,-3,-3,-2,0,1,-1,5
22.093044,-10,-46,-4,-8,-5,-3,-2,-4,5
22.093180,-22,7,-11,-8,-5,-1,0,-1,5
22.113708,5,12,12,6,3,-1,-1,-1,5
22.113731,2,-8,1,0,-1,0,-1,0,5
22.115119,8,17,7,2,-1,1,-2,0,5
22.115135,13,-26,-11,-2,-2,-2,-2,-2,5
22.127646,-8,6,-10,-5,0,-1,0,-3,5
22.127674,-13,-41,-8,0,-2,-2,-2,-1,5
22.137400,7,25,4,-3,0,0,-1,1,5
22.137408,-9,-5,3,2,4,2,0,-2,5
22.151276,31,9,-3,-8,-4,-1,-1,1,5
22.151301,-3,11,9,2,1,1,-2,2,5
22.153732,10,-13,-14,2,-2,-1,-1,-2,5
22.153739,1,-14,-8,-8,-5,-2,-2,4,5
22.173724,7,15,17,9,1,0,1,1,5
22.173735,0,23,-1,-3,1,0,-2,3,5
22.175212,-3,-24,6,-2,-3,-1,-3,-2,5
22.175233,-1,13,2,0,2,-2,-3,0,5
22.187493,-1,-19,-9,-1,-1,0,0,-5,5
22.187517,7,-8,-2,-4,-4,-3,-2,-4,5
22.197122,-7,24,-1,2,0,-1,0,4,5
22.197128,6,12,-3,-2,0,-1,1,0,5
22.211776,-24,-16,6,-7,-4,-2,-3,-1,5
22.211796,32,-25,-3,5,-3,-1,-1,1,5
22.213038,-23,28,-4,-6,-2,-3,-2,-2,5
22.213043,1,-58,0,-1,-4,-3,0,0,5
22.236131,-5,23,-2,0,0,-1,0,-2,5
22.236145,5,-3,8,1,1,0,1,-2,5
22.236147,10,-5,-1,-2,-2,-2,-2,-2,5
22.236149,3,11,-7,-1,-2,-1,-1,0,5
22.256357,-10,15,1,3,2,1,1,-1,5
22.256373,-17,-12,16,-1,0,-2,-2,-3,5
22.258221,11,25,4,6,3,2,2,0,5
22.258226,-17,-3,-9,-6,-3,-3,-2,-1,5
22.271400,5,-14,3,-6,-3,-2,0,-1,5
22.271417,-37,-30,-12,0,2,-1,-1,-2,5
22.273924,1,6,-1,-4,-8,-2,-3,0,5
22.273929,53,40,8,1,2,0,1,0,5
22.294439,-30,-19,-13,-3,0,-1,-2,-1,5
22.294480,-13,-2,-4,-6,-7,-4,-2,1,5
22.297141,-2,-18,0,0,5,3,0,-1,5
22.297146,-16,18,-3,2,-9,-4,0,-2,5
22.316753,1,-13,-3,-3,19,2,-2,-1,5
22.316779,12,0,5,6,-16,-2,1,0,5
22.318077,3,8,-8,-4,-2,-4,-3,-3,5
22.318109,3,10,9,-1,3,3,0,0,5
22.331480,-21,22,-1,-4,-2,0,1,1,5
22.331508,6,-12,-8,2,0,0,-2,-2,5
22.333148,8,21,9,-1,3,0,-2,-1,5
22.333163,-4,8,11,3,-2,2,0,3,5
22.353902,5,-18,-14,-7,-8,-3,-2,-1,5
22.353928,-28,9,-2,-2,4,1,1,-1,5
22.355351,12,-14,-4,-3,-3,-1,-1,-3,5
22.355377,-36,10,10,1,2,0,-6,-7,5
22.376434,-3,-9,0,-1,-4,0,0,2,5
22.376440,11,32,-6,-3,-1,-1,-1,-2,5
22.377682,-13,-30,-6,-3,1,-1,0,2,5
22.377691,5,-1,-1,3,-4,1,1,-2,5
22.391701,19,18,-4,1,-3,-3,-3,0,5
22.391707,1,-15,4,-4,-1,-3,-2,-4,5
22.397344,-2,16,-7,2,3,-1,0,0,5
22.397366,0,-35,0,-4,-6,-3,-1,-4,5
22.413639,-14,12,3,-3,-9,-1,-1,-2,5
22.413662,14,-9,-4,3,4,1,0,-2,5
22.415213,-10,-14,-21,-5,1,-1,1,0,5
22.415251,-17,13,23,2,1,-2,0,1,5
22.437652,21,12,-1,-1,-2,-3,-3,0,5
22.437659,13,-18,-8,-4,-1,0,-1,-1,5
22.437944,6,0,3,3,-2,-2,-3,-2,5
22.437952,-8,39,-10,-4,2,0,0,3,5
22.451238,-8,-21,6,7,0,0,0,-2,5
22.453539,3,20,5,1,-1,-1,-3,-3,5
22.457546,3,-7,5,1,-2,-1,0,0,5
22.457568,24,-7,-9,-2,1,0,-1,1,5
22.473823,4,3,-4,-6,0,-2,-3,-2,5
22.473842,-5,13,0,-2,-3,0,0,0,5
22.475309,-19,12,0,-2,-6,-2,-2,-5,5
22.475322,11,-22,-4,-6,-1,-1,-2,-3,5
22.496921,1,20,-13,1,-1,-1,-1,-4,5
22.496950,-5,-3,5,7,2,1,2,6,5
22.499500,-2,-15,0,-9,-1,-1,-1,2,5
22.499505,3,-5,-1,7,-2,-2,-1,-3,5
22.510615,-9,-21,-4,-1,13,-1,-2,1,5
22.510637,11,26,-7,-9,-21,-3,-3,0,5
22.518107,-23,-48,10,3,-1,-1,1,-1,5
22.518141,31,-7,-22,-3,5,1,1,1,5
22.534130,1,-21,16,0,-4,1,-2,-2,5
22.534155,-14,11,-1,-3,0,-2,1,1,5
22.535588,-3,-3,-5,5,2,1,2,2,5
22.535612,12,6,-5,-3,-5,-1,-2,2,5
22.556394,6,-2,-5,-1,-2,-3,-2,-1,5
22.556411,-15,-25,0,-1,7,-2,-1,1,5
22.557907,9,-4,-4,-7,-8,0,0,-1,5
22.557911,2,13,1,0,2,-2,1,1,5
22.570647,-3,-28,-1,9,-2,0,0,1,5
22.570671,-1,2,-2,-5,3,-1,-4,-1,5
22.577675,3,12,-1,0,-5,-4,-2,1,5
22.577779,-16,-14,2,0,1,0,1,1,5
22.593830,-10,4,-6,-7,-4,0,-1,-1,5
22.593848,29,-5,10,2,2,-1,-1,-3,5
22.595242,1,14,0,-1,0,-1,-4,-1,5
22.595263,-14,-32,5,-2,-4,-2,-2,-2,5
22.616160,16,7,-2,1,-3,-3,-1,1,5
22.616183,-27,-8,-3,0,2,-1,-1,-2,5
22.618036,-5,18,11,6,4,0,1,-1,5
22.618095,22,33,-8,-6,-8,-3,-2,2,5
22.629857,66,-26,10,0,-3,-2,-1,-3,5
22.629879,5,3,0,0,0,-1,0,-2,5
22.639227,-12,-27,-10,0,1,-3,-2,0,5
22.639232,-19,2,1,-6,2,1,-1,1,5
22.655743,-19,7,-1,7,3,2,1,-1,5
22.655754,-1,-5,-3,-2,-3,-3,-2,-1,5
22.655756,7,10,6,0,-1,-1,-2,-3,5
22.655758,-10,-10,-1,3,4,0,1,-1,5
22.676476,4,23,-17,-5,-1,-2,-3,-4,5
22.677691,10,-25,18,-6,-12,-3,-1,2,5
22.677784,-22,10,-8,-3,-5,-3,0,-4,5
22.677836,-4,-4,-1,0,0,-3,-1,-1,5
22.690603,23,3,-5,-4,-2,0,0,-1,5
22.690629,-13,15,-11,3,8,3,2,-5,5
22.697809,-2,1,9,-6,-8,-4,-4,-1,5
22.697838,2,11,3,0,-4,-2,-4,-2,5
22.714399,-13,-15,2,-4,-1,-4,-1,-1,5
22.714438,-18,15,-4,-2,4,-1,-1,-2,5
22.716762,14,10,6,7,3,0,0,-2,5
22.716768,14,7,4,1,1,2,-1,-4,5
22.736448,-1,1,3,-1,-3,-1,-3,-1,5
22.736475,5,7,0,0,1,0,-2,-2,5
22.738059,-5,-10,-6,-4,1,0,1,2,5
22.738079,-11,-10,-3,1,-3,-2,1,1,5
22.750247,-7,14,5,-2,-3,-2,1,0,5
22.750270,-49,-6,-14,-5,-3,-3,-2,-3,5
22.760069,17,-1,8,-1,3,1,2,-1,5
22.760075,2,-1,-3,3,0,-1,-3,-5,5
22.773932,-9,-7,-6,-5,-8,-3,-1,1,5
22.773954,-7,15,19,6,0,1,1,-2,5
22.775977,3,17,-7,-2,2,0,-2,2,5
22.775981,6,-9,-5,-6,0,-2,-2,-3,5
22.796169,-11,-5,-3,2,-3,-1,-2,-3,5
22.796186,-9,28,-19,-5,-2,-3,-1,-1,5
22.797733,16,-60,1,-5,-1,-2,-3,-5,5
22.797748,-13,11,7,4,3,1,2,-2,5
22.811621,-9,6,2,0,0,1,0,3,5
22.811628,11,-6,-12,-1,-2,-1,-1,-1,5
22.821094,4,10,-5,-1,0,0,-2,-4,5
22.821101,-3,-7,5,5,-2,-1,-1,3,5
22.834045,-15,-1,2,-2,-1,-1,0,0,5
22.834072,17,-14,-3,-6,-4,-1,-1,2,5
22.836171,-11,10,-7,-4,-2,1,-1,-2,5
22.836179,-7,-5,1,-1,0,-1,-1,1,5
22.856579,12,36,-3,5,-4,-4,-2,-1,5
22.856584,-2,-59,6,1,2,0,0,3,5
22.857715,15,4,-12,-2,-5,-2,-2,0,5
22.857727,0,14,8,-6,-1,-1,-1,-4,5
22.869999,-18,-14,-5,-1,4,2,2,2,5
22.870021,0,2,-10,-1,0,-2,-2,-3,5
22.880711,-9,25,8,6,0,-1,0,-1,5
22.880716,12,-11,-13,-5,-7,-3,-2,2,5
22.893972,-11,26,-2,-5,-1,-1,0,-3,5
22.894002,14,-28,9,0,-1,0,-1,2,5
22.896378,-35,-3,1,2,2,1,-1,1,5
22.896385,4,-2,2,-2,1,-2,-2,4,5
22.916211,3,1,-2,-5,-3,-1,-1,-4,5
22.916235,-2,11,2,1,2,0,0,-1,5
22.918299,-18,1,-2,2,-1,-2,-1,1,5
22.918304,10,1,1,0,-3,0,0,0,5
22.929839,13,-18,-8,-2,1,-1,-3,3,5
22.929862,-3,5,13,-5,0,-1,0,-5,5
22.939139,7,5,-6,0,-1,-1,-1,-2,5
22.939144,-18,-5,4,3,-3,-1,0,-1,5
22.953841,-5,-34,5,2,4,2,-1,3,5
22.953853,1,5,-6,-2,-4,-1,0,-2,5
22.955303,33,24,-20,-4,-4,-1,1,0,5
22.955326,6,-41,0,-3,-2,-1,-4,-3,5
22.976474,-2,2,2,-4,-2,-1,-1,-2,5
22.976503,2,18,-2,3,-11,-3,-2,0,5
22.978317,6,-15,8,1,31,6,0,0,5
22.978330,-8,8,-16,-2,-10,-1,0,-2,5
22.989994,-6,13,10,0,-6,0,-1,-5,5
22.990011,1,-26,-3,-3,0,-5,-2,-5,5
23.001843,4,-11,5,0,-6,-2,0,1,5
23.001857,-3,8,-2,1,4,0,0,-1,5
23.016122,-6,0,7,1,4,-1,-1,1,5
23.016126,-11,18,-1,-1,2,0,-1,-2,5
23.016129,-13,10,-8,-4,-16,-5,-3,-5,5
23.016131,-14,-24,5,-5,2,-3,-4,-1,5
23.036383,-12,-5,1,4,-4,-4,0,-2,5
23.036406,-2,-15,-12,-5,3,0,-1,-2,5
23.038443,-13,9,29,1,-9,-3,-5,0,5
23.038456,9,-24,0,6,0,3,1,0,5
23.050341,6,19,1,-3,1,0,-2,0,5
23.050366,18,3,-7,0,1,-1,0,-2,5
23.060512,11,-10,-11,-2,-1,-1,-1,-4,5
23.060527,-9,7,-4,-5,-3,-1,0,-1,5
23.073927,3,-4,14,-1,2,-2,0,2,5
23.073950,-5,-11,-6,6,0,-1,-3,-3,5
23.076107,-30,7,1,-2,-4,1,-1,2,5
23.076116,36,11,3,-1,-1,-3,-3,-4,5
23.096169,-11,5,-1,-5,2,1,-1,-1,5
23.096192,-4,-6,5,6,4,2,0,4,5
23.097676,-1,21,-5,-2,-2,-3,-3,-2,5
23.097685,3,-15,-4,-3,-8,-2,-1,-1,5
23.109953,-24,-37,-20,-6,-5,-3,-1,-4,5
23.109974,16,-8,0,-2,-2,-2,-2,-2,5
23.120342,0,9,-3,2,3,-1,0,-1,5
23.120351,-12,18,14,2,-3,-2,0,3,5
23.133882,10,9,-9,1,20,4,0,1,5
23.133914,-19,15,9,-1,-6,-2,-1,0,5
23.136009,5,-25,-2,1,2,1,0,-2,5
23.136014,-3,-20,-13,-8,-6,-4,-1,1,5
23.156200,-3,11,-4,4,-4,-1,0,-4,5
23.156213,-4,-6,3,-1,1,1,0,-1,5
23.157750,2,-9,0,1,0,0,2,4,5
23.157763,6,28,-4,-4,2,-3,-2,-2,5
23.178940,18,-14,-2,-5,-6,-2,-3,-1,5
23.178973,-2,14,-11,2,1,0,-3,-1,5
23.180708,6,-28,3,-2,-8,-4,-3,0,5
23.180713,-5,5,-3,1,4,2,0,-1,5
23.193797,-7,-7,0,2,-4,0,1,3,5
23.193819,5,18,-6,-2,2,-2,-1,-3,5
23.196090,-28,15,3,1,3,1,-1,-3,5
23.196094,-9,-11,1,-1,-9,-3,-2,1,5
23.216124,8,-25,-5,-7,-6,-4,-5,-1,5
23.216141,-1,-10,-2,2,-1,1,0,1,5
23.218102,14,18,4,1,3,1,0,-1,5
23.218135,-17,9,-5,0,5,0,0,-3,5
23.238839,4,3,3,4,-4,-1,0,-4,5
23.238857,5,7,0,-8,-4,-3,-2,1,5
23.240351,6,-2,-6,-1,-3,-2,-2,1,5
23.240357,-6,-39,0,1,1,3,-1,-2,5
23.253815,-5,0,-2,0,0,-1,2,1,5
23.253838,-11,-5,-19,-5,2,-2,-2,-5,5
23.255663,1,12,25,2,-1,-2,-2,-3,5
23.255671,8,17,-12,-6,0,0,0,1,5
23.278343,-7,17,0,0,0,0,0,0,5
23.278350,-15,-18,-5,-3,-3,-2,-2,1,5
23.278352,-13,-10,-5,-3,-3,-1,1,3,5
23.278354,9,7,4,6,8,-1,1,0,5
23.299355,0,1,-13,-3,-18,0,-3,0,5
23.299381,51,8,9,-1,-2,0,-1,-1,5
23.300386,6,-45,-15,-6,-1,1,-1,-1,5
23.300478,-15,24,10,0,-1,-1,-2,4,5
23.313747,-1,7,0,4,10,2,-1,0,5
23.313774,1,-10,1,-1,1,-1,0,1,5
23.320004,1,2,-10,-2,-14,-4,-4,2,5
23.320022,3,-8,-7,-5,1,1,1,-4,5
23.336448,-11,10,7,4,2,-3,-1,-3,5
23.336478,-3,-11,1,-3,-7,0,1,5,5
23.338653,-7,12,4,-2,5,-1,2,-1,5
23.338658,7,-3,-14,0,-3,-1,-1,-5,5
23.366876,23,0,10,-9,1,-2,-6,-5,5
23.366905,-12,-8,4,7,-1,-2,-3,-2,5
23.369407,2,19,-8,-2,-1,-3,1,-1,5
23.369418,-9,-4,1,2,2,1,1,-1,5
23.373142,-13,-8,-2,-3,-4,0,1,-4,5
23.373165,-10,10,3,-3,-2,0,0,-2,5
23.379864,16,-18,-9,-3,-2,0,-3,-2,5
23.379886,-11,12,-2,1,2,1,0,-3,5
23.396147,7,-8,-3,-3,1,-1,0,-1,5
23.396169,-17,-6,-4,4,-2,-2,0,2,5
23.397855,-18,-8,8,1,2,0,1,1,5
23.397913,25,-6,-8,-1,-3,-1,-2,0,5
23.418791,-23,-17,-11,-4,-6,-4,-3,-4,5
23.418812,1,22,12,-5,2,1,0,0,5
23.420385,11,0,-8,1,-1,-1,0,3,5
23.420409,-23,10,10,6,1,1,0,-3,5
23.434831,0,-4,-1,3,2,1,3,0,5
23.434849,9,13,-3,-4,-1,-3,-2,-2,5
23.439852,-5,-9,6,-4,-7,-3,-2,-4,5
23.439868,1,-3,2,-6,-8,-3,-3,2,5
23.456210,5,0,3,4,-7,1,-1,0,5
23.456227,-8,-6,-7,-2,5,0,0,-4,5
23.457746,6,15,-4,-1,3,2,0,-1,5
23.457763,-2,-1,-5,-2,-4,-3,-2,0,5
23.480025,0,17,15,4,-1,-4,-1,-3,5
23.480034,-11,-36,-5,-3,0,-1,-1,4,5
23.480149,17,11,-2,-1,-5,0,-1,-3,5
23.480155,-10,7,0,-6,2,-2,-1,-2,5
23.493789,19,-21,-20,3,3,1,0,-2,5
23.496326,-17,27,6,0,-7,-4,-1,-2,5
23.500331,2,-2,-2,-3,-1,-3,-4,-5,5
23.500351,6,25,3,-1,2,-1,-3,1,5
23.516549,4,-12,3,-1,4,0,2,3,5
23.516578,-16,27,-2,2,-2,-1,-1,-3,5
23.519127,6,-19,-5,-2,-1,0,2,2,5
23.519142,-9,1,14,1,4,0,-1,-2,5
23.538808,-14,3,4,0,-7,-4,-2,-2,5
23.538824,19,0,-8,1,1,2,1,3,5
23.540618,-19,10,3,2,0,-1,-2,1,5
23.540839,-14,-16,-7,-5,-3,-1,0,-2,5
23.553069,13,8,3,2,2,0,-2,0,5
23.553086,-16,-14,-1,-4,-1,-4,-2,-6,5
23.559949,2,11,-6,1,0,-3,0,-2,5
23.559972,7,-6,7,3,-2,1,0,2,5
23.576759,-6,24,2,-2,-1,-2,-3,-3,5
23.576777,0,-7,1,-1,0,2,0,0,5
23.578043,4,-19,-8,-2,-1,-1,-2,-4,5
23.579535,-7,19,7,3,-8,-5,1,-2,5
23.599227,-10,-9,-3,-8,21,1,-4,-3,5
23.599259,7,4,-3,1,-8,-4,-4,0,5
23.601670,30,-10,10,-3,-7,-3,-3,-4,5
23.601684,6,-10,0,0,-6,-3,-3,-1,5
23.613912,-6,-16,-10,-6,-6,-2,-1,2,5
23.613941,-6,4,5,0,5,0,1,-1,5
23.619988,-5,9,-8,4,5,2,2,-1,5
23.620017,17,-29,-6,-2,-4,-3,-1,-1,5
23.636292,-16,12,5,-2,-4,-1,-2,-2,5
23.636306,24,-11,-6,3,2,-1,0,-3,5
23.644848,-4,-4,0,-1,-6,-3,-1,0,5
23.644854,-6,3,-3,1,5,0,0,1,5
23.658831,22,3,3,0,-3,1,2,-1,5
23.658850,-3,25,4,-5,0,0,-1,-1,5
23.661237,-13,-50,-2,-3,3,-2,-2,-3,5
23.661243,-5,11,-10,-1,2,0,-2,0,5
23.672351,-3,-18,-13,-4,-3,-2,-2,1,5
23.672368,12,15,1,-1,-4,-2,1,-2,5
23.681403,-13,23,3,1,-1,2,1,0,5
23.681439,-17,-19,-9,2,4,-1,-1,3,5
23.697176,2,20,4,1,-3,1,1,-2,5
23.697188,35,-34,1,3,-7,-2,-3,-1,5
23.697727,-23,-9,-7,-7,2,-2,-1,0,5
23.697735,-4,35,-5,0,-11,-4,-5,-3,5
23.718898,-17,-18,2,-1,-3,-2,2,2,5
23.718926,-13,-3,0,-4,0,-1,-1,-1,5
23.720445,10,12,0,-2,1,-2,-1,-1,5
23.720453,7,19,-3,-3,4,0,0,-3,5
23.732522,1,-18,1,2,-1,-2,-2,3,5
23.732544,-12,0,-9,-1,-1,0,-1,-3,5
23.741850,5,-3,4,-2,-2,0,-1,-1,5
23.741855,4,-10,-2,-2,0,0,0,-3,5
23.756410,3,9,-14,-2,-3,0,1,-3,5
23.756433,-31,11,-4,4,12,2,5,3,5
23.758292,1,-15,30,-1,-7,-2,-3,-4,5
23.758317,12,-40,-5,-5,-15,-5,-4,-2,5
23.779027,-2,6,-2,-4,-2,-3,0,-2,5
23.779049,-8,17,-6,-3,-2,-2,-3,1,5
23.780402,-16,-2,-20,-1,8,2,2,0,5
23.780423,0,18,26,7,6,1,0,2,5
23.792392,0,-8,-5,0,-2,-1,-3,-1,5
23.792408,-2,-15,9,-1,0,-1,-2,-4,5
23.803194,3,9,6,0,-3,0,1,2,5
23.803206,-2,-1,-4,-3,-2,-2,0,-2,5
23.816458,-10,5,-7,-4,0,0,1,3,5
23.816480,28,-21,0,-3,-1,-1,-3,-5,5
23.818470,27,4,-5,4,2,-1,-1,0,5
23.818485,-25,-30,-12,-7,-3,-1,-1,-1,5
23.838812,-9,14,6,-1,-2,-2,-2,-3,5
23.838831,-3,16,1,3,-3,1,-2,-1,5
23.840287,2,-27,-3,-5,-2,-2,0,1,5
23.840304,3,16,-9,0,4,1,3,-1,5
23.852585,0,11,-1,2,-2,0,-1,1,5
23.852609,11,-20,12,1,-11,-4,1,2,5
23.863182,-15,25,-12,-2,26,3,-2,-2,5
23.863187,1,-15,-4,-4,-8,-1,-4,0,5
23.876202,-18,6,12,3,3,0,1,-5,5
23.876222,32,-11,-8,-5,-9,-5,-2,-2,5
23.878057,-3,0,-6,-4,-8,-4,-3,-1,5
23.878072,-6,-6,-3,-4,4,0,-2,0,5
23.901347,-3,12,3,-5,-4,-3,-2,0,5
23.901355,-11,14,-4,3,4,0,2,1,5
23.901358,-16,-7,-3,3,-6,-2,-1,-5,5
23.901360,-12,-50,0,-1,1,1,-1,-1,5
23.921333,3,6,-4,5,-1,0,-2,-1,5
23.921350,25,-2,5,-8,-2,-2,-4,-2,5
23.923202,1,17,-14,-5,-7,-3,0,-1,5
23.923206,11,20,1,-1,1,-1,1,0,5
23.936306,-6,-23,8,6,0,-3,-1,-2,5
23.936348,-14,15,-7,-3,0,0,0,-1,5
23.938051,2,-23,17,5,-2,-2,-2,7,5
23.938073,4,0,-1,1,4,0,-1,-3,5
23.959135,3,19,-8,-4,-5,-1,0,-2,5
23.959160,-7,-43,2,-4,-2,0,-1,0,5
23.962006,5,13,-9,0,-7,0,1,0,5
23.962028,0,10,-3,-4,0,-2,-1,-1,5
23.972489,7,-35,1,6,5,1,-3,2,5
23.972506,-9,33,7,1,0,-1,0,-5,5
23.981462,-46,-19,0,-1,-4,0,-1,-1,5
23.981471,43,9,1,0,-2,-1,0,1,5
23.996165,-11,-6,-10,-6,-1,-2,-2,0,5
23.996180,-11,1,0,0,-1,0,0,2,5
23.997634,-6,-12,-7,-5,2,1,1,-3,5
23.997650,-3,-17,-6,1,-4,-1,-2,0,5
24.018892,-2,24,26,6,0,-2,-3,-2,5
24.018918,16,-14,-11,-2,-2,-1,-1,0,5
24.020794,4,34,5,-2,-1,-2,-2,-2,5
24.020800,-13,3,7,2,-2,0,1,1,5
24.032612,2,-14,-21,-7,-3,0,0,0,5
24.032629,-22,-7,2,1,1,1,-1,-2,5
24.041915,43,5,-5,-8,-5,-1,-1,-3,5
24.041920,-4,13,8,9,3,0,-1,-1,5
24.057731,5,-9,-17,-1,1,1,1,4,5
24.057738,5,36,20,-3,-12,-5,-5,-3,5
24.057741,-2,-51,-6,0,-1,1,-1,3,5
24.057742,23,-4,6,-1,-2,1,1,-1,5
24.078687,11,15,0,-8,-4,-3,-1,1,5
24.078710,-14,-16,-20,-1,3,-2,-2,-1,5
24.080802,23,27,8,5,2,-1,-3,-2,5
24.080810,-27,1,3,1,-2,0,-3,-1,5
24.093112,10,6,-1,-2,-2,2,1,-1,5
24.093153,2,-20,-4,0,2,-1,-2,-3,5
24.103116,-2,10,7,1,1,0,2,1,5
24.103131,-10,-15,-4,-2,0,-2,-1,-1,5
24.116497,16,1,-9,-8,-3,-2,-3,-3,5
24.116537,-12,-3,5,6,-2,0,0,2,5
24.119866,32,23,-2,-2,-5,-3,-2,-3,5
24.119886,4,-5,-10,-3,2,1,-1,-2,5
24.138873,8,-4,1,-4,-2,-2,-3,-2,5
24.138890,-8,-2,3,-1,3,0,1,0,5
24.140390,-10,0,-2,3,0,-2,0,-3,5
24.140395,-2,14,1,2,0,1,3,4,5
24.161203,-3,-3,11,3,4,-2,-3,-8,5
24.161219,-3,1,-15,-9,-8,-3,0,0,5
24.162623,-11,-24,2,-2,-6,-1,-3,-2,5
24.162631,-16,-15,-18,-6,-2,-2,0,-4,5
24.175829,-11,-22,-8,-4,-2,0,-1,2,5
24.175859,6,27,8,10,6,0,-2,-1,5
24.182390,-15,30,0,-6,-3,-2,-4,-5,5
24.182415,5,-11,17,-1,-2,0,0,0,5
24.199195,8,-10,0,2,-4,-2,-3,-4,5
24.199212,-6,-15,-10,-6,1,2,1,0,5
24.201041,-12,-8,-12,-1,0,1,4,1,5
24.201099,-24,17,-5,1,2,-2,-1,-4,5
24.221369,-11,4,12,2,1,-1,0,1,5
24.221393,22,-23,-6,-5,-1,0,-2,-2,5
24.223007,-9,7,3,3,6,1,-1,0,5
24.223013,33,2,-4,-4,-8,-4,-4,-3,5
24.236384,7,19,4,1,-7,-2,2,0,5
24.238610,-17,-3,-4,-4,3,-1,-2,-2,5
24.238618,0,-12,3,1,1,-1,-3,4,5
24.238620,7,31,0,4,0,-1,-2,-3,5
24.258703,-9,-44,1,-1,-2,-1,0,-3,5
24.258719,-1,-7,-4,1,1,0,2,0,5
24.260273,1,3,-3,3,2,1,2,3,5
24.260290,-9,5,1,-6,-4,-3,0,0,5
24.281595,3,10,-2,1,-2,1,-1,-1,5
24.281629,-7,6,-3,-2,0,-2,-3,-3,5
24.283237,-12,-26,-4,4,-2,-1,0,0,5
24.283241,7,8,6,1,-1,0,1,1,5
24.295549,3,0,-8,-5,-5,-2,-3,1,5
24.295572,-4,4,7,-3,-1,0,1,1,5
24.302484,17,33,-3,-3,-4,-3,-2,-4,5
24.302507,-7,-44,2,1,1,-1,-1,0,5
24.318797,5,12,-2,0,-2,-2,-1,-7,5
24.318825,3,2,-5,-4,1,0,-1,-2,5
24.320449,-4,1,5,1,-2,0,-1,1,5
24.320464,-14,14,1,4,1,1,-2,-1,5
24.341203,9,-10,4,-2,2,1,0,0,5
24.341221,15,6,-6,-2,-5,-4,-3,-1,5
24.342875,-17,1,1,-9,-5,-2,0,-1,5
24.342907,15,-32,-11,-3,-3,0,-4,-3,5
24.355699,-11,27,3,7,4,0,-1,-1,5
24.355749,-11,-12,9,2,-3,2,0,3,5
24.362354,1,-31,-10,-4,-1,1,-1,2,5
24.362376,-3,35,12,-4,-5,-1,-2,0,5
24.378673,-10,-16,-17,-4,-2,-3,-2,-1,5
24.378690,3,14,10,4,0,-1,-1,0,5
24.380143,15,6,-1,3,0,-1,0,-2,5
24.380151,-25,-1,-1,-1,0,0,0,-1,5
24.401265,11,-12,2,-7,-3,-2,-3,-2,5
24.401287,-7,-7,-11,1,-2,-2,-2,-1,5
24.402866,2,-13,2,-4,-3,-3,-3,-1,5
24.402884,7,14,-8,-2,2,-1,2,4,5
24.415545,-7,11,-6,-4,-1,-1,-1,1,5
24.415550,-1,-2,10,1,-1,0,0,-3,5
24.422359,-2,-15,10,4,2,-1,-1,-3,5
24.422376,23,21,-12,-4,-4,-2,-3,-4,5
24.438788,-7,-10,0,-5,-10,-3,1,-1,5
24.438806,9,20,-3,-4,0,0,-1,1,5
24.440253,-18,-5,-7,-3,-2,-2,0,1,5
24.440310,17,1,10,0,4,0,0,0,5
24.461887,-14,7,-6,4,1,0,-1,0,5
24.461897,-6,11,0,-4,-3,0,1,4,5
24.462649,-7,2,-1,4,1,-1,-3,-3,5
24.462656,-5,-13,-4,-2,0,-1,-1,2,5
24.477157,7,-4,1,-1,0,-4,-4,-3,5
24.477163,-8,-14,-3,3,2,-1,1,1,5
24.483254,-5,10,-7,-5,-5,-3,0,-2,5
24.483287,4,-12,0,0,-5,-2,1,-3,5
24.498974,9,-8,-8,-3,-2,1,-1,-3,5
24.499005,4,21,11,1,0,-1,-1,-4,5
24.501767,3,-9,1,2,6,3,2,4,5
24.501776,-21,17,-1,-6,-5,-2,-3,-7,5
24.522316,-9,-21,3,3,-1,-1,0,1,5
24.522324,-1,-3,-7,-3,-2,-2,-1,-1,5
24.522702,8,7,-2,-2,-2,0,-3,-1,5
24.522712,-13,-15,-6,2,6,2,1,-3,5
24.535672,4,27,9,-7,-6,-3,-4,0,5
24.535701,11,-36,-20,1,-3,-2,-1,-3,5
24.542852,2,6,4,-2,-4,-3,0,-2,5
24.542887,-6,2,5,-3,-1,-2,-1,1,5
24.559207,3,-17,-2,4,4,1,-2,-6,5
24.559232,-16,-23,-6,-1,-1,-1,0,-3,5
24.561276,6,18,-4,0,-4,-2,-2,-3,5
24.561282,8,-19,-4,0,-3,-2,-3,-7,5
24.581177,-8,21,-4,-4,-2,1,2,2,5
24.581200,-11,1,6,-3,-2,-2,1,3,5
24.583130,-3,-2,-5,0,2,-1,-3,-4,5
24.583143,-1,5,-1,-1,-4,-4,-2,2,5
24.595544,8,3,-1,-3,-1,-1,0,-1,5
24.595566,-18,-24,-22,-1,2,-1,-3,-3,5
24.602452,9,41,35,-2,-11,-4,-3,-7,5
24.602469,-6,8,-3,-2,1,1,-1,3,5
24.618736,3,-27,-6,2,0,-3,0,-4,5
24.618756,12,2,-11,-8,-5,-2,-1,0,5
24.620347,-9,-16,-6,5,2,1,2,0,5
24.620365,7,9,-2,-3,-4,-2,-3,-3,5
24.641303,-14,0,2,-1,0,0,1,1,5
24.641328,-9,-9,2,-1,2,-1,-1,-2,5
24.643859,12,-10,-6,-2,2,0,0,0,5
24.643864,-10,-5,0,4,0,-1,2,5,5
24.655016,9,-5,7,-1,0,-1,0,-3,5
24.655033,3,9,11,2,-4,-3,-4,-4,5
24.663639,-17,5,-11,-3,-1,0,1,2,5
24.663650,0,-39,-3,1,4,0,-1,-2,5
24.679550,-12,18,-2,-1,-2,-3,-1,0,5
24.679556,5,-8,-8,-6,-2,-1,-1,-1,5
24.680360,-2,22,11,0,0,-1,-2,-1,5
24.680374,3,-10,0,2,-1,1,2,1,5
24.701312,-1,7,-2,0,3,-1,-2,1,5
24.701341,-1,1,-5,-7,-3,-1,-1,0,5
24.703037,-13,7,-14,2,5,0,1,-3,5
24.703044,-23,-9,16,4,1,-1,-1,5,5
24.715343,35,-17,3,-5,-13,-3,-4,-1,5
24.715366,4,41,12,-1,-2,0,-1,-5,5
24.725360,4,-54,-21,-8,-3,0,0,2,5
24.725370,-13,3,-4,2,4,1,1,-3,5
24.738732,-13,6,1,0,4,1,1,1,5
24.738749,-3,14,-2,-1,-1,-2,-1,0,5
24.740516,9,-5,2,3,-3,-2,-3,-1,5
24.740523,6,8,-3,-3,-3,-1,-2,-1,5
24.761405,-8,-9,-5,0,0,0,-1,-2,5
24.761424,3,-3,5,3,0,-1,-1,-1,5
24.762957,1,-6,6,-3,-2,0,-1,3,5
24.762962,-4,-15,-16,-8,-6,-4,-5,-8,5
24.774841,-24,10,7,5,3,1,-1,4,5
24.774864,-12,-2,11,4,8,3,0,3,5
24.786246,29,-34,-8,-8,-9,-5,-4,-2,5
24.786256,21,19,-6,-4,-8,-2,1,2,5
24.798825,9,-6,-8,-5,-6,-2,-2,1,5
24.798843,-34,-10,4,4,1,1,1,-3,5
24.801586,-5,16,0,0,4,1,-1,0,5
24.801598,3,4,-1,-2,2,-2,1,0,5
24.821343,-10,9,-1,-3,1,0,-1,-1,5
24.821367,17,-8,1,2,0,0,1,1,5
24.822758,-17,12,-7,-1,0,-1,-3,-4,5
24.822774,-10,-17,16,3,0,0,0,1,5
24.837225,-25,40,12,6,2,1,1,2,5
24.837236,26,-44,-12,-7,-4,-3,-4,-5,5
24.845079,37,-6,5,-3,-10,-6,-7,-7,5
24.845088,8,-15,-15,-8,-4,-1,-1,0,5
24.858918,-3,16,-3,-2,1,-1,0,-1,5
24.858940,-14,1,13,1,0,0,-1,0,5
24.861125,-14,-6,-3,0,5,1,1,-1,5
24.861131,10,18,3,2,2,-1,-1,2,5
24.884323,9,-13,-11,-3,-2,-4,-4,-6,5
24.884339,7,15,3,-1,-2,-2,-1,-1,5
24.884342,-13,-6,-7,-6,-2,0,-1,1,5
24.884344,-6,2,-7,-1,-5,-3,-1,-3,5
24.894941,6,-7,11,2,3,-1,-1,0,5
24.894962,-21,15,-3,-1,-2,1,0,-2,5
24.903909,-16,-14,4,2,-4,-3,-3,-3,5
24.903931,1,16,0,-4,-1,-1,-2,-5,5
24.919051,2,-52,-7,0,2,0,-2,4,5
24.919077,2,-3,-13,-5,-3,-1,-1,-5,5
24.921282,-11,11,14,5,2,-2,-1,-2,5
24.921294,4,4,2,-5,-3,0,-2,0,5
24.941230,-2,3,-2,1,0,0,-3,-3,5
24.941247,-1,8,0,-1,2,0,2,0,5
24.942777,-8,11,1,-1,-2,-2,3,2,5
24.942795,2,-5,-8,-2,-2,-1,-3,-3,5
24.955098,11,-12,8,3,2,2,2,2,5
24.955123,-20,35,0,-1,-3,-2,-4,-3,5
24.965457,-6,-54,-13,-2,2,4,3,2,5
24.965465,6,-3,-1,-4,1,-2,-3,-6,5
24.978741,1,6,-22,-8,-9,-5,-3,-2,5
24.978761,12,6,14,9,0,2,1,4,5
24.980207,-16,56,7,1,2,-1,0,-1,5
24.980242,-4,-28,-10,0,1,0,1,1,5
25.001750,-10,2,9,3,3,1,1,-3,5
25.001786,-11,-14,-16,-4,-3,-3,-3,0,5
25.003673,29,16,19,3,-3,-1,-3,-3,5
25.003679,12,-2,2,1,1,2,2,5,5
25.014863,-18,2,-7,-6,-3,-4,-3,-7,5
25.014886,1,-12,-10,-2,1,-3,0,2,5
25.029936,2,1,-7,-8,-3,-2,-2,0,5
25.029960,-1,10,-1,2,-5,-3,-3,-2,5
25.038791,7,-20,2,2,-2,-1,0,2,5
25.038874,7,-4,-5,-4,0,-1,-1,0,5
25.040304,2,-6,-10,1,0,-1,0,-2,5
25.040320,-3,-9,5,-2,-1,-1,-1,1,5
27.063015,6,16,-1,2,-3,-2,-1,-1,0
27.063277,3,-16,2,2,2,-1,0,1,0
27.064501,2,4,-2,-5,-1,-2,-2,0,0
27.064509,-2,-1,-1,1,-2,0,-1,1,0
27.085565,2,0,-1,-6,-2,-1,1,-2,0
27.085589,0,8,0,-5,-1,0,-2,0,0
27.086535,2,4,-2,5,0,0,1,-1,0
27.086553,-6,4,-4,0,-6,-1,-2,-1,0
27.109157,-5,-9,-1,0,5,0,-2,-1,0
27.109179,19,31,1,0,1,0,2,-1,0
27.111481,-15,-73,-4,-7,-2,-3,-1,-3,0
27.111485,8,6,-1,0,14,-2,-1,0,0
27.123196,-9,-8,-2,0,2,-1,-1,2,0
27.123218,15,2,1,2,-5,-1,0,1,0
27.125640,6,36,5,-1,1,-1,-2,0,0
27.125647,-5,0,-10,-4,-5,0,-1,0,0
27.145571,-6,-17,-1,1,0,-1,0,-5,0
27.145587,-3,5,3,-2,1,-1,0,0,0
27.146181,-5,1,-2,-7,-6,-2,-1,2,0
27.146195,0,-11,-4,2,-3,-1,-2,-2,0
27.168923,-13,3,-3,-1,-2,0,-1,-2,0
27.168945,-1,12,3,2,0,1,-1,1,0
27.170816,-11,-51,-4,-1,1,-1,-2,-3,0
27.170824,5,-3,1,-1,-2,-1,0,0,0
27.183515,6,13,-1,-3,-2,-3,-1,-1,0
27.183540,0,0,4,-3,-1,0,-2,-6,0
27.185613,13,21,-3,-1,-2,-1,0,-1,0
27.185622,5,1,4,-3,0,0,-1,-1,0
27.205725,2,-17,1,4,-3,-1,-1,-1,0
27.205738,1,7,-3,-3,-3,-2,-1,0,0
27.206277,-14,11,3,1,18,-1,0,0,0
27.206287,-13,-10,-15,-5,0,-3,-1,-1,0
27.228740,-4,9,2,-6,-2,-1,-1,-5,0
27.228755,-9,-7,1,8,1,0,-1,1,0
27.230704,5,-13,2,-1,-2,0,-2,-3,0
27.230708,4,10,6,1,-3,-2,-3,0,0
27.243388,-14,-21,-12,-8,2,0,-2,1,0
27.243404,1,6,0,-4,-2,-2,0,-3,0
27.245443,2,22,2,3,-4,2,-1,-1,0
27.245448,-8,-5,2,1,-5,1,-1,-1,0
27.265875,13,4,0,1,-5,-2,1,0,0
27.265904,-5,-5,-2,-5,-1,-2,-2,-1,0
27.268330,-1,5,-4,3,-3,-1,1,-1,0
27.268363,7,1,4,3,0,-1,-3,-1,0
27.288855,8,6,1,1,0,0,-1,-1,0
27.288873,-12,-12,1,1,2,0,-2,-3,0
27.289431,4,9,-4,-5,-5,-2,-2,-1,0
27.289449,5,-3,-3,-4,-3,0,1,-2,0
27.303158,-11,5,0,9,-1,0,0,-1,0
27.303183,7,-32,-3,-2,-1,-1,-2,-3,0
27.303890,1,7,3,0,-1,-2,0,1,0
27.303913,-2,5,0,-1,16,-2,-1,1,0
27.325798,12,1,2,-5,-3,-1,-1,0,0
27.325820,3,5,-1,1,-2,-2,-1,-1,0
27.328219,-14,3,-4,2,-4,-1,-2,-2,0
27.328231,-3,-7,-1,-1,-2,-1,0,1,0
27.348651,-4,5,-5,-3,1,1,0,-4,0
27.348667,-8,2,2,3,3,-1,-2,1,0
27.349307,3,-6,-2,-5,-8,-1,-1,0,0
27.349321,0,4,2,3,-9,-1,-1,-1,0
27.363538,0,8,2,-5,-1,-1,-2,0,0
27.363545,-1,-17,-3,0,-6,-2,-2,-2,0
27.363730,10,13,-3,-2,1,-1,-2,-1,0
27.363744,-21,-8,-1,-6,-6,0,-2,1,0
27.387297,2,3,-3,3,1,-1,-2,-1,0
27.387330,8,5,2,-3,2,-1,1,-1,0
27.387333,3,2,-6,-2,1,-2,0,2,0
27.388424,-1,5,-3,1,-4,-2,-1,-2,0
27.409874,4,-4,0,-1,-6,-1,-1,0,0
27.409879,-5,2,-4,0,0,-1,-1,1,0
27.409881,-3,-2,2,2,-1,0,0,1,0
27.409882,3,-5,-2,-1,-3,0,-1,-4,0
27.423102,-7,-8,3,-2,-7,-1,-2,-1,0
27.423125,5,4,-5,0,20,-2,-1,-1,0
27.424108,-15,8,-4,-3,-3,1,-2,-3,0
27.424114,-4,-39,-4,-4,-4,-2,-4,-1,0
27.445700,-3,-7,2,1,2,-2,-1,-1,0
27.445729,-1,5,0,-2,-4,0,2,1,0
27.446495,3,5,1,-4,-1,-1,-3,-1,0
27.446523,1,14,-1,2,1,-1,0,-2,0
27.468918,8,-1,4,1,1,-1,-1,0,0
27.468947,-18,-15,-6,-1,-6,-2,-3,1,0
27.470152,-1,9,-1,0,0,1,1,-1,0
27.470160,20,-3,0,0,-4,0,1,1,0
27.483092,-6,4,-7,-4,1,-1,-1,-2,0
27.483112,9,2,2,-1,-3,0,0,-3,0
27.484492,6,5,2,2,2,0,-2,-4,0
27.484498,-11,-25,-2,-1,-1,-2,-3,-1,0
27.505488,0,4,-4,-2,-5,-1,0,1,0
27.505525,-3,4,-2,-3,-2,-1,-2,0,0
27.506218,2,-8,-1,-1,-2,-1,0,-2,0
27.506267,9,23,2,-2,0,-1,1,-2,0
27.529170,-6,-10,0,-1,0,-1,-1,-1,0
27.529192,-5,0,-4,-1,-6,-1,-2,-1,0
27.530041,6,-8,3,-1,-2,-2,-1,1,0
27.530050,-6,1,5,2,2,-2,0,-1,0
27.543392,-11,29,-2,1,0,-2,-1,-2,0
27.543408,0,-20,-3,-4,-1,-1,-1,-2,0
27.544486,-5,2,-4,5,1,-2,-1,0,0
27.544494,-7,5,0,-1,-1,-1,1,-3,0
27.565741,5,2,-3,-2,-2,1,3,-1,0
27.565770,-5,9,-1,-4,-3,-2,0,2,0
27.567836,-23,-10,-1,-1,0,-2,-2,-5,0
27.567841,0,7,2,1,-2,-1,-2,-2,0
27.588769,5,-22,-3,0,1,-1,-1,0,0
27.588787,-9,7,4,-3,-4,0,-1,-1,0
27.589589,4,-6,-2,-3,-1,-1,0,0,0
27.589594,5,10,-3,0,-5,0,-2,0,0
27.602474,-7,-8,3,1,21,-3,-1,-1,0
27.602494,3,-2,1,2,-1,2,1,-1,0
27.610898,-1,1,-2,0,0,-1,1,0,0
27.610914,4,4,-5,0,2,0,-1,-1,0
27.626459,4,-4,0,-6,-4,1,-2,-2,0
27.626481,-1,22,2,7,-1,-1,0,-2,0
27.628057,1,-45,-1,0,1,1,2,3,0
27.628063,0,2,-2,-2,-1,-2,0,-1,0
27.649292,-17,-12,6,-4,-3,-1,-2,-1,0
27.649321,13,0,-11,0,-3,-2,-1,-2,0
27.649672,-5,7,-2,1,0,1,-2,-1,0
27.649691,-5,-1,2,1,0,0,-1,0,0
27.662280,2,-6,-5,-2,-5,0,1,1,0
27.662291,0,-1,7,-2,-1,0,0,0,0
27.670776,16,13,1,-2,-4,-1,0,-2,0
27.670801,-14,-9,-4,1,3,0,0,-3,0
27.685555,4,3,-3,2,-3,0,-2,0,0
27.685575,-7,9,3,-1,-2,-1,-3,-3,0
27.687394,-3,-12,-4,-2,0,-2,-2,1,0
27.687401,1,-3,-3,-8,-2,0,-1,-1,0
27.708815,-3,5,0,1,-4,-3,-1,-2,0
27.708832,12,-11,-1,5,-9,1,0,-2,0
27.709440,0,15,-1,-2,-2,-3,-3,-1,0
27.709460,-2,4,-3,-4,0,-2,-1,-2,0
27.723421,-6,-11,-1,-1,-3,-1,-1,-3,0
27.723426,7,4,-3,-5,-5,-2,-2,1,0
27.730436,-1,-1,2,-4,1,0,0,-3,0
27.730458,-2,4,0,2,-1,0,-2,0,0
27.746432,4,3,-3,-1,-3,-3,-2,0,0
27.746462,-4,8,2,-3,1,-1,0,-1,0
27.747843,-3,-18,2,-2,-4,-1,-1,-1,0
27.747847,0,-8,2,1,-2,-1,0,-3,0
27.770291,1,5,-5,-1,-4,-3,2,-3,0
27.770303,-4,-7,-4,0,0,-2,-1,-1,0
27.770305,3,18,3,-4,3,-1,-1,1,0
27.770307,0,6,3,5,-2,-2,-1,-2,0
27.782847,2,-12,-1,-1,-2,-1,-2,1,0
27.782881,-4,22,-3,-5,2,-2,-1,-3,0
27.790570,0,-12,-1,-1,-3,0,0,-2,0
27.790592,-1,-5,1,0,-1,-1,0,1,0
27.805522,9,-2,0,-1,-10,2,2,-1,0
27.805537,-20,-15,-6,-8,14,-3,-3,-2,0
27.806177,-1,15,4,4,-3,-3,-2,-1,0
27.806188,-1,-14,-10,-4,0,0,-2,-1,0
27.828688,20,30,3,2,-2,0,-1,1,0
27.828710,-14,-40,-3,0,-3,1,0,-1,0
27.829492,-9,-4,-6,-1,0,-2,-1,-1,0
27.829496,4,1,-2,-2,0,0,-1,3,0
27.842399,-2,9,-1,0,3,0,-2,-2,0
27.842416,4,2,2,-1,0,-1,0,-1,0
27.851163,-2,3,-5,-1,0,0,0,-1,0
27.851203,5,7,2,-6,-3,-2,-2,0,0
27.865660,-8,-11,-9,4,1,-4,-3,-1,0
27.865683,-3,-12,2,0,0,1,-1,-3,0
27.866526,7,-5,1,1,-1,-2,-4,-2,0
27.866534,-3,10,-3,-1,-1,0,-1,-1,0
27.888778,-11,-23,-2,-5,1,0,-1,-2,0
27.888801,-7,-2,1,0,-3,-2,0,0,0
27.889894,7,14,-3,-3,0,0,0,-1,0
27.889898,-4,-5,-3,3,-1,-1,-2,-2,0
27.911145,-7,1,2,2,1,-1,-1,-1,0
27.911164,6,12,1,1,-4,-1,0,-1,0
27.912107,-11,-13,-3,-5,-3,0,0,-2,0
27.912129,-4,4,1,-6,-6,-1,0,-3,0
27.925454,10,-12,-2,-3,-7,-2,-3,0,0
27.925468,-11,10,-1,0,2,-1,-1,0,0
27.926115,0,6,0,-2,0,1,0,-2,0
27.926129,-8,-15,0,4,-2,0,0,0,0
27.949595,-20,-9,-6,-1,0,0,0,-1,0
27.949629,14,0,-1,-2,-1,-1,-1,-2,0
27.952339,-2,2,1,2,-3,-2,1,0,0
27.952351,-6,20,7,-1,0,0,-1,-1,0
27.971305,-14,-33,-4,-2,1,-1,-1,2,0
27.971352,-16,-1,-8,-3,-2,0,-3,-1,0
27.971959,7,-8,-1,1,-2,-3,0,-3,0
27.971972,1,-6,-5,-4,-1,-1,0,-2,0
27.986950,3,20,4,5,1,-1,1,-1,0
27.986959,0,1,-2,-2,-1,0,-1,0,0
27.986961,2,-4,-4,-4,-1,-3,-1,0,0
27.986963,5,1,1,-1,-1,-2,0,0,0
28.009099,3,1,3,-4,1,0,-1,-5,0
28.009127,5,-2,-2,-5,2,-2,-1,-2,0
28.010863,-12,-2,0,5,0,0,-2,-3,0
28.010875,-1,-4,-4,-2,-8,-1,0,-1,0
28.033550,-1,2,1,3,-1,0,-1,1,0
28.033556,5,-2,4,2,-2,-2,0,1,0
28.033558,3,3,-6,-2,1,-1,0,-1,0
28.033560,-4,-5,-1,-1,-1,-2,-2,-2,0
28.045932,5,9,-1,-5,-1,-1,0,-3,0
28.045961,16,4,-3,0,-1,0,0,-2,0
28.048101,-31,-19,4,-3,-3,-2,-2,-4,0
28.048107,-5,-7,-14,5,2,3,0,-1,0
28.069231,2,2,3,-3,1,-1,-3,1,0
28.069259,3,11,1,3,0,-2,-2,3,0
28.069467,8,9,0,1,0,0,0,1,0
28.069489,2,-6,1,-3,3,-3,-1,-1,0
28.091262,-2,9,2,-1,1,-3,1,-1,0
28.091278,-4,-6,-4,-1,-4,-1,0,-2,0
28.092406,1,-2,-2,-6,0,0,-2,-1,0
28.092411,3,-1,4,6,0,-2,-1,-1,0
28.106043,2,19,-3,-2,-2,0,-1,3,0
28.106068,-13,-51,-6,-2,-8,-2,-4,-5,0
28.107359,11,0,1,2,0,-1,1,1,0
28.107363,9,13,3,0,3,0,-2,0,0
28.128986,-12,-4,1,0,0,1,-3,-1,0
28.129003,7,8,1,-1,-1,-1,0,0,0
28.129361,0,5,-5,-2,0,1,-2,3,0
28.129381,-4,-10,4,-2,-2,-1,-1,2,0
28.151616,9,-1,1,1,-1,-1,-2,0,0
28.151654,-4,15,2,-5,1,-1,-1,-1,0
28.153782,3,-11,0,5,0,-1,0,-1,0
28.153789,-5,5,-1,-7,-9,-3,-2,0,0
28.165666,12,-1,-1,1,-3,-1,0,-3,0
28.165688,-11,2,5,4,0,1,0,0,0
28.167981,4,-6,-3,-2,1,-1,1,-3,0
28.167992,-21,1,-3,-3,-2,-1,-1,-2,0
28.189032,2,-29,-4,-2,-2,-2,0,2,0
28.189037,12,-1,1,-2,0,-2,-1,-1,0
28.189464,-3,31,2,0,-3,0,-2,2,0
28.189488,4,-9,-2,0,3,0,0,0,0
28.211437,-5,3,-2,-3,0,-2,-2,-1,0
28.211458,0,6,-1,2,1,-1,-2,3,0
28.213054,-3,-10,-4,-1,-1,0,-2,2,0
28.213058,1,3,0,-7,2,-2,-1,-1,0
28.225726,-2,3,-1,2,0,1,-1,1,0
28.225748,11,-7,-2,0,-4,0,-2,-2,0
28.227329,-7,-1,-2,-2,-3,-4,-3,-3,0
28.227334,1,-4,3,1,3,0,0,-1,0
28.248874,-16,-6,-5,-3,-2,-1,0,-3,0
28.248897,0,1,-7,-2,-1,-2,-1,-1,0
28.252024,4,1,5,-6,-3,0,1,-2,0
28.252041,2,2,3,9,2,-2,0,-1,0
28.271521,-19,-5,0,-7,-11,-1,-2,-3,0
28.271550,2,7,-4,-1,8,-2,-1,0,0
28.271999,0,-5,-4,0,0,2,-1,1,0
28.272019,7,1,-5,-3,-3,0,-1,0,0
28.285607,-11,-1,0,1,-2,0,-1,-1,0
28.285632,-2,-9,-1,-3,-1,0,0,-3,0
28.286466,-4,11,6,-3,-3,-1,-2,-3,0
28.286488,11,-13,-3,1,-4,-1,-1,-1,0
28.309112,24,10,0,6,3,-3,0,1,0
28.309142,-12,-3,0,-1,-1,-1,-1,2,0
28.311085,10,-5,-2,-1,7,-2,-1,0,0
28.311089,-9,7,-2,-5,-3,-2,-1,-1,0
28.331170,3,-2,-1,-6,2,-1,0,-2,0
28.331181,1,0,0,4,-2,1,0,-1,0
28.331907,0,0,1,-2,-2,1,-3,-1,0
28.331920,-2,26,1,1,1,1,-1,-1,0
28.345978,-18,-51,-2,0,0,-1,-2,-1,0
28.345985,-6,-6,-2,-6,0,-2,-1,-3,0
28.353166,-2,2,-1,3,-1,1,-1,-1,0
28.353184,0,8,4,0,2,-1,-1,-3,0
28.368790,5,11,-4,0,-1,0,0,0,0
28.368810,-2,7,2,-5,-2,0,-1,-1,0
28.370534,-1,-6,4,2,0,0,1,0,0
28.370541,-1,-10,0,1,-2,-2,-2,-2,0
28.392024,3,3,-5,-1,-1,-2,-2,-3,0
28.392030,-1,0,0,0,-1,0,-1,-1,0
28.392032,-7,-4,0,1,1,-1,0,-1,0
28.392033,1,-9,-3,-5,-3,-3,0,0,0
28.407681,-4,0,-1,-2,-4,-2,-1,-2,0
28.407688,0,5,1,-2,9,-3,0,-2,0
28.407690,2,-5,-1,2,0,-1,-1,-2,0
28.407691,-7,8,-4,-1,-1,-1,-2,0,0
28.428764,-3,-33,-2,-2,1,-2,-2,-2,0
28.428779,4,-5,2,1,-6,0,0,-1,0
28.429752,-4,17,-5,-3,-3,-2,-1,0,0
28.429757,-2,-3,-1,-10,3,-2,-1,-1,0
28.451361,-17,10,2,12,-1,0,-1,-1,0
28.451386,-5,0,-5,0,-2,-2,-2,-3,0
28.453643,3,-11,-7,-4,-2,-1,0,-1,0
28.453656,1,2,-4,-4,-3,-1,-1,0,0
28.466199,9,3,0,-1,3,-1,0,0,0
28.466231,0,-5,0,2,-2,-1,-1,-1,0
28.466244,-1,1,-2,-1,-2,-2,-1,-5,0
28.466247,0,-6,-1,-2,-2,-2,0,2,0
28.488751,17,9,0,-5,2,0,-2,-1,0
28.488768,-5,-5,-4,1,-2,-1,0,-1,0
28.489409,-4,-8,0,-1,-2,-1,-1,0,0
28.489443,-6,-7,-1,2,-1,0,-2,-4,0
28.511217,4,15,1,-2,0,0,-2,1,0
28.511234,3,-2,2,-4,-3,1,-2,2,0
28.512116,-12,14,-4,4,-4,-2,0,-2,0
28.512120,17,-10,0,-2,3,-1,1,0,0
28.525319,-26,-14,-3,3,-2,1,0,1,0
28.525349,0,2,-3,-4,-4,-1,-1,1,0
28.533313,0,1,-3,-4,0,-1,-1,0,0
28.533335,0,5,6,5,-2,1,-2,-3,0
28.548651,9,10,6,-3,-2,-1,1,-1,0
28.548661,10,-7,-5,-5,1,-3,-2,-1,0
28.549502,-17,21,-1,2,-2,-1,1,1,0
28.549516,-20,-52,-8,0,-4,-2,-1,-2,0
28.571440,0,13,-1,-5,-1,-2,0,0,0
28.571474,-4,-15,-1,2,-2,2,0,1,0
28.573131,11,6,1,-1,1,0,-2,0,0
28.573136,1,9,0,-1,-2,0,-1,-1,0
28.584942,-2,9,3,-7,0,-2,0,0,0
28.584963,9,6,1,7,1,0,-2,1,0
28.593160,3,-8,1,0,1,-1,-1,-2,0
28.593182,0,5,1,0,1,1,-3,1,0
28.608718,6,-9,-2,-4,-4,-2,-2,0,0
28.608725,-5,14,0,-2,-2,-2,-1,-2,0
28.609341,8,-10,-2,-7,-2,0,0,-1,0
28.609350,-2,-9,0,5,-2,-3,0,-3,0
28.630325,6,-1,-12,-1,-2,-2,-1,-2,0
28.630347,16,3,3,1,-1,1,-1,0,0
28.639534,-6,-9,4,-1,-1,-2,-2,0,0
28.639542,-1,3,-4,-5,-4,2,-1,-3,0
28.654444,1,5,1,-1,0,-1,-2,0,0
28.654455,-24,-5,-4,-3,-1,-1,-2,-2,0
28.654527,-1,-13,-4,-1,-2,-3,-1,-1,0
28.654551,-10,31,2,2,2,1,0,3,0
28.670164,15,-26,2,0,-1,-1,-1,-3,0
28.670170,-3,-21,-5,-2,-2,-1,-1,-3,0
28.670172,7,-18,-6,-3,-1,0,-1,1,0
28.670175,-4,39,-3,-3,-3,-4,-2,-1,0
28.691550,1,19,3,4,-3,1,1,-1,0
28.691583,-6,-1,-3,-4,-3,-1,0,-2,0
28.694230,3,-7,4,-2,0,1,0,0,0
28.694243,12,7,1,5,-3,0,-2,1,0
28.704903,-13,3,0,-3,0,0,-1,-1,0
28.704927,0,2,2,0,-1,-1,-1,-1,0
28.713761,-1,10,1,0,-1,-2,-1,-3,0
28.713798,-7,-18,-2,-3,-2,0,-2,-1,0
28.729303,0,-2,-3,-5,0,1,-1,-1,0
28.729332,-7,33,3,7,1,-1,-1,-2,0
28.731647,-1,-51,-2,-2,0,0,-1,-1,0
28.731652,-3,8,-2,-2,0,-3,2,-1,0
28.751933,-3,-10,-2,0,-2,-1,-4,-1,0
28.751991,12,19,-1,-3,-8,-2,0,-1,0
28.754216,-48,0,-3,3,17,-2,1,-3,0
28.754226,2,-14,-3,-4,-2,1,-1,-3,0
28.764760,12,13,4,-1,-1,-3,-1,-1,0
28.764797,-24,-10,1,0,1,1,-2,0,0
28.773057,12,18,-2,-1,0,-1,-3,-4,0
28.773080,8,-24,-7,-2,-1,-1,-1,0,0
28.788927,-13,10,2,-2,4,-1,-2,-1,0
28.788970,7,-9,-4,-5,-3,-1,1,-2,0
28.789845,11,7,0,2,-5,-2,0,-2,0
28.789849,-7,-5,2,-1,2,0,0,-3,0
28.811936,6,9,0,5,-2,-1,0,2,0
28.811943,3,-6,-5,-3,1,0,-1,2,0
28.811944,-3,-4,-4,-7,-6,0,-1,-2,0
28.811946,3,6,5,3,0,0,-1,1,0
28.826930,-5,-5,1,-1,-1,-2,0,-3,0
28.826937,-4,-11,-3,1,-1,0,-1,-1,0
28.833387,1,6,0,0,-2,-1,-1,1,0
28.833409,1,-4,-4,-3,-3,-2,0,0,0
28.847949,-1,-5,2,-7,0,0,-1,-2,0
28.847978,7,-2,2,7,1,0,-2,-1,0
28.856735,19,9,-2,-1,-6,-2,-4,-2,0
28.856740,12,-1,0,-2,0,-1,-1,1,0
28.871436,-22,-11,-9,-2,1,0,-1,-2,0
28.871453,12,14,1,-3,2,-2,-3,-3,0
28.873043,-11,-5,3,-1,-7,-1,1,2,0
28.873047,-4,-6,0,-2,8,-3,-1,-4,0
28.893846,-2,-1,-1,-2,-3,0,1,1,0
28.893927,-2,-2,-4,-1,-2,0,1,0,0
28.895902,-3,-4,-1,0,3,0,0,-1,0
28.895906,-1,-2,0,0,-5,-1,1,0,0
28.907302,7,4,1,4,-2,-1,-2,2,0
28.907317,-7,-5,-2,-3,3,-2,0,-2,0
28.918030,-1,-2,0,-5,-5,1,-1,1,0
28.918044,-3,1,-5,-2,-3,-1,-1,0,0
28.931304,3,-1,-1,4,0,-1,0,-3,0
28.931328,3,23,-1,-1,-3,0,0,0,0
28.933209,4,-32,-7,-1,0,-2,0,5,0
28.933218,-23,-8,1,-4,-3,0,-2,-1,0
28.953681,2,2,-2,-2,0,-1,-1,-2,0
28.953696,5,-6,1,0,1,-2,-2,-1,0
28.955324,2,15,2,-2,-2,-1,-2,-2,0
28.955344,6,3,1,2,0,-1,0,1,0
28.969377,-8,-8,-8,-4,-4,-3,-1,-1,0
28.969384,-8,-5,1,1,-2,-2,1,0,0
28.978323,10,7,2,0,0,-1,-1,1,0
28.978329,-1,16,-5,-2,-5,0,-1,-1,0
28.991239,2,-34,-3,-3,-3,-1,-1,-3,0
28.991263,-2,1,-1,-2,-3,-3,-3,-1,0
28.993344,-8,3,7,9,2,-1,1,0,0
28.993352,2,6,0,1,-2,-2,-2,0,0
29.014814,9,15,1,-6,-1,-1,-2,0,0
29.014822,-27,-20,-5,1,-1,1,-2,-1,0
29.015176,2,-3,-6,-3,-10,-1,-3,-5,0
29.015184,-3,-5,0,1,19,-3,0,-4,0
29.027475,7,10,-2,-3,-2,0,-1,-1,0
29.027497,6,-7,-1,-1,-2,-1,1,0,0
29.038056,-9,8,-3,-2,2,1,-1,1,0
29.038067,-1,-4,-1,-2,-4,0,-1,0,0
29.051444,-15,2,6,1,1,0,-3,-4,0
29.051471,-11,-9,-4,-1,0,-2,-1,-2,0
29.053156,4,-5,-1,1,1,0,1,0,0
29.053170,-3,-5,-1,-10,-2,1,0,-2,0
29.074609,6,14,1,11,0,-2,-1,-1,0
29.074614,13,7,0,-3,-3,0,-1,1,0
29.075240,-6,1,-5,-2,-3,-1,-2,-4,0
29.075258,2,-11,-1,-3,-5,-1,0,1,0
29.088172,3,6,1,0,-1,-1,-1,-3,0
29.088188,1,3,5,4,-2,-1,-2,0,0
29.094996,4,5,-3,-1,-2,-3,-1,-1,0
29.095027,0,-7,-1,3,-2,-2,0,-4,0
29.111394,-11,-11,-9,-6,-1,-2,-3,-1,0
29.111416,-2,-3,-1,-1,-1,-1,0,2,0
29.113234,-4,-4,3,-2,1,0,-1,-1,0
29.113239,0,27,-2,-1,-6,-3,0,1,0
29.134023,-8,-56,-2,2,3,0,0,-1,0
29.134047,-4,-9,-1,-7,-1,0,-2,1,0
29.136346,12,22,-3,4,1,-1,-1,1,0
29.136356,-8,-9,-2,-2,-2,0,0,-4,0
29.148072,11,17,-7,-1,-3,0,1,-2,0
29.148102,-4,5,1,-1,1,-3,0,-3,0
29.154956,1,-8,1,-7,1,0,0,-3,0
29.154974,0,-4,-1,7,-7,0,-2,0,0
29.171897,-8,3,-1,-3,-2,-1,-1,1,0
29.171908,5,0,-3,-4,-2,0,0,-3,0
29.173201,-4,4,1,0,0,-1,-2,-2,0
29.173216,3,-8,0,3,2,0,1,-1,0
29.195523,-7,13,1,-2,1,-2,-2,-4,0
29.195562,-1,-8,-5,0,-2,0,0,-1,0
29.196845,-2,-3,-9,-9,-6,0,0,-1,0
29.196849,-1,-6,1,6,1,1,-2,-3,0
29.208023,-9,-3,-1,-2,-1,-2,-2,1,0
29.208046,-7,2,2,0,2,-1,-3,-4,0
29.214909,-4,-4,-2,1,1,-2,0,0,0
29.214933,11,7,3,-8,-1,0,-2,1,0
29.231558,9,16,-3,0,-1,-1,-1,-3,0
29.231587,-7,-24,-2,1,-1,0,0,1,0
29.233604,0,25,1,0,-2,-3,-2,1,0
29.233612,-24,-49,-7,-3,-1,-1,-1,-1,0
29.253819,4,1,0,-3,-4,-1,-2,-1,0
29.253840,-1,10,10,2,0,0,0,2,0
29.255964,-4,-4,-4,-2,0,-1,-3,-4,0
29.255969,12,13,-3,-1,-1,-2,1,1,0
29.268295,-15,-8,-1,-3,-1,-1,-2,0,0
29.268330,5,0,-12,-7,-3,-1,0,-5,0
29.275377,3,-8,4,-1,-2,-1,-1,-2,0
29.275402,3,3,2,-2,-3,-1,-2,0,0
29.291180,-2,-2,-2,0,1,1,1,-5,0
29.291197,0,3,-2,-3,5,-2,-1,-3,0
29.293109,-1,-3,1,-3,-11,0,0,-3,0
29.293134,-13,3,-4,0,-2,-1,-4,-3,0
29.313684,7,-2,0,-3,-3,-1,-2,-1,0
29.313706,0,-1,-2,3,1,0,-2,3,0
29.315122,-15,-10,0,1,-2,0,-1,-3,0
29.315137,0,-2,2,-3,0,0,0,0,0
29.327983,1,26,0,2,-1,-2,2,-3,0
29.328000,-3,-18,-4,-1,-4,-1,-1,-5,0
29.334929,-1,1,-1,0,2,0,-2,0,0
29.334952,9,3,-1,0,0,0,-1,0,0
29.351361,-4,6,2,-4,-1,0,-1,-2,0
29.351381,28,18,-1,-1,-4,-2,-1,1,0
29.353810,-2,0,0,3,1,-1,-2,-3,0
29.353814,-9,-6,-6,-4,0,-4,-2,-1,0
29.374999,3,-10,-1,-4,-4,-2,-2,1,0
29.375006,-3,7,3,0,-1,-1,2,-1,0
29.375244,1,-12,-4,-2,2,0,1,0,0
29.375252,5,5,5,-2,-2,-1,-1,-1,0
29.387440,9,-4,3,1,-10,-2,0,-1,0
29.387464,-4,-1,-8,4,1,1,0,1,0
29.396634,3,9,2,-3,1,0,-1,-2,0
29.396638,-8,-5,-4,-4,-2,-2,-2,-1,0
29.411422,-7,-8,0,3,-1,-1,-1,-3,0
29.411438,0,12,8,-3,-2,-1,-2,0,0
29.412817,4,-1,-7,2,1,-1,2,2,0
29.412823,7,-7,-1,-1,-1,-3,-2,-2,0
29.433974,-3,8,1,-2,3,0,0,0,0
29.433999,-2,-17,-4,-1,-4,-2,0,-2,0
29.435989,-2,4,2,0,1,-2,0,-2,0
29.436000,0,-1,1,0,0,0,1,0,0
29.447335,-4,12,-3,-1,0,-3,-2,0,0
29.447358,-6,-4,-2,-4,-1,-3,-2,-5,0
29.456694,-2,-7,-4,-2,-1,-1,-1,-1,0
29.456698,7,7,2,1,0,-1,-1,2,0
29.471917,13,-14,-8,-3,-1,-1,0,-1,0
29.472022,-34,0,-7,-7,-1,-2,-2,-3,0
29.473193,-1,-12,2,1,0,-1,-3,1,0
29.473205,2,3,2,7,-1,-2,-2,-2,0
29.494074,-4,-6,0,0,3,1,-1,0,0
29.494106,8,2,2,0,0,0,-1,2,0
29.495596,-1,-1,-5,-3,-1,1,-1,0,0
29.495604,-12,-1,-1,-3,-2,0,1,-2,0
29.507826,1,-10,-2,-1,0,0,2,-1,0
29.507855,4,21,1,-2,3,-1,-4,-1,0
29.518685,-11,-39,2,2,-1,-1,-1,-3,0
29.518692,5,1,2,1,0,1,0,1,0
29.531175,4,3,1,2,-1,-1,-1,2,0
29.531192,4,-2,1,0,-3,-1,0,1,0
29.532730,2,16,-3,-4,-2,-2,-2,-1,0
29.532745,-9,-7,0,-6,-2,-3,-4,0,0
29.553887,1,-6,-1,0,0,-1,-2,-2,0
29.553912,6,6,1,4,-1,-1,1,2,0
29.556340,5,-2,-1,0,-2,-1,0,0,0
29.556345,1,0,-3,-1,0,-1,0,0,0
29.567459,-5,1,-1,-2,-1,-1,-2,-1,0
29.567483,6,-3,1,-1,-1,-3,-2,-3,0
29.577653,-1,2,0,-2,-13,0,1,-1,0
29.577659,10,21,4,4,3,-1,-2,-4,0
29.591143,-15,-22,-3,0,-1,0,-1,3,0
29.591154,1,2,-2,-2,-2,1,0,-1,0
29.592752,0,-6,-2,-3,-5,-1,0,2,0
29.592771,3,16,0,-2,-3,0,-2,0,0
29.614017,-1,8,1,0,0,-1,-2,-2,0
29.614038,-10,-6,4,-2,-1,-1,-2,0,0
29.615186,6,7,-1,6,3,0,0,0,0
29.615209,-11,-12,-5,-3,-2,0,0,-1,0
29.627932,0,-1,-1,-5,0,-3,-3,-2,0
29.627961,-1,-8,-3,-5,-3,-1,0,-3,0
29.637272,3,5,2,3,3,-3,-3,0,0
29.637277,-8,-9,-5,0,-1,0,0,0,0
29.653722,-1,2,4,-2,-5,-2,1,4,0
29.653734,-3,-3,-12,-4,-1,-2,-1,-4,0
29.653737,4,-14,1,-2,2,-1,0,1,0
29.653739,-2,20,-2,0,-1,-1,0,-1,0
29.673869,-14,-27,-3,-4,-1,1,-3,-3,0
29.673891,1,1,0,-2,-3,0,-3,1,0
29.675241,-2,6,2,-6,-1,-1,1,-1,0
29.675257,-2,-4,-3,9,-2,-1,1,1,0
29.687507,6,9,4,1,-1,1,1,-3,0
29.687524,-28,-6,0,3,1,0,0,-1,0
29.699170,1,-2,-3,-3,-1,0,-2,-2,0
29.699176,10,-7,0,-10,-3,-1,0,0,0
29.711247,-3,2,-9,-2,-2,-3,-1,2,0
29.711269,6,-3,4,0,-1,0,1,2,0
29.712627,-4,7,-4,-1,0,1,0,-3,0
29.712635,-3,-9,2,-5,-1,-2,-1,1,0
29.734191,11,13,1,4,-1,0,0,0,0
29.734225,-4,-19,-8,-6,0,-1,-3,0,0
29.735446,0,-1,-5,-2,-4,-1,-1,1,0
29.735472,-10,-3,-1,-4,-2,-2,-2,-3,0
29.747274,-4,-3,-3,1,-2,0,1,0,0
29.747285,5,10,4,1,0,-1,0,1,0
29.756858,0,3,2,1,1,-1,-1,-3,0
29.756863,-1,-9,0,-3,-1,-2,-2,-1,0
29.771431,5,13,-2,-4,1,-1,0,-1,0
29.771455,1,-2,0,1,-3,0,-1,-1,0
29.772979,11,-5,-3,0,0,-1,-2,0,0
29.772984,5,21,0,-1,-2,-1,-2,-1,0
29.794616,-19,-18,-2,-7,-3,-1,0,-3,0
29.794626,4,2,-4,4,0,-1,-1,-2,0
29.795230,-12,-2,2,-1,0,1,-2,2,0
29.795239,2,2,-3,-1,0,0,0,-1,0
29.816563,-7,1,-1,-1,1,-1,-2,-3,0
29.816584,14,-1,-1,-5,-1,-1,-3,-2,0
29.819049,-9,10,-1,-1,-1,-2,0,-2,0
29.819056,-7,-12,-2,3,-2,-2,0,1,0
29.831906,6,-2,-2,-2,-2,-1,-2,0,0
29.831945,0,3,0,-2,-3,0,-1,-3,0
29.835514,0,-4,4,0,1,-1,-1,0,0
29.835526,2,12,-1,1,-1,1,-1,-1,0
29.853855,-1,-42,-1,1,2,-3,-1,-2,0
29.853875,2,9,2,-3,-4,-2,0,0,0
29.855927,-28,-6,-6,-4,-2,-2,0,-1,0
29.855936,1,-11,-2,-4,-2,-2,-1,-2,0
29.876241,2,19,3,1,-1,0,1,0,0
29.876264,-1,0,-1,-4,1,-2,-2,-4,0
29.878220,1,-2,0,6,1,-3,-1,-2,0
29.878229,-8,-8,-2,-5,0,-1,0,-1,0
29.898711,4,5,-1,7,0,0,-2,-3,0
29.898733,1,-5,0,-2,0,-2,2,-1,0
29.900733,1,5,-3,-3,-2,-1,-3,-3,0
29.900769,-13,-10,0,2,-1,0,-2,1,0
29.913891,7,6,3,-3,-3,-1,-1,-2,0
29.913913,-6,-13,-6,-1,-1,0,-1,1,0
29.915549,10,11,10,0,-1,-1,1,-2,0
29.915649,8,27,-8,-1,1,0,0,0,0
29.936276,-20,-50,-6,-5,-3,-1,-3,-2,0
29.936291,0,6,-2,1,0,-1,-1,-2,0
29.937866,7,-4,-2,-2,-2,-1,-1,-2,0
29.937888,17,8,2,-2,-3,-1,0,0,0
29.950668,6,7,-2,5,-1,0,2,2,0
29.950690,-4,8,-2,0,0,1,-2,-3,0
29.957321,-8,-16,-3,-1,-2,0,-2,0,0
29.959234,0,-9,-2,-5,-4,-2,-2,0,0
29.973743,9,10,1,-4,-5,-2,-1,-2,0
29.973765,-10,11,1,2,-4,0,-1,-1,0
29.975912,3,5,-1,-3,-1,0,1,1,0
29.975922,-18,-18,-3,-2,-2,1,-1,-3,0
29.996427,2,14,1,0,-1,0,-3,0,0
29.996432,4,-6,4,2,2,-3,-1,1,0
29.997571,8,2,2,1,-1,-1,-1,-1,0
29.997588,-7,-6,-3,2,1,-3,-1,-2,0
30.010939,3,4,1,-1,-1,-2,-1,2,0
30.010991,-6,-6,-1,-2,-2,1,0,-2,0
30.017862,3,-5,0,-8,-1,-1,-3,-2,0
30.017888,3,-3,1,8,1,0,-3,1,0
30.034124,-5,1,0,3,0,0,-1,-1,0
30.036611,11,-2,-2,-2,-2,-1,0,1,0
30.036625,-32,-16,-12,-5,-3,-1,-1,-1,0
30.036628,10,-3,3,-1,0,0,0,1,0
30.056171,-3,27,-1,-4,-3,-1,-2,-4,0
30.056189,-5,-45,-2,0,0,1,0,-1,0
30.057714,2,4,0,0,-1,-2,1,-2,0
30.057726,0,1,3,1,-2,0,-2,-1,0
32.081349,37,2,7,-8,-3,-2,0,1,5
32.081723,-11,-8,-5,-3,0,-2,-3,1,5
32.084357,-10,-24,-3,1,0,0,0,2,5
32.084363,8,28,-1,0,2,2,1,1,5
32.095485,-4,-23,0,2,-4,-3,-2,-1,5
32.095501,1,1,7,-1,-1,-2,-3,-4,5
32.103152,0,-17,-10,-4,-1,-2,-1,-3,5
32.103170,21,10,-1,-3,-2,0,0,-2,5
32.119718,-11,-2,-2,2,3,3,2,0,5
32.119734,5,1,-4,-5,-7,-2,-3,-3,5
32.120674,-17,7,4,1,0,0,1,0,5
32.120700,3,-21,2,4,0,-2,-2,1,5
32.141345,-2,40,2,-1,0,-2,-1,-4,5
