timestamp,emg1,emg2,emg3,emg4,emg5,emg6,emg7,emg8,label
2.002661,29,-7,26,7,-1,0,-2,7,4
2.002987,41,34,-7,0,2,2,6,13,4
2.004077,7,0,20,5,0,-5,-5,8,4
2.004081,-43,-57,-24,-6,-3,-5,-13,-76,4
2.027060,-86,121,17,9,6,4,8,-9,4
2.027066,33,59,5,-1,-4,-6,-13,-32,4
2.027067,-47,-61,-6,-12,-2,2,4,15,4
2.027070,34,11,9,6,6,4,4,-20,4
2.048803,21,36,-10,-2,-1,-2,0,43,4
2.048832,43,-34,32,20,4,2,3,-12,4
2.051133,-57,20,-4,-6,0,-3,-4,3,4
2.051152,18,-63,-10,-5,-2,1,3,13,4
2.062856,58,17,8,0,0,0,-1,40,4
2.062869,-67,99,49,1,11,10,19,-7,4
2.070223,-56,-103,-46,-9,-9,-7,-19,-71,4
2.070247,23,-61,-33,-18,-9,-4,-2,26,4
2.085808,57,-35,-6,8,0,-1,3,7,4
2.085839,-23,-96,-25,-1,-2,-4,-3,-18,4
2.087103,83,38,21,-5,2,4,6,21,4
2.087108,-46,80,23,0,1,2,-2,-18,4
2.108505,24,38,-16,-1,-4,-3,-7,-34,4
2.108535,89,26,-11,-8,-4,-4,-2,39,4
2.109034,-59,-57,-1,-1,-2,0,0,2,4
2.109055,-7,-17,-9,0,-2,-4,0,8,4
2.122653,62,91,39,-3,1,1,2,-44,4
2.122676,-49,-71,-50,-2,-5,-8,-14,75,4
2.123290,41,99,4,-15,-10,-13,-22,-41,4
2.123305,-64,72,0,-8,-5,4,10,3,4
2.146008,-44,-34,-30,-8,-3,4,2,-13,4
2.148582,15,-40,16,16,6,-12,-4,5,4
2.148587,48,52,-26,-3,-10,-13,-9,12,4
2.148589,-59,-91,23,28,6,-4,-10,-26,4
2.168768,-8,30,2,-7,2,2,-2,-8,4
2.168799,123,-68,7,1,2,21,17,41,4
2.169106,-94,-36,-4,-18,7,39,12,111,4
2.169114,45,1,8,12,-2,-27,-8,-40,4
2.182733,-13,-9,1,4,0,-4,-2,41,4
2.182739,83,26,-19,-4,-2,-8,0,18,4
2.183361,-26,49,12,2,2,7,4,-31,4
2.183367,-77,-56,-69,-47,-11,4,-1,-19,4
2.205234,3,-73,5,20,5,-8,-10,4,4
2.205256,31,10,-36,-18,-10,-7,-10,-31,4
2.207026,-19,-19,-9,1,2,-5,-1,-24,4
2.207032,101,45,41,9,7,11,17,37,4
2.229941,-106,108,33,3,-2,-8,-6,-27,4
2.229954,-68,-2,-1,-16,-7,2,3,1,4
2.229956,-35,-28,-14,-10,-3,-9,-9,-41,4
2.229959,44,18,-4,16,1,0,-2,20,4
2.242710,99,63,19,2,6,11,3,-12,4
2.242746,-1,107,22,-6,-8,-7,-12,40,4
2.245055,-17,-128,11,1,3,-4,5,-3,4
2.245059,53,122,-3,2,2,3,-3,21,4
2.265788,47,-47,-14,-5,-3,1,4,-10,4
2.265808,32,23,-7,3,1,0,-4,-68,4
2.267058,36,12,9,9,1,-5,10,58,4
2.267065,45,-33,-6,-10,-9,-5,-13,-5,4
2.288395,-2,11,-3,14,8,4,6,20,4
2.288418,-92,-106,-24,-19,-10,-12,-15,-54,4
2.289795,52,-94,-9,6,1,1,0,13,4
2.289804,-36,30,23,-1,5,5,2,-41,4
2.302689,-81,-117,-25,-20,-11,-7,-6,24,4
2.302708,7,127,-39,-11,-3,-1,-3,-30,4
2.304116,65,-24,-12,6,1,-4,-6,-16,4
2.304121,35,30,-16,-3,-2,1,5,34,4
2.326404,-44,-74,8,-1,1,-2,-6,-46,4
2.326422,-15,92,24,3,2,2,0,-6,4
2.327024,-33,-72,-31,-15,-9,-5,4,0,4
2.327036,-128,-76,13,4,1,-1,-7,-36,4
2.348428,7,21,-23,1,-3,1,-2,-18,4
2.348450,21,-61,24,-8,-1,3,6,12,4
2.350429,-36,127,28,23,8,-2,-1,32,4
2.350436,-43,-37,3,-7,0,3,5,-1,4
2.362681,55,102,17,8,5,0,5,34,4
2.362710,25,-49,5,27,9,9,11,-3,4
2.365656,52,-78,-9,-24,-8,-8,-10,-13,4
2.365662,125,78,5,0,2,0,-2,-34,4
2.386171,76,70,-16,-13,-5,0,-1,44,4
2.386193,-37,94,19,20,2,1,-2,-17,4
2.386433,-23,-53,6,6,3,2,5,28,4
2.386442,-49,-53,-9,0,-3,-1,-4,-16,4
2.408391,62,-23,-12,-8,-4,1,6,-20,4
2.408415,23,14,10,-6,-2,-4,-3,6,4
2.410471,39,42,-5,7,1,2,0,-53,4
2.410475,4,-128,-10,-10,-2,-6,-5,53,4
2.422896,-70,-50,25,7,-3,-3,0,21,4
2.424857,73,22,5,-18,-4,-2,2,2,4
2.424867,40,108,-17,-17,-6,-8,-7,-18,4
2.424869,17,12,15,2,2,5,7,57,4
2.448559,46,64,-22,-7,-6,-4,-8,-21,4
2.448571,95,-57,-15,11,1,2,6,31,4
2.448575,2,119,43,7,5,6,7,13,4
2.448578,-78,-60,-55,-21,-9,-8,-15,-53,4
2.468584,8,-31,36,0,-1,-4,-3,6,4
2.468601,-22,-40,-21,-9,-7,-3,-8,-38,4
2.468985,11,23,7,-1,0,2,0,6,4
2.468992,85,127,26,14,7,2,3,15,4
2.482619,-53,-110,-61,-18,-8,-4,0,67,4
2.482643,-46,92,20,5,6,6,9,1,4
2.483394,-108,-38,12,1,-2,-3,-11,26,4
2.483416,39,121,16,9,3,4,5,17,4
2.506363,23,127,30,-3,2,2,2,32,4
2.506923,-46,-128,-54,-13,-9,-9,-6,30,4
2.506943,-14,44,-12,-3,2,-2,-5,-28,4
2.506948,-80,-65,5,-5,0,0,12,2,4
2.528612,15,75,30,31,7,6,8,-2,4
2.528631,25,-89,-2,-7,-4,-4,-8,1,4
2.529503,30,94,24,5,1,1,1,10,4
2.529520,99,107,44,19,8,9,12,-32,4
2.542599,-12,42,-24,-11,-10,-6,-12,-43,4
2.542623,90,46,-4,-10,-2,-3,-1,9,4
2.543233,50,50,-10,9,0,0,3,11,4
2.543241,78,12,30,6,3,3,5,-2,4
2.565938,28,74,30,-2,2,4,6,-9,4
2.565956,-15,-41,6,8,0,0,-6,15,4
2.567163,-76,-105,-34,-19,-8,-5,-6,-27,4
2.567168,-12,52,-9,-6,-3,-4,-5,9,4
2.588240,55,-84,-7,11,0,-2,-9,-15,4
2.588248,-97,-37,-7,-5,0,-2,-4,-41,4
2.588912,-26,49,27,7,1,1,3,57,4
2.588991,61,-128,-40,13,-3,-1,0,-5,4
2.604426,-110,40,30,-8,-3,-2,-3,-2,4
2.604432,-66,-16,-5,-27,-3,0,-5,-44,4
2.610309,52,32,3,25,2,2,3,3,4
2.610328,-84,-57,-19,-10,-6,-4,-8,-17,4
2.626191,37,84,9,15,5,-1,-3,-18,4
2.626209,23,-53,10,9,4,3,10,43,4
2.627302,56,-11,-5,-15,-5,-4,-8,-42,4
2.627306,8,52,9,-1,-1,-2,-5,6,4
2.648277,6,-95,-23,-12,-3,-2,1,-1,4
2.648297,-8,27,22,12,1,1,6,21,4
2.650119,11,-128,-36,-33,-10,-10,-11,57,4
2.650123,-128,46,17,16,6,1,-4,-39,4
2.662281,38,-60,-19,-7,-2,-3,-7,-76,4
2.662310,3,-26,-12,-16,-7,-3,4,14,4
2.670205,32,96,15,14,2,2,14,1,4
2.670222,107,-68,-4,-1,2,0,-6,-7,4
2.686059,-112,-18,-17,-18,-7,-4,-3,27,4
2.686087,-84,-31,-9,1,0,-4,-7,-21,4
2.686456,8,-81,3,16,5,1,-5,-57,4
2.686462,33,70,22,-7,-4,-4,-2,36,4
2.708301,82,87,0,-1,2,4,8,26,4
2.708319,-11,-5,4,7,1,0,-3,5,4
2.709912,79,-51,-8,-16,-1,-5,-4,-3,4
2.709916,65,-2,-1,4,2,6,13,35,4
2.721987,-73,-90,-28,-5,-4,-4,-17,-60,4
2.722009,22,121,4,9,1,4,7,10,4
2.730885,-18,27,6,-2,0,0,-1,10,4
2.730916,26,35,2,-3,-2,-3,-5,8,4
2.745913,28,-9,-10,-26,-1,0,4,1,4
2.745929,124,77,2,24,0,-2,-7,-23,4
2.746606,-33,66,5,-7,1,3,4,-20,4
2.746665,-24,-44,-4,-4,-3,-2,-3,79,4
2.768698,14,-12,10,5,2,4,5,-12,4
2.768732,-93,-53,-27,-16,-10,-11,-12,32,4
2.771219,4,82,15,9,2,4,0,-14,4
2.771223,46,35,-10,-10,0,1,1,-13,4
2.781973,-63,42,39,15,4,-1,3,7,4
2.781999,71,-69,-20,-9,-1,-1,3,20,4
2.797639,-40,16,1,1,-1,-1,1,-3,4
2.797658,-13,-32,3,-9,0,0,3,0,4
2.805951,89,50,19,7,-3,-4,-7,-5,4
2.805966,48,127,25,-6,-2,-1,5,-14,4
2.807846,16,-71,-9,-7,-2,-2,-6,-9,4
2.807849,10,-11,-19,-5,-9,-5,-3,-19,4
2.828382,12,-59,-1,-3,2,-3,-3,-6,4
2.828395,33,-41,-7,-11,-1,10,-1,28,4
2.831366,31,-12,-5,5,-2,-4,2,2,4
2.831377,74,68,-2,-5,-1,-13,-11,1,4
2.842372,-75,59,-18,-5,-2,-2,-6,-11,4
2.842399,-4,46,-6,-6,-1,-1,6,17,4
2.853024,-57,45,1,-4,-1,7,4,-47,4
2.853030,-59,-117,-1,9,-7,1,-4,-20,4
2.864854,-6,-91,-25,-9,5,-4,-3,-8,4
2.864889,95,4,15,15,5,6,-2,-35,4
2.874373,11,69,47,4,1,-1,-4,38,4
2.874376,-54,51,-14,-3,-7,-5,2,-9,4
2.888358,29,121,29,15,4,7,10,7,4
2.888380,-79,-104,-17,-2,-1,-3,-5,-7,4
2.889959,21,57,1,1,1,-1,6,38,4
2.889978,-39,-36,-6,-18,0,-2,-8,-7,4
2.910695,-86,-128,-24,-4,-5,-6,0,65,4
2.910718,14,127,15,17,5,1,-1,-38,4
2.912239,-76,-21,-9,1,-3,-5,-5,7,4
2.912244,-5,91,2,1,2,4,7,46,4
2.926401,47,-49,-11,-2,-5,-3,-5,29,4
2.926429,-4,64,1,-13,-2,-4,5,39,4
2.929310,60,-24,-13,0,-4,-3,-9,-40,4
2.929314,40,-32,-15,-8,-3,-1,-2,-12,4
2.948339,53,34,21,5,3,4,7,-10,4
2.948365,14,40,28,12,4,4,4,25,4
2.950091,-33,-119,-33,-17,-7,-3,3,10,4
2.950190,-32,-48,4,5,1,-1,-5,-40,4
2.970787,-18,107,14,12,-1,-1,0,-28,4
2.970809,-111,-40,-19,-17,-6,-9,-16,-23,4
2.972430,38,-11,7,7,2,-2,-1,-20,4
2.972464,-4,107,8,0,-1,-2,-2,-20,4
2.985952,-27,-128,-21,-10,-3,-2,-5,-29,4
2.985970,81,15,16,-7,-2,0,2,-15,4
2.987936,51,45,-24,1,-2,0,4,5,4
2.987942,17,26,-29,-20,-7,-5,-8,-19,4
3.009927,-34,46,-12,25,3,1,-3,-11,4
3.010013,55,-128,-16,-6,-2,0,0,10,4
3.010016,-74,-84,-8,3,-3,-6,-6,22,4
3.010018,93,79,24,12,8,11,15,6,4
3.031261,119,42,-12,-15,-4,-2,-4,4,4
3.031296,23,-66,3,3,-1,-2,-5,35,4
3.033807,-89,-99,-18,-12,-5,-4,-7,-42,4
3.033813,23,76,22,13,3,1,-3,13,4
3.045272,9,-116,4,1,-1,2,6,10,4
3.045296,-22,-1,-33,-5,-2,-4,-2,19,4
3.051919,-3,35,19,0,4,0,-5,17,4
3.051935,-8,-98,2,-18,-4,-5,-5,-19,4
3.068640,-49,-10,-14,-3,-3,-4,-6,6,4
3.068658,16,66,1,-1,2,2,2,-14,4
3.070455,-68,60,3,1,-4,-2,0,-13,4
3.070468,-18,-112,-12,13,0,-3,-8,-10,4
3.091214,64,-101,-33,-14,-7,-5,-8,-25,4
3.091234,32,47,59,18,1,1,1,-1,4
3.092166,127,-68,-42,-29,-4,-6,-8,-67,4
3.092181,59,86,5,6,0,-1,-2,26,4
3.105269,18,88,-9,-4,-1,-1,3,31,4
3.105282,-53,90,12,5,4,3,0,-39,4
3.112400,69,-9,22,11,1,4,6,40,4
3.112429,13,-7,-19,-3,-7,-2,0,6,4
3.128398,123,0,15,-24,-5,-8,-7,9,4
3.128421,81,-40,-10,18,2,-2,-3,33,4
3.129857,-28,32,12,5,1,2,1,13,4
3.129864,-34,37,-2,0,0,-3,-2,13,4
3.150814,-59,89,6,0,1,6,10,20,4
3.150841,-97,-7,2,-7,-2,-3,-7,-32,4
3.152636,50,-107,5,7,-2,18,14,67,4
3.152671,44,79,9,-16,2,-10,-1,-66,4
3.166409,-69,-28,-11,11,2,-2,3,-10,4
3.166417,-113,-67,-7,3,3,-1,1,-11,4
3.172077,127,127,41,9,10,10,18,7,4
3.172099,-57,-97,-25,-24,-6,1,-6,19,4
3.188490,-31,-6,19,4,0,2,0,-17,4
3.188518,89,94,6,-5,-2,-1,3,-6,4
3.190779,-28,-41,15,-1,2,1,-1,-11,4
3.190782,-25,0,-1,5,0,-2,-4,-53,4
3.210952,127,-59,1,7,-2,-1,1,14,4
3.210974,58,92,20,3,1,1,0,-1,4
3.213538,-45,-51,-35,-22,-5,-9,-11,19,4
3.213550,9,48,14,7,-3,-5,-10,-26,4
3.225229,7,38,3,12,-1,-1,-1,11,4
3.225257,-59,20,-8,-13,-2,1,3,-27,4
3.235331,-43,70,3,1,2,-1,4,-12,4
3.235337,-74,-48,-24,-9,-3,-1,2,26,4
3.248323,5,82,15,2,4,3,-5,3,4
3.248341,-72,16,-4,3,-5,-3,-2,-17,4
3.251193,-9,10,-12,11,-1,-4,-2,13,4
3.251203,-75,18,17,-2,1,3,0,-52,4
3.270784,-111,-51,-12,15,-1,0,2,21,4
3.270807,-66,19,-41,-21,-10,-14,-22,-34,4
3.272399,81,-37,-4,0,-4,0,6,41,4
3.272407,-13,9,0,-2,2,4,4,-26,4
3.284891,-91,7,-3,-2,-2,-1,-1,-5,4
3.284925,51,1,-5,-7,-2,0,-2,-54,4
3.294351,-46,-44,-4,-3,-2,-4,-9,13,4
3.294359,3,-29,1,19,-3,-4,-7,26,4
3.308449,64,-4,13,-6,3,1,5,26,4
3.308529,45,-44,-10,2,1,1,7,10,4
3.309944,-33,8,-13,-9,-6,-8,-11,-38,4
3.309977,14,12,7,9,5,5,7,22,4
3.331271,-85,87,7,-14,-6,-8,-14,-23,4
3.331307,71,-68,4,11,2,4,4,19,4
3.334200,3,16,7,13,5,2,1,-12,4
3.334208,-55,-99,-52,-23,-11,-9,-8,27,4
3.345340,34,57,-32,-11,-5,1,1,-35,4
3.345363,-42,-39,24,1,9,2,0,29,4
3.352151,33,91,11,-6,-2,-4,-6,-29,4
3.352176,-4,-82,-9,4,-2,0,6,29,4
3.368760,-6,52,-12,-11,-4,-4,-8,-40,4
3.368778,-46,-25,-2,2,-1,0,13,74,4
3.369925,-92,73,7,4,1,-2,-2,13,4
3.369943,30,-8,6,-3,-2,-4,-9,3,4
3.390820,36,-55,-20,-16,-4,-4,-4,-31,4
3.390842,-27,109,9,2,-1,0,2,16,4
3.393056,39,118,42,21,6,6,12,33,4
3.393061,59,-89,-42,-19,-5,-4,-10,-39,4
3.404385,-6,-45,6,-1,2,3,2,2,4
3.404409,34,-6,-42,-1,-9,-8,-10,-5,4
3.415612,-116,16,3,-11,-1,-3,-8,-29,4
3.415619,-41,-83,-1,8,2,1,0,-29,4
3.430465,113,91,16,7,6,17,12,17,4
3.430487,-86,78,11,6,4,-10,7,22,4
3.430493,3,-128,-56,-7,-6,-9,-15,-34,4
3.430498,-45,26,16,6,-1,-1,8,49,4
3.458665,-4,12,9,0,-2,-3,-8,-52,4
3.461358,13,66,7,-4,0,7,1,-33,4
3.461365,106,-76,18,6,0,1,8,60,4
3.461367,21,74,-11,5,3,4,10,84,4
3.464665,-124,-96,-29,-29,-9,-9,-20,-80,4
3.464694,123,-63,-18,7,-1,1,-6,-6,4
3.475166,117,-6,-14,-5,-2,-5,-4,-33,4
3.475179,101,59,41,16,4,5,7,11,4
3.488349,-75,-70,-14,-20,-6,-10,-9,48,4
3.488372,70,30,1,13,-5,-1,-6,-28,4
3.491045,18,-20,-15,-11,0,-1,-9,-64,4
3.491058,16,114,32,0,1,4,5,-5,4
3.510852,-28,22,8,22,2,-5,-8,4,4
3.510994,-3,-67,-5,-8,-1,0,-2,-33,4
3.512201,-49,-83,5,-1,0,2,11,29,4
3.512234,0,85,10,6,3,-1,-3,-22,4
3.524510,61,5,22,0,-3,-3,5,17,4
3.524531,21,-124,-15,-5,-2,0,-2,19,4
3.535169,56,87,-7,2,-3,0,1,14,4
3.535175,-100,-93,-12,-7,2,0,3,1,4
3.548430,1,43,7,19,5,1,2,-9,4
3.548448,-40,-62,14,9,-1,3,10,33,4
3.550623,39,127,28,-3,2,-4,-13,-72,4
3.550634,127,79,0,0,0,-7,-15,-21,4
3.571051,77,-32,-5,-2,-2,0,1,57,4
3.571055,57,80,-12,-18,-6,-4,-9,-48,4
3.572257,17,55,18,6,4,4,5,-41,4
3.572264,-51,-15,-8,3,1,1,5,39,4
3.585343,73,-41,-13,-16,-2,-1,5,-3,4
3.585370,-24,9,-15,-4,3,-2,-3,-22,4
3.594820,-84,-8,-17,-3,-3,-2,-2,50,4
3.594825,25,-44,19,9,0,-3,-2,-13,4
3.608270,-24,37,12,2,2,2,0,32,4
3.608293,23,-83,-8,-16,-3,1,9,70,4
3.609885,46,-69,-15,16,-5,-2,-4,-26,4
3.609890,48,-42,-6,-6,1,0,0,-27,4
3.631031,12,-78,9,13,4,-2,2,64,4
3.631058,10,105,-6,-1,-3,-3,-10,-62,4
3.632667,-71,94,25,-2,0,-4,-6,14,4
3.632671,-71,-5,-17,3,-6,-5,-9,-37,4
3.644964,101,97,-1,-2,0,5,12,8,4
3.645073,-128,-87,7,3,-2,-3,-7,-20,4
3.653369,89,3,-1,-1,0,2,8,46,4
3.653391,8,-61,-41,-15,-9,-5,-7,1,4
3.668665,-1,8,12,-10,2,0,0,2,4
3.668692,-60,15,-3,-9,-4,-3,-1,36,4
3.669838,9,-44,-7,-8,-1,0,2,15,4
3.669913,55,57,29,20,4,1,1,-27,4
3.690787,-101,8,-30,-3,-4,-2,-1,43,4
3.690807,95,-108,19,-5,-2,-2,-6,-11,4
3.692371,46,-48,-14,-9,-1,-3,-3,0,4
3.692378,-59,80,21,4,0,3,-2,-15,4
3.704430,-45,-60,-50,-8,-7,-11,-14,-22,4
3.704454,35,28,26,5,8,5,5,5,4
3.715817,71,107,19,14,2,1,6,58,4
3.715823,43,-112,-25,-29,-6,0,3,43,4
3.735841,127,127,22,19,6,4,7,38,4
3.735861,89,-105,-20,0,-3,-5,-12,-58,4
3.737475,-75,63,28,-22,-7,-2,1,32,4
3.737478,47,-109,-24,-8,-1,0,1,-40,4
3.751555,20,93,33,13,5,20,15,15,4
3.753313,-66,4,-25,-7,-6,-21,-9,9,4
3.753323,-27,-60,-17,-10,-4,-6,-8,-13,4
3.753325,11,127,20,-4,-3,-4,0,1,4
3.764620,-128,-3,22,19,4,2,-1,-7,4
3.764644,-100,9,-14,-15,-4,4,5,12,4
3.774902,65,-86,-22,-4,-3,-2,-8,-15,4
3.774908,-66,-9,12,4,0,-1,-2,17,4
3.788268,57,-71,-5,-5,-3,-1,-2,12,4
3.788290,-75,127,62,17,11,12,14,31,4
3.790174,-69,-34,0,2,-4,-5,-3,-15,4
3.790180,-55,92,-38,-17,1,2,-8,-16,4
3.811033,-21,-98,-20,21,-4,-6,2,1,4
3.811047,70,105,14,9,1,2,-2,24,4
3.813158,20,-1,-20,8,1,3,4,8,4
3.813174,-29,11,44,21,10,6,7,-14,4
3.824772,106,-21,-15,-17,-7,-7,-10,-18,4
3.824904,-50,-128,-10,-13,-3,-4,-11,-4,4
3.834084,9,47,1,7,1,3,6,-29,4
3.834088,62,-83,7,-5,-3,-3,2,72,4
3.848375,-17,-70,-19,-11,-3,-6,-5,-34,4
3.848402,-27,54,-1,-3,-3,2,16,-26,4
3.849822,10,127,20,0,2,2,-2,-42,4
3.849828,38,63,34,2,-3,-4,-13,55,4
3.870807,-58,49,-11,-23,-5,-6,-7,-12,4
3.870824,83,126,45,45,9,5,3,25,4
3.872257,-7,-128,-43,-32,-11,-4,2,-2,4
3.872290,90,117,-15,5,0,3,12,-36,4
3.893296,51,-68,0,0,-5,-11,-22,-71,4
3.893324,113,-19,10,-7,0,5,11,101,4
3.895036,-21,-40,-11,9,4,14,-1,-69,4
3.895040,18,85,20,0,2,-7,-3,43,4
3.907900,-57,46,5,-2,-1,-8,2,15,4
3.907917,-36,5,-19,-5,3,-1,-5,-2,4
3.916525,-22,-65,-10,-15,-3,-8,-2,-18,4
3.916532,-93,-73,-19,-2,-3,5,1,-23,4
3.932343,27,51,24,3,4,5,15,54,4
3.932348,71,-44,-51,-14,-3,-7,-12,-102,4
3.932401,-96,-60,-22,-14,-11,-9,-21,-9,4
3.932427,88,-95,-3,-3,-5,-6,-4,-34,4
3.953409,70,15,-6,4,2,1,9,41,4
3.953431,105,87,-2,1,-1,0,-11,31,4
3.955420,86,-4,31,12,3,0,3,34,4
3.955424,-72,61,-7,8,-1,-3,-4,-61,4
3.968386,110,-78,-16,-8,-9,-1,-9,9,4
3.968416,-118,-64,-4,-10,-1,-2,-5,-64,4
3.974551,44,83,20,9,6,1,2,103,4
3.974571,33,1,-8,-10,-4,-4,0,44,4
3.991169,73,127,3,-1,0,7,9,-41,4
3.991192,-21,-13,23,12,-2,-3,-7,-43,4
3.993558,12,46,38,11,10,2,6,33,4
3.993564,13,-60,-42,-8,-7,-7,0,67,4
4.013623,-46,-56,-32,-14,-7,-7,-11,-71,4
4.013720,28,14,-10,-8,-5,-3,-5,38,4
4.015027,25,-17,-19,-1,-3,-1,2,-14,4
4.015047,19,108,40,5,5,6,5,3,4
4.027705,-123,-101,16,6,5,5,1,-27,4
4.027720,-9,86,6,-4,-3,-3,0,18,4
4.034820,40,-43,-15,-15,-4,-2,-6,-27,4
4.034848,55,29,7,6,0,-2,-1,0,4
4.051189,-33,-17,8,-4,4,2,5,31,4
4.051243,109,-11,-18,4,-11,-7,-11,-2,4
4.054124,-82,25,14,6,3,1,4,-25,4
4.054131,5,-12,1,-22,-6,-8,-17,-38,4
4.073501,-17,-36,7,14,1,19,9,-43,4
4.073515,-72,92,32,11,7,-3,16,75,4
4.074889,85,-9,-16,2,-6,-13,-13,62,4
4.074954,-25,-107,-44,-3,-5,-4,-4,-70,4
4.087606,-36,95,-13,-13,-5,-6,-4,71,4
4.087615,-23,14,3,-3,4,10,10,-44,4
4.094363,40,92,-6,14,3,5,4,1,4
4.094385,-102,88,19,12,7,3,4,-11,4
4.110827,-6,-44,6,-5,-6,-4,-4,7,4
4.110847,-23,-48,-17,-3,0,2,6,82,4
4.112182,-68,-16,-36,-11,-4,-12,-12,-44,4
4.112195,56,43,-9,8,0,3,2,75,4
4.135022,1,-70,6,-1,3,-3,-5,-32,4
4.135038,49,65,34,-1,1,0,1,-31,4
4.135125,-61,-46,12,6,0,1,-2,-14,4
4.135176,99,71,18,5,0,-1,-3,-15,4
4.147773,-8,-13,-25,-3,3,-3,0,78,4
4.147807,54,-17,-58,-19,-13,-13,-22,-43,4
4.154451,117,-86,43,9,7,15,28,57,4
4.154476,51,-91,-10,-10,-6,-8,-13,-61,4
4.170864,16,55,2,3,2,-2,1,-27,4
4.170886,74,39,37,21,6,7,11,21,4
4.174144,7,-48,-15,-18,-7,-6,-11,61,4
4.174149,51,-10,11,-13,0,1,10,-10,4
4.193564,127,49,-10,10,-5,-11,-28,-92,4
4.193596,-17,2,9,4,3,5,6,-25,4
4.196071,-63,-79,-42,3,-2,-2,-4,-33,4
4.196075,74,53,21,0,1,-1,-4,32,4
4.208117,-78,96,-3,-5,4,1,3,-24,4
4.208141,-89,-128,-21,-9,-5,-8,-12,-11,4
4.214593,13,51,-4,-1,-4,-1,-7,-78,4
4.214610,-8,-6,-40,-6,-2,2,15,55,4
4.230970,-90,50,34,3,-2,0,-15,-40,4
4.230999,2,-95,-21,-10,-1,-3,7,45,4
4.232385,53,109,26,12,2,3,4,-20,4
4.232409,-42,15,12,15,2,6,8,-9,4
4.253252,127,62,-13,-23,-2,0,5,39,4
4.255036,3,56,-9,14,4,0,-4,2,4
4.255041,-35,77,17,4,1,-1,-1,-2,4
4.255043,-106,-27,-9,13,4,0,3,21,4
4.268308,127,-68,-15,-20,-7,-3,5,10,4
4.268353,-66,-42,30,26,3,1,-7,-48,4
4.274610,43,95,3,-2,6,22,17,-3,4
4.274627,23,-128,-25,-21,-12,-24,-24,-7,4
4.291169,-85,82,28,14,5,0,7,28,4
4.291183,-31,-84,-26,-17,-5,-5,-9,-62,4
4.292632,-61,-41,8,11,2,-1,7,57,4
4.292644,60,17,27,10,8,9,1,3,4
4.313452,-97,1,-1,1,-2,-4,-7,-6,4
4.313474,72,-81,-6,-17,-7,-7,-7,-35,4
4.316160,125,103,23,8,0,0,4,56,4
4.316173,45,-69,-28,-25,-4,-1,-8,24,4
4.328192,58,-43,29,32,7,1,7,-46,4
4.328220,43,-13,9,1,2,5,-1,19,4
4.334785,17,-14,-46,-35,-6,-8,-8,-49,4
4.334812,-55,57,14,11,-1,-1,-3,33,4
4.351221,9,8,12,2,-2,-2,2,8,4
4.351252,87,109,8,13,0,0,2,19,4
4.353463,-33,-41,-5,-3,3,-1,-2,-54,4
4.353470,-61,-79,-1,-8,-4,-2,-2,15,4
4.373377,-24,47,-8,-4,-6,-2,-2,5,4
4.373393,123,81,15,-7,-3,1,3,53,4
4.374866,-45,-64,9,5,0,-5,-9,-18,4
4.374874,36,94,-15,-2,-3,-6,-8,-36,4
4.386892,-41,-77,-22,-5,-2,2,2,31,4
4.386910,-77,25,5,-1,3,2,5,-25,4
4.397283,-20,42,11,-1,-2,-4,-3,-16,4
4.397292,78,59,28,14,3,5,5,-56,4
4.410862,-50,52,3,-3,2,1,3,84,4
4.410885,-16,-47,-47,-29,-10,-11,-20,-66,4
4.412517,94,54,33,26,-1,-1,-1,-6,4
4.412535,36,4,-4,1,2,10,11,14,4
4.433562,127,64,13,3,3,-18,-10,-13,4
4.433580,-28,-124,-42,-23,-10,-9,-11,-3,4
4.434989,-33,59,-35,-2,-1,-5,5,32,4
4.435012,-46,51,-4,-10,-4,4,-19,-23,4
4.447702,70,50,9,1,9,13,33,26,4
4.447711,-14,-26,14,1,0,-3,-5,15,4
4.457890,-65,-97,-20,-6,-4,0,1,-29,4
4.457898,48,65,-8,3,2,-2,11,7,4
4.470777,62,51,13,-10,-2,1,-26,39,4
4.470800,-1,-49,-28,9,-3,-4,-4,-15,4
4.472293,50,29,14,-5,-2,-2,-3,14,4
4.472339,19,4,-21,3,1,1,13,1,4
4.493272,85,17,41,3,-2,-4,-6,-4,4
4.493345,99,127,3,-20,0,6,13,68,4
4.494681,36,-114,-18,1,-4,-7,-18,-21,4
4.494742,47,23,21,2,4,4,2,-56,4
4.515912,-126,-128,-20,-16,-9,-8,-16,-30,4
4.516104,18,7,21,11,7,3,12,24,4
4.518576,39,88,29,-7,0,3,6,32,4
4.518583,-128,-128,-10,-6,-5,-9,-6,2,4
4.531052,-29,69,-4,3,1,3,6,-6,4
4.531086,-41,52,16,5,-1,4,4,-24,4
4.532980,3,30,-17,-22,-4,-2,-2,34,4
4.532985,-88,-10,-4,13,-3,-11,-21,77,4
4.553264,-98,-121,-52,-19,-13,-5,-4,-24,4
4.553288,1,-24,-28,-7,-1,-3,-3,-3,4
4.555624,-41,-58,26,0,0,0,1,9,4
4.555628,-23,28,0,-22,-3,0,1,6,4
4.567265,21,90,31,28,5,15,9,-29,4
4.567301,5,-60,-31,-8,-6,-6,-1,8,4
4.575816,-23,-54,-5,21,-1,-7,2,47,4
4.575837,11,-98,-6,-9,1,-9,-31,-72,4
4.590096,-22,56,24,5,5,1,8,31,4
4.590122,99,-73,-8,-9,-4,9,5,-12,4
4.597149,-78,-25,8,3,5,22,-3,-28,4
4.597181,24,31,-13,2,-2,11,7,6,4
4.613687,-71,-43,-31,-6,0,1,9,-48,4
4.613713,30,127,107,31,12,3,-4,9,4
4.615592,53,-121,-58,-17,-7,-18,-4,-17,4
4.615597,127,77,49,9,5,11,10,28,4
4.626955,19,54,-41,-23,-6,-5,-8,17,4
4.626976,-99,-67,-33,2,-5,-9,-6,10,4
4.636470,24,110,-15,-26,-1,10,0,-98,4
4.636474,-91,15,-1,9,-6,-6,-7,-25,4
4.650900,13,-39,-10,-6,-2,-7,-1,19,4
4.650909,5,96,30,5,0,-4,-1,16,4
4.657079,72,79,20,4,-2,0,5,41,4
4.657101,50,-61,-81,-11,-7,-8,-6,2,4
4.673662,44,-58,50,-4,5,-4,-3,-37,4
4.673689,17,34,5,12,5,27,14,6,4
4.676468,50,-25,3,6,-2,-18,-12,12,4
4.676471,-15,-8,-5,8,-1,-8,10,9,4
4.687113,-9,-39,-6,1,-4,2,-6,-35,4
4.687138,97,23,6,2,4,0,5,-4,4
4.698134,14,127,10,9,2,4,3,43,4
4.698138,-47,-58,11,-10,-4,-5,-1,-7,4
4.712957,-66,16,-28,0,0,0,-4,-52,4
4.712963,-122,-121,-34,-16,-8,-7,-8,-32,4
4.717452,-105,-18,30,2,-2,-5,-7,-11,4
4.719835,68,104,-12,-24,-5,-8,-14,23,4
4.733681,82,19,7,16,1,2,-1,-18,4
4.733734,66,-14,-15,-1,2,-6,-1,22,4
4.735388,-31,-123,-10,-8,-2,1,-1,8,4
4.735394,44,10,-3,5,3,1,0,-23,4
4.747600,116,89,-1,-16,-5,-1,4,57,4
4.747645,-22,107,17,14,-1,-7,-6,5,4
4.756778,5,-70,-27,-16,-5,-5,-5,17,4
4.756786,-71,17,6,16,8,8,16,12,4
4.770796,92,60,63,-3,10,11,9,-5,4
4.770812,-85,-110,-38,-14,-8,-12,-9,44,4
4.772896,13,36,-27,-10,-7,-5,-19,-80,4
4.772901,-36,-3,35,15,6,6,15,4,4
4.793316,-46,15,12,7,-2,-2,-3,31,4
4.793330,86,-4,13,-17,0,3,4,-44,4
4.794670,-9,62,7,7,2,-3,1,-1,4
4.794676,62,-56,-2,-7,-4,-4,-4,-8,4
4.816060,-59,20,-19,6,-4,-4,0,-28,4
4.816093,-44,31,-25,-26,0,15,5,25,4
4.818473,33,3,2,9,0,-14,-4,-6,4
4.818481,24,68,48,12,7,-2,2,-6,4
4.831133,3,7,-15,2,-7,-6,-5,54,4
4.831161,124,27,0,-7,-1,-5,4,25,4
4.833114,43,87,18,9,4,13,3,-13,4
4.833122,4,-88,-18,-16,-10,-10,-13,5,4
4.853283,-30,-41,-14,-11,-3,-3,-1,-16,4
4.853300,-39,41,4,34,2,3,7,22,4
4.854661,43,5,7,20,12,8,10,17,4
4.854667,-32,-22,0,-9,-4,-3,-1,-1,4
4.875927,30,8,-23,-10,-3,-4,-8,-13,4
4.875948,31,107,44,-6,5,2,9,14,4
4.878271,-80,-37,-26,-3,-4,-6,-18,-43,4
4.878274,37,-9,10,2,-1,5,12,-14,4
4.889435,71,-9,0,6,0,1,0,6,4
4.889458,-24,-46,0,-1,-2,-2,-3,-9,4
4.898444,60,97,10,-4,1,4,9,43,4
4.898467,64,106,27,-11,1,3,0,26,4
4.914572,-106,-128,-20,13,-9,-11,-21,-69,4
4.914581,12,-47,-6,3,-4,-10,-11,83,4
4.914896,5,-62,-11,-8,-2,-1,-1,37,4
4.914909,-31,-65,-27,-4,-2,1,-2,-28,4
4.935881,-23,-81,48,25,11,10,14,28,4
4.937975,-65,7,-36,-22,-14,-14,-25,-128,4
4.937979,-28,-126,-14,-10,-4,-1,-1,26,4
4.937981,-19,7,-20,-3,-1,-1,-1,-17,4
4.951040,26,74,6,-4,2,0,0,-9,4
4.951070,-17,-58,-2,11,3,0,4,10,4
4.952343,97,127,17,-19,-2,1,7,12,4
4.952351,78,32,67,16,5,4,15,35,4
4.973303,110,-47,-6,-16,-6,-8,-20,-52,4
4.973326,29,-68,-12,1,-1,-2,-1,-47,4
4.975543,-12,55,4,-9,1,1,5,13,4
4.975548,58,102,-7,7,4,5,8,46,4
4.996551,110,28,-16,-5,3,-3,4,84,4
4.996570,-35,124,32,16,-1,-2,-3,16,4
4.999453,40,-48,7,6,1,1,0,-15,4
4.999459,-34,2,-9,-5,0,0,-13,-54,4
7.020950,1,1,0,-1,-1,-1,-1,-1,0
7.021293,-2,-1,-1,-1,-1,-1,-2,-1,0
7.022733,-1,1,0,-1,-3,-1,0,-1,0
7.022741,0,-1,-1,-1,0,1,0,-1,0
7.035260,-1,0,-2,1,-1,-1,-1,1,0
7.035285,-1,-1,-2,-1,1,-1,-1,0,0
7.041954,0,-2,0,-1,0,1,-1,0,0
7.041972,0,1,-1,-1,-2,0,0,0,0
7.065821,-1,-1,-1,0,-3,-1,-1,0,0
7.065851,-2,0,-1,-1,-1,-1,-1,-2,0
7.067681,-1,-1,-2,0,-1,-1,-1,-1,0
7.067693,0,-1,-1,-2,-1,-3,0,0,0
7.081296,-1,-3,-1,-2,-2,-3,-1,-3,0
7.081329,-2,-2,-1,-1,-1,-2,-2,-1,0
7.083570,0,-1,0,-1,-2,0,1,0,0
7.083575,0,-1,-1,-2,0,-2,-1,-1,0
7.095416,-1,-1,-1,-1,-1,1,0,-2,0
7.095796,-1,-1,-1,-2,-1,-1,-1,-1,0
7.102336,-1,0,0,-2,-1,-1,-1,-2,0
7.102366,-1,-1,-1,-1,-1,-2,-2,-3,0
7.119786,2,1,-1,-2,0,-1,0,-1,0
7.119792,-1,-2,-1,0,-3,-1,-1,0,0
7.119872,0,0,-1,-1,-1,-2,-1,-1,0
7.119879,-1,-1,-1,-1,-1,-1,-1,0,0
7.141123,-2,-2,-1,0,0,-2,-2,-1,0
7.143597,0,-2,-1,-1,-1,-1,-1,-1,0
7.143606,0,-2,-1,-1,-1,0,-1,-2,0
7.143608,0,-1,0,-2,-2,-1,-1,-1,0
7.155145,-2,-2,0,-1,-2,-3,0,0,0
7.155166,-2,0,-2,-1,-1,-1,-2,-1,0
7.161884,-1,-1,-2,-1,0,0,-2,-2,0
7.161905,-3,-2,-2,-1,-1,0,-2,0,0
7.178434,-2,-2,-2,0,-3,0,1,0,0
7.178454,0,-1,0,-1,-1,-2,-1,-2,0
7.181199,-1,0,-1,-1,0,-2,-1,0,0
7.181214,-1,0,-1,0,-1,-1,1,-1,0
7.200896,0,0,-1,-1,0,1,-1,-1,0
7.200915,-1,-1,0,-1,1,-1,-1,0,0
7.202595,0,-1,-2,-1,-2,0,1,-1,0
7.202619,0,-1,-1,-1,-1,0,-1,0,0
7.214522,-1,0,-1,-2,0,0,0,-1,0
7.214536,-2,-2,-2,-1,-1,0,-1,-2,0
7.225330,-1,1,-1,2,0,-2,0,-2,0
7.225336,-1,0,-1,0,0,-4,0,-1,0
7.238153,-1,-1,0,-1,0,-2,-1,-1,0
7.238169,-2,1,0,-1,-2,0,0,0,0
7.240365,0,-1,-2,-2,-2,-1,-1,1,0
7.240370,0,-2,-1,0,-1,0,0,-1,0
7.261502,-1,-1,-2,-2,-2,-1,-1,-2,0
7.261509,-1,-1,-2,-1,-1,-1,-2,0,0
7.262158,-3,-2,-1,-2,-2,-2,0,-1,0
7.262163,0,0,-1,-2,-1,-1,-2,0,0
7.275266,1,-3,-1,-1,0,-1,0,-1,0
7.275271,-1,1,-2,-1,0,0,1,-2,0
7.284664,-1,-1,-2,-2,0,0,2,9,0
7.284676,0,0,-1,-2,-2,-2,-4,-30,0
7.298464,2,0,0,-1,1,0,0,2,0
7.298488,-16,-3,-2,-1,-1,-1,-1,-10,0
7.301341,-2,-2,-2,-1,-1,-3,-8,-18,0
7.301350,-4,0,0,-1,-2,-1,-1,5,0
7.321046,-2,-1,-1,0,-2,-2,1,-2,0
7.321050,4,0,-1,-1,0,-1,0,-3,0
7.322229,0,-1,0,0,-1,-2,1,4,0
7.322236,-1,-1,-1,-1,-2,-1,-1,13,0
7.334930,-2,-1,-1,-2,-2,-1,0,-7,0
7.334972,2,-1,-1,-1,-1,2,-1,4,0
7.345227,-1,-1,-1,-1,-1,-2,-1,0,0
7.345230,0,0,-2,-1,-1,-1,0,-3,0
7.358408,-2,0,0,0,-1,0,-1,1,0
7.358424,1,-1,-1,-1,-1,-2,-2,2,0
7.359806,-1,-1,0,-2,-1,0,0,3,0
7.359812,-2,-1,0,-1,-1,0,-2,0,0
7.380920,-3,-2,-1,-1,0,-1,-2,0,0
7.380945,0,-1,-1,0,-2,0,-2,4,0
7.382375,1,-1,-1,-1,0,-1,1,-4,0
7.382398,-2,-2,-4,-2,0,-1,-2,3,0
7.394691,-1,0,-1,-1,-2,-2,-1,-1,0
7.394718,1,-1,-1,-1,-1,-3,1,-4,0
7.404318,-1,-1,-1,0,-2,0,-1,2,0
7.404325,-3,-1,0,0,-2,-1,0,0,0
7.418781,0,0,-3,0,-1,-2,-2,1,0
7.418815,0,0,0,0,-1,-2,-1,-1,0
7.419919,0,-1,-1,-1,0,-1,0,0,0
7.419946,0,-2,-1,0,0,0,-1,3,0
7.440875,1,0,-2,-2,-1,0,-1,-1,0
7.440896,-2,-1,-3,0,-1,-1,-2,0,0
7.443050,-4,0,-1,0,0,-1,-2,0,0
7.443054,0,-3,-3,-2,2,-1,-1,-1,0
7.454446,-1,-3,0,-1,0,-1,-1,-1,0
7.454466,2,-1,-1,-1,-2,-1,-1,0,0
7.463883,-1,-1,-1,-1,0,0,-2,-1,0
7.463888,-2,0,0,0,-2,-3,1,1,0
7.479110,-2,-1,0,0,0,0,-2,-1,0
7.479114,-1,-1,-1,-1,0,-2,-1,-1,0
7.479663,1,1,-1,-1,0,1,-2,-3,0
7.479673,-1,-1,-1,-3,-2,0,-1,0,0
7.501017,-2,-2,0,-3,-2,-1,0,-1,0
7.501036,-3,0,0,-2,-2,-1,0,-2,0
7.503175,0,-2,-2,0,-2,-1,2,-1,0
7.503179,-2,0,-1,-1,0,-1,-1,-3,0
7.514795,-1,-1,0,-2,-1,1,-2,1,0
7.514899,0,-1,-2,0,-2,0,-1,0,0
7.524900,-2,-2,-1,-2,-1,-1,0,1,0
7.524908,1,-2,-1,0,0,0,-1,0,0
7.538392,-1,-1,-1,1,1,-3,-1,-2,0
7.541223,-2,0,0,0,0,-2,-1,-2,0
7.541229,1,-2,0,-1,-1,0,-1,1,0
7.541231,-1,-1,1,1,0,0,-2,-2,0
7.560849,0,-1,-1,-1,-2,-1,-3,-1,0
7.560866,0,-1,-1,-3,-1,-1,0,-1,0
7.562153,0,-1,0,-2,-1,0,0,0,0
7.562165,-1,-1,-1,-2,0,-1,-1,0,0
7.574371,0,0,-2,0,0,-2,0,-2,0
7.574384,-1,-1,-2,0,-2,0,-1,-1,0
7.585072,-2,0,-2,0,-2,-2,0,-1,0
7.585078,0,-1,0,-2,-1,0,-1,0,0
7.598393,-2,0,-1,0,-1,0,1,0,0
7.598421,-2,-2,1,-2,-1,0,-1,0,0
7.600033,-1,-1,-3,-1,-3,-1,-1,0,0
7.600039,-2,-2,-3,-1,-1,-1,0,-1,0
7.620731,-1,-1,0,-1,-1,-1,-1,-2,0
7.620745,0,-1,1,-1,1,0,-1,0,0
7.622209,-1,-1,-2,0,-1,-1,-2,-2,0
7.622240,0,-1,0,-1,0,-3,-2,-1,0
7.643849,-1,-2,-2,0,-1,0,0,0,0
7.643885,0,-3,-2,-2,-1,-2,-1,0,0
7.645982,0,0,0,-1,1,0,-1,-2,0
7.645990,-1,-1,-1,0,-2,0,-1,0,0
7.658235,-1,0,0,1,-1,-1,-1,-1,0
7.658253,0,0,-2,-2,-1,-1,-1,-2,0
7.659909,-2,-1,0,-1,-1,-2,0,-1,0
7.659915,-1,-1,-1,-2,0,-1,-1,0,0
7.681873,-2,0,0,-2,0,-1,0,0,0
7.681878,-1,0,-1,-1,-1,-2,0,1,0
7.682304,-1,-1,-1,-2,-1,-1,-2,0,0
7.682310,0,0,0,0,-1,0,-1,-1,0
7.703281,0,-3,-2,-2,-2,-3,-3,-1,0
7.703304,1,-1,-2,-1,-1,-1,0,-1,0
7.704828,1,-1,-1,-3,-1,-1,0,-1,0
7.704840,0,1,-2,1,-1,-1,0,0,0
7.718539,-1,0,-1,0,0,0,-1,1,0
7.718562,-2,-1,0,-1,-1,0,-1,-1,0
7.719757,-1,0,-2,-1,-1,-1,-1,0,0
7.719774,0,-2,-2,-1,-2,1,-1,-2,0
7.741184,-2,-1,-1,-2,0,-2,-3,-2,0
7.741207,-1,-2,0,-1,0,-2,-2,-1,0
7.742562,1,0,-4,-2,-2,0,-1,0,0
7.742565,-1,-1,-2,-2,-1,-2,-1,-1,0
7.763446,0,-2,-1,0,-3,-1,0,-1,0
7.763475,-2,0,-1,-1,-1,-2,-1,1,0
7.765004,-1,-1,2,-1,-1,-1,-2,0,0
7.765023,-2,-1,0,-2,-2,-1,0,0,0
7.778470,0,0,-1,-2,0,1,0,-1,0
7.778483,-2,-2,-1,-1,-1,0,0,-1,0
7.780232,-1,-2,0,-1,0,-2,-1,-1,0
7.780267,-1,-1,-1,0,2,-1,-1,0,0
7.800974,-1,-1,0,-2,0,-2,1,0,0
7.801005,1,-1,-3,0,-2,-1,-3,0,0
7.803053,-1,0,-1,0,0,-1,0,-1,0
7.803058,-3,-1,-2,-1,-2,-1,-2,0,0
7.823480,0,0,-3,-1,-1,-1,-3,-2,0
7.823486,-2,-1,0,1,-1,-1,-1,-2,0
7.824671,-1,-2,-2,-2,-1,0,-1,-1,0
7.824684,-2,0,0,0,0,-1,0,-1,0
7.839101,-1,-1,-1,-1,0,-1,-1,-1,0
7.839107,-1,0,1,-2,-2,-1,-2,1,0
7.844738,-1,-1,0,-2,-1,0,0,-2,0
7.844750,0,-1,1,0,-1,-1,-1,-2,0
7.860949,-2,-1,-3,-2,-1,0,-3,-1,0
7.860983,-1,-2,-2,-2,-2,0,-2,0,0
7.862588,-2,-1,-1,-1,-2,-1,-1,-1,0
7.862591,0,0,-1,-2,-1,0,-1,0,0
7.883332,0,-2,-1,-1,-2,0,0,0,0
7.883356,-1,0,-1,-1,1,-1,0,-2,0
7.886467,-1,-2,-1,-1,0,-2,-1,0,0
7.886472,-2,-2,-2,-1,-2,-1,0,-2,0
7.897862,-1,-1,-1,1,-1,0,0,-1,0
7.897891,-1,-1,-3,-2,0,0,-1,-2,0
7.904376,1,0,1,0,-2,-2,0,-1,0
7.904399,0,0,0,-1,0,-1,-1,-1,0
7.920190,-2,-1,1,-3,-3,1,-1,1,0
7.920218,0,-1,-1,-1,0,-2,-1,-1,0
7.921212,0,-1,-3,2,-1,0,-1,-1,0
7.921216,-4,-2,-1,-3,0,-2,-2,0,0
7.942571,-2,-2,0,-2,-1,-2,-1,-1,0
7.942588,0,-1,-1,0,-1,0,0,0,0
7.943790,-1,-1,-1,-2,-2,-1,-1,-2,0
7.943793,1,-1,-1,1,-2,0,0,-1,0
7.957333,-1,0,-1,0,-1,-3,0,-1,0
7.957355,-1,1,0,0,-2,0,-1,-1,0
7.965813,0,-2,-1,-2,0,-2,-1,0,0
7.965818,0,0,-1,-1,-1,-1,1,-1,0
7.982932,1,-1,1,-1,0,-2,1,-1,0
7.982938,2,-1,1,-1,1,-1,-2,-1,0
7.982939,-2,0,1,0,-1,0,-1,-1,0
7.982941,-2,-1,-2,-2,0,-1,-2,-2,0
8.002693,-1,0,-3,0,-1,-1,-1,-2,0
8.002715,-1,-1,-1,-2,-1,-1,-1,-1,0
8.003300,0,-1,-1,-1,-1,-1,-1,-2,0
8.003325,-2,0,1,-3,-2,-2,-2,-1,0
8.017301,-2,-1,0,-1,-1,-1,-2,-1,0
8.017403,-1,0,1,0,-3,0,-2,-1,0
8.024864,0,0,-2,-1,-1,0,-1,-1,0
8.024882,0,0,-1,2,-1,0,-1,0,0
8.040393,-2,1,-3,-2,-1,-3,-1,-1,0
8.040421,-2,-1,-1,-1,0,-1,0,-2,0
8.043344,-1,-1,0,0,-2,-1,-2,-1,0
8.043350,-1,0,-2,-1,-1,0,1,0,0
8.062637,1,-1,-1,0,0,-1,-1,-1,0
8.062650,-1,-1,-2,-1,0,-3,0,-1,0
8.063465,-2,-1,-1,-1,-1,-2,-1,-2,0
8.063566,-1,-2,0,-2,-2,0,0,0,0
8.077000,-1,-1,1,1,-2,0,-1,-1,0
8.077021,-1,0,-1,-1,-1,-2,-1,-3,0
8.084687,0,1,-1,-1,-1,-1,-1,-1,0
8.084720,1,0,-2,-1,-2,-2,-2,-1,0
8.100200,-3,-1,-1,-1,-1,-1,-1,-2,0
8.100234,-1,-2,-2,-1,-2,-2,-1,-1,0
8.102462,-2,-1,-2,-1,-2,0,-1,-2,0
8.102466,-4,-2,-2,0,-2,-1,1,0,0
8.122658,1,0,0,-3,-1,0,-1,-2,0
8.122671,-1,-1,-1,0,1,0,0,0,0
8.123298,0,-1,-1,-1,0,-1,-1,0,0
8.123415,-1,-1,1,-1,-2,0,0,-1,0
8.136922,-1,-2,0,-1,-2,0,-2,-1,0
8.136938,0,-1,-2,-3,-2,-2,0,-1,0
8.144535,-1,0,-1,-2,0,-2,-1,-1,0
8.144550,-2,-1,-1,-1,0,-1,-1,0,0
8.160254,0,-1,-1,-2,-1,0,-1,0,0
8.160275,0,1,-1,0,-2,0,1,-2,0
8.161884,-1,-2,-1,-1,0,-1,-2,0,0
8.161887,-1,1,-3,-3,-1,-2,-2,-2,0
8.184998,2,-1,0,0,0,-2,-2,-1,0
8.185006,-2,0,-2,-1,-1,-1,-1,-1,0
8.185008,-1,0,-1,-3,1,-2,-1,-1,0
8.185010,-1,-1,-1,-1,0,-2,-2,-2,0
8.197553,1,-1,0,-1,0,-1,0,-2,0
8.197593,-1,-3,0,-1,-1,-1,0,0,0
8.204521,-2,0,-1,0,-1,-1,-2,-1,0
8.204544,0,-1,0,-1,0,-2,-2,-1,0
8.220125,-2,-1,0,-2,-2,0,-2,-1,0
8.220150,0,1,0,0,0,-2,-1,-1,0
8.222354,-2,0,-1,0,-1,-1,0,-1,0
8.222357,0,-2,-1,-2,-4,-2,-1,-2,0
8.242725,-1,0,-3,0,-1,-3,-1,-2,0
8.242748,-2,-1,-3,-1,0,-1,-4,0,0
8.243949,-1,-1,1,-2,-1,1,0,0,0
8.243953,1,0,-2,0,-1,2,-2,-2,0
8.257214,0,-1,-1,0,-1,-1,-1,-1,0
8.258880,-2,-1,1,-1,-2,1,-1,0,0
8.264544,0,0,-1,-1,-2,-2,0,-2,0
8.264565,-1,-1,-1,0,-1,-1,-1,2,0
8.280570,-1,0,0,-2,-1,-1,0,-1,0
8.280599,0,-2,0,-1,-2,0,-1,-2,0
8.282983,-1,-1,1,-2,-1,2,-1,-1,0
8.282989,-3,-1,-1,-2,0,-1,-1,-2,0
8.302560,-1,1,-1,0,0,-2,-1,-1,0
8.302579,-1,0,-2,0,0,-2,-1,-1,0
8.303987,-2,1,-1,0,-2,-2,0,-1,0
8.303990,-1,-1,0,0,0,-2,0,-2,0
8.317486,0,-1,-2,-2,0,1,-1,0,0
8.317527,0,-1,-1,-1,0,1,0,0,0
8.324446,0,-3,-2,-2,0,-2,-1,0,0
8.325936,-2,-2,-2,0,-1,-1,-1,-2,0
8.341813,-1,0,-2,0,-1,-1,-1,-1,0
8.341819,-1,-1,-1,-2,-1,-2,-1,-1,0
8.341820,-1,-1,-1,0,-3,-3,-1,0,0
8.341822,0,0,0,1,-1,-1,-1,0,0
8.362907,0,-1,-1,-1,-1,-2,0,-1,0
8.365616,0,-1,-1,1,-1,-2,-3,-3,0
8.365622,0,-1,-1,0,-1,0,0,-1,0
8.365624,-1,-2,-2,-1,-1,0,-2,0,0
8.377247,-2,-2,-1,1,0,-1,-2,0,0
8.377277,-2,-1,-1,0,-1,0,0,-1,0
8.384756,-2,-3,0,0,-1,-1,-2,-1,0
8.384784,0,-1,-1,0,-1,0,0,-1,0
8.400537,-1,-2,0,-2,0,1,0,-1,0
8.400575,0,-2,-2,-1,-1,-3,0,-1,0
8.402856,0,0,-3,-1,-2,0,-1,-1,0
8.402868,-2,0,-2,-2,0,-2,-1,0,0
8.422633,0,0,-2,-1,-1,-1,1,-1,0
8.422654,-2,0,0,-2,-1,-2,-3,-2,0
8.423447,0,-2,-2,0,-1,-1,-1,-2,0
8.423468,0,-1,0,-1,-2,-1,-1,-2,0
8.436882,-1,-2,-1,-1,-2,-2,-2,-1,0
8.436906,-1,-1,-1,-2,1,-2,0,-2,0
8.444511,-1,-1,1,-1,-2,0,0,0,0
8.444534,-3,0,-2,1,-2,-1,-2,1,0
8.460187,0,0,-1,-1,-3,-1,-1,-2,0
8.460210,-1,-1,0,0,-3,-1,-1,0,0
8.461182,-1,-1,-1,-2,-2,-2,-1,-1,0
8.461185,-1,-1,0,0,0,-2,-1,-1,0
8.483858,0,-2,-2,-2,0,-1,-2,1,0
8.483864,-3,-1,-1,-2,-1,-1,-1,-1,0
8.483866,0,-1,-2,-1,0,-2,-1,0,0
8.483868,1,-1,0,-1,-2,-1,0,-2,0
8.499145,-3,-1,-1,0,-1,-2,-1,-2,0
8.499151,-2,-1,-1,-1,0,0,-1,0,0
8.504474,-2,-1,0,0,-1,-1,-2,0,0
8.504498,-1,-2,0,-2,-3,-1,0,-1,0
8.520086,-1,0,-1,0,-2,0,-1,-2,0
8.520171,0,-1,-1,-2,-2,-1,0,0,0
8.522407,-2,0,-2,1,0,0,-1,1,0
8.522412,1,0,-2,-1,0,0,-1,0,0
8.544841,-1,-2,-1,0,-1,-1,0,-2,0
8.544845,0,0,-3,0,1,0,0,-1,0
8.544846,0,0,-1,0,-1,0,-2,-2,0
8.544848,0,-2,-1,-1,-1,-2,-1,-1,0
8.557020,-1,0,-2,-2,-1,-1,0,-1,0
8.557041,0,0,-1,0,-3,1,1,-1,0
8.564619,0,0,-2,-1,1,0,-1,-1,0
8.567108,-1,0,-1,-1,-1,-1,-1,-1,0
8.580562,-1,-1,1,-1,-3,0,-1,1,0
8.580588,-2,-1,0,-1,-2,-1,-3,-2,0
8.582612,0,-1,0,-2,1,0,-1,-2,0
8.582619,-1,-1,-1,-2,-1,-1,-1,-2,0
8.602567,1,-1,-2,0,0,-1,-2,-1,0
8.602590,-1,-2,-1,0,1,-1,0,0,0
8.604053,-3,-1,-3,-1,-2,-1,0,-1,0
8.604057,0,-1,-2,-2,-2,-2,0,-2,0
8.625591,-1,-1,-1,-1,-2,-1,-1,0,0
8.625610,0,0,-3,-1,-2,-2,0,-1,0
8.627448,0,-1,0,-1,-2,0,0,-1,0
8.627455,-1,-1,-1,-2,0,0,0,0,0
8.640326,0,0,-2,-2,0,-2,-1,-1,0
8.642321,1,-1,-1,0,0,-1,-2,-1,0
8.642326,-3,-1,-2,-1,0,-2,0,-2,0
8.642328,-2,0,-1,0,-1,-1,0,0,0
8.662984,-1,-1,-2,-1,0,-2,0,-2,0
8.663011,-1,-2,-2,0,1,-3,-1,1,0
8.665331,1,0,0,-1,0,0,-2,0,0
8.665337,-1,-1,-2,2,0,1,-1,0,0
8.685407,0,-1,-2,0,1,0,-1,-1,0
8.685433,-1,-1,0,-1,0,-1,-2,-1,0
8.685692,0,-1,-1,-1,-2,0,-1,-1,0
8.685699,0,-1,0,-1,0,-2,-2,0,0
8.700531,0,0,-1,-1,0,-1,0,-1,0
8.700536,-2,-1,-2,-2,-2,-1,0,-2,0
8.700831,-1,-1,0,-1,-3,-1,-1,-3,0
8.700869,-1,0,-1,1,-1,-1,0,0,0
8.722499,-2,-1,0,-1,-1,-1,-1,-2,0
8.722520,-1,0,-1,-2,-2,-1,0,-1,0
8.732603,0,-2,-2,0,0,-1,-1,-1,0
8.732607,-1,0,-1,-2,-1,-1,-1,-1,0
8.745219,0,0,1,0,-1,-2,0,0,0
8.745242,0,0,-1,-2,0,-1,0,-1,0
8.747115,0,-1,-2,-1,-2,0,0,0,0
8.747126,-1,-2,-3,-1,0,-1,-3,-1,0
8.760480,-4,-1,-1,0,-3,0,-1,-1,0
8.760519,-1,0,-1,1,-1,-3,-2,-2,0
8.762803,-1,-1,0,-1,-1,-2,0,0,0
8.762809,-1,0,0,-1,-2,-2,-1,0,0
8.783052,-1,-2,1,-2,-2,-1,0,0,0
8.783091,-2,-1,-2,0,-1,1,0,0,0
8.784927,-1,-1,0,-1,1,-1,-1,-2,0
8.784932,-1,1,-3,-1,-2,0,-1,-2,0
8.805428,0,0,-2,-2,-1,0,-3,-1,0
8.805451,0,1,-1,0,0,-2,-1,0,0
8.807955,0,0,-1,-3,0,-1,0,-3,0
8.807959,0,-1,1,0,0,-1,-3,-2,0
8.820217,-1,-1,-1,-1,-1,0,0,-2,0
8.820245,-1,-1,-1,-2,-1,-1,-1,-1,0
8.822812,-2,1,-1,1,0,-1,0,1,0
8.822818,-1,-1,-3,-1,-1,-1,0,0,0
8.842490,0,-1,-2,1,-2,0,-2,-2,0
8.842505,-2,-3,-2,-1,-1,0,-1,-2,0
8.843295,-1,-1,-1,-1,0,-2,1,-2,0
8.843385,0,-2,0,-2,-1,-1,-1,0,0
8.865161,-1,-1,-2,-1,0,-2,0,-2,0
8.865177,-1,0,0,-1,-1,1,0,0,0
8.866365,-1,-1,-2,-1,-2,0,-3,0,0
8.866369,0,-1,-1,-1,0,-2,0,-2,0
8.880328,0,-1,-1,-1,-1,-2,-2,-1,0
8.883133,-2,-2,-1,-1,1,0,-1,-2,0
8.883139,-1,-1,-1,-1,-1,-1,-2,-1,0
8.883141,-3,-1,0,-1,-2,-1,-1,-1,0
8.903724,-3,-2,0,-3,0,-1,1,-1,0
8.903730,1,-2,-2,1,-1,-2,1,0,0
8.903732,-2,-1,-1,-3,-1,-1,0,0,0
8.903733,0,-1,-1,1,-1,-1,-1,-1,0
8.925123,0,0,-3,-1,0,-2,-2,-1,0
8.925144,0,0,-1,-1,0,0,-3,-2,0
8.927570,0,-2,-3,-2,1,-1,-1,0,0
8.927575,-2,-2,0,0,-1,0,-2,-1,0
8.940441,-1,0,-1,-1,0,-2,-2,0,0
8.942727,-1,-1,-1,0,-3,-1,-1,0,0
8.942732,-2,-4,-2,-1,0,-1,3,-1,0
8.942734,0,2,2,-3,-3,-4,-2,-2,0
8.962843,-1,1,0,0,-2,-2,-1,-1,0
8.962873,1,-1,-2,-3,-1,-1,-1,0,0
8.965433,-1,-2,-2,-1,-1,-1,0,-1,0
8.965438,-2,-1,0,1,-2,1,-1,-1,0
8.985442,-1,-1,-1,0,1,0,-1,-2,0
8.985469,-1,0,-1,-1,1,-1,-1,-2,0
8.986040,-2,-1,-2,0,-1,-1,-2,-2,0
8.986082,-1,-1,-1,-1,0,0,-1,0,0
8.999947,-2,-2,-1,-1,-4,0,-1,0,0
8.999987,-3,-3,0,-1,-2,0,0,0,0
9.007751,0,1,0,-2,-1,-3,-3,-1,0
9.007775,0,-1,-1,-1,0,0,-1,-1,0
9.023008,-1,-1,-1,-1,-1,0,0,-1,0
9.023167,1,0,-1,-1,-1,0,0,-1,0
9.026295,-1,0,1,-1,-1,-2,0,0,0
9.026308,1,-1,-2,-2,-2,-1,0,-1,0
9.045269,0,-2,-4,-2,-1,-1,-1,-1,0
9.045283,0,-3,-1,0,-1,-1,0,0,0
9.045782,0,0,-2,0,-1,-1,-1,-1,0
9.045909,0,0,0,-1,-1,0,-1,0,0
9.060031,-1,1,0,-1,0,-1,0,-3,0
9.060053,-3,-1,-1,-1,-1,-1,-1,0,0
9.061033,-1,-1,-1,-2,0,0,0,-2,0
9.061037,0,-1,-1,-1,0,-2,-1,-1,0
9.082635,-1,-1,-1,-1,0,-2,0,0,0
9.082656,0,0,-1,0,0,-3,-3,-1,0
9.084976,-1,-1,-2,-2,-2,0,0,-3,0
9.084981,-2,-1,-2,-3,-1,-2,-1,-1,0
9.105617,0,0,1,0,1,0,-3,-1,0
9.105625,-2,0,-1,-2,-2,0,0,-1,0
9.105629,0,-1,0,-1,-1,-1,-3,1,0
9.105695,-2,-2,-1,-1,0,0,1,-1,0
9.120162,-1,-2,-1,-2,-1,-1,-2,-1,0
9.120178,1,-2,0,-2,0,-1,0,-1,0
9.121343,-2,1,-1,-2,-1,0,-1,0,0
9.121347,-2,-1,0,-2,-1,-1,-1,0,0
9.142593,-1,-2,-1,0,-1,-2,0,-1,0
9.142611,0,1,0,-2,-1,-2,-2,-1,0
9.143525,0,-1,-1,0,-1,-1,-1,0,0
9.143529,1,-1,-3,-1,0,1,-2,-1,0
9.165337,0,-1,-1,-1,-1,0,-1,-1,0
9.165354,-2,-1,0,-1,0,-1,-2,-2,0
9.167152,-1,-1,1,0,-1,-3,-1,-2,0
9.167162,-2,-1,-2,1,-1,0,-2,-1,0
9.179945,-1,-2,-2,-2,-1,-1,-2,-1,0
9.179973,-1,-1,-1,-1,-3,1,-1,0,0
9.187598,-4,-1,0,-2,1,-2,-1,1,0
9.187620,-1,-1,-1,0,-2,-2,-2,0,0
9.202919,-1,0,-1,0,-1,-1,0,-1,0
9.202945,-1,0,-1,0,0,-2,-1,-1,0
9.203283,0,0,-3,0,-2,-1,0,-2,0
9.203289,0,-2,-1,-1,1,-1,-1,-2,0
9.225171,-1,-1,-1,-2,0,-1,-1,-2,0
9.225194,0,-1,-3,0,-2,-1,-1,0,0
9.226254,0,-1,0,-1,1,0,0,-1,0
9.226262,-1,-1,-1,-1,-1,-1,1,1,0
9.239709,-2,0,-1,-1,-1,0,1,0,0
9.239738,-2,-3,1,-2,-3,-2,0,-2,0
9.247675,-1,0,-2,-2,-2,-1,-2,-2,0
9.247705,-1,-1,-1,-1,-3,-1,-1,0,0
9.262669,0,0,-1,-1,0,-3,-1,1,0
9.262682,-1,1,-2,-2,0,-1,-1,-1,0
9.263383,0,-1,-2,0,-2,-1,0,-1,0
9.263409,-1,-1,1,-1,0,-1,0,-1,0
9.285395,0,0,-2,-2,0,0,-2,-1,0
9.285414,0,0,-2,-1,1,-2,-1,0,0
9.287931,-2,-1,-1,0,-1,0,-1,-3,0
9.287937,-2,-1,-1,-2,0,0,-3,-1,0
9.299729,-2,-2,0,0,-2,0,0,-2,0
9.299759,0,-1,-1,-1,-1,-1,-1,-2,0
9.307843,-1,-1,-2,0,-1,-1,0,1,0
9.310357,-1,-2,0,0,1,-2,-1,-1,0
9.322534,-2,-1,0,-1,-2,-1,-3,0,0
9.322549,-1,0,-1,-2,-1,-1,-1,-1,0
9.323383,-3,-2,-1,-1,0,1,-1,-2,0
9.323456,-1,0,-2,0,-1,-2,0,-2,0
9.345210,0,-2,-1,-2,0,-1,0,-1,0
9.345765,-2,-1,1,-1,-1,-1,1,0,0
9.348007,-2,0,1,-1,-1,-1,-2,1,0
9.348011,-1,-2,-1,-2,-1,-2,0,-2,0
9.359469,-3,-2,-1,-1,-1,0,-2,-2,0
9.359496,-1,0,-2,-2,-2,-2,-3,0,0
9.368068,-1,-1,0,-1,0,-1,-1,-1,0
9.368106,-1,-2,0,0,-2,0,-1,-3,0
9.383985,0,0,-2,-1,-1,-1,0,-1,0
9.383991,-2,-2,-1,-1,0,0,-1,-1,0
9.383992,1,-3,-1,1,0,-2,1,-1,0
9.383994,0,-1,-1,0,-3,0,-1,0,0
9.405259,0,0,0,-2,-1,-3,0,-2,0
9.405280,-1,-1,-1,1,0,2,-1,-2,0
9.407566,-1,2,-1,-1,-1,-3,-1,0,0
9.407570,-2,-2,-1,-1,-2,-2,-1,-2,0
9.419511,0,0,-2,0,-2,-1,-1,0,0
9.419535,-1,0,-1,-2,-1,-2,2,-2,0
9.427942,0,-2,-2,0,-1,-1,-1,-1,0
9.427960,1,1,0,-1,0,-2,-1,0,0
9.442557,-1,0,-1,-2,0,-1,0,0,0
9.442579,-1,-2,-4,-1,-3,1,-2,-1,0
9.443677,-2,0,0,0,0,-1,0,-3,0
9.443682,-1,-1,0,-3,-1,-1,-1,-2,0
9.465138,-1,-1,-1,-1,0,0,0,-1,0
9.465164,-1,0,1,-1,-1,-3,-2,0,0
9.465795,-2,-1,-1,-2,0,0,-1,-2,0
9.468392,-1,-1,-1,-1,-1,0,-2,0,0
9.479473,-2,-1,-2,-2,0,-1,-1,-1,0
9.479496,-1,1,-2,0,1,-1,0,-2,0
9.487784,0,-2,-1,-1,-2,1,-1,1,0
9.487806,-1,-2,-1,0,0,0,0,-1,0
9.502624,0,1,-1,-1,-2,-1,-1,-1,0
9.502652,0,-2,-1,-1,1,-2,0,0,0
9.504837,-1,-2,-2,-1,-1,-1,-1,-1,0
9.504841,-2,-2,-2,-1,-2,-1,1,-1,0
9.525102,-1,-2,-1,0,-1,0,0,-1,0
9.525174,-2,-1,-3,-1,-3,-1,-2,-1,0
9.525789,-2,0,-1,-1,-1,-1,0,-1,0
9.525860,0,-1,0,-2,-2,-2,-1,1,0
9.548262,-1,0,-2,-1,0,-1,-1,-1,0
9.548282,0,-1,1,1,0,-1,-1,0,0
9.549507,-1,-2,-1,-3,0,-1,-2,-1,0
9.549513,-2,0,-2,-1,0,-2,-1,-2,0
9.562828,0,-1,-1,-1,-2,-2,-1,0,0
9.562857,-1,-1,-1,-2,0,-1,-1,-1,0
9.565606,0,0,-1,-2,-1,0,-1,-1,0
9.565612,1,-1,-1,0,1,1,0,-1,0
9.587436,0,1,-2,-1,-1,0,-1,-1,0
9.587442,-1,-2,-2,0,-1,-1,-1,0,0
9.587443,-1,-1,-3,0,-1,-2,-1,-1,0
9.587445,-1,0,-1,-1,-1,0,-2,-1,0
9.608363,-1,-2,0,-2,-1,0,-1,0,0
9.608385,-2,-2,1,-2,-1,-1,-1,-1,0
9.610577,-1,0,-1,0,-1,-2,1,-1,0
9.610584,-1,1,0,0,-1,-1,0,0,0
9.622660,-2,0,-1,0,0,0,-1,0,0
9.622680,0,0,-1,-1,-2,-1,-1,0,0
9.623346,-1,1,-1,0,0,-2,0,-1,0
9.623363,-2,-3,-1,0,0,0,-1,-1,0
9.645074,-2,-2,0,0,-2,1,-3,0,0
9.645096,-3,0,-2,-2,-1,1,0,-1,0
9.646954,-1,-1,-1,-2,-1,0,-1,1,0
9.646966,-2,0,-1,-1,-2,0,-1,-2,0
9.668738,-1,-1,-2,-1,0,-2,-2,-1,0
9.668782,-1,0,0,0,0,0,-1,-1,0
9.669218,-1,-1,0,0,-2,0,-1,0,0
9.669233,1,0,-1,-1,0,0,-1,1,0
9.682658,0,-2,-1,-1,0,-1,-1,-2,0
9.682666,1,-1,0,0,1,-2,0,-1,0
9.683298,0,-1,-1,-2,-1,0,-3,-2,0
9.683307,0,-1,-2,-2,-2,-2,-1,0,0
9.705238,-3,-1,0,-1,-2,-1,-2,-1,0
9.705259,-2,-2,-1,-1,0,-1,-1,-1,0
9.707036,-3,-1,-1,-1,-1,-1,-1,-2,0
9.707045,-1,-1,0,1,-2,0,-1,-1,0
9.728619,0,-1,0,0,-1,-1,-1,-1,0
9.728624,-1,-1,-2,-1,-2,0,-1,-2,0
9.728625,0,-1,-2,0,-2,-2,-1,-1,0
9.728627,-1,0,-1,-1,0,-1,-2,-1,0
9.745231,-1,-3,-2,0,-1,-3,-1,-1,0
9.745237,-1,-1,0,-3,0,-2,-2,-1,0
9.745238,0,-2,-2,0,-1,-1,-1,-2,0
9.745240,-2,0,0,-2,-2,-2,-2,-2,0
9.765166,0,0,0,-1,-1,-1,-2,-2,0
9.765190,0,-2,-1,-3,-2,-1,0,-1,0
9.766336,-2,-3,-1,-3,-1,-2,0,-1,0
9.766341,-1,-2,-2,-1,-2,-1,0,-1,0
9.791149,-1,-1,-1,-1,-1,-2,0,0,0
9.791160,-1,0,-3,0,-1,-1,-2,0,0
9.791164,-3,-2,-1,0,-1,-1,-1,-1,0
9.791167,-2,-1,-2,0,0,-2,-2,0,0
9.802724,-3,-1,-1,-1,-1,-1,0,-1,0
9.802747,0,-1,0,-1,-1,-1,-2,0,0
9.805047,0,0,-1,-1,0,-1,0,1,0
9.805058,0,-3,0,-1,-1,-3,1,-1,0
9.825335,-2,1,0,-2,0,0,0,1,0
9.825355,-1,0,-1,-1,-1,-2,-1,-2,0
9.825934,-1,0,0,0,-1,0,0,1,0
9.825956,-2,0,-3,-2,-1,-1,0,-1,0
9.847601,-1,-1,-2,-1,0,-3,-3,-1,0
9.847634,-1,-1,-3,0,-1,-1,-2,-2,0
9.855028,0,-2,-1,0,0,-1,-1,0,0
9.855043,-1,-1,0,-2,-2,-2,-1,-1,0
9.862933,0,-1,-1,-2,-1,0,-1,-2,0
9.862966,-3,-2,-1,-1,-3,0,-1,-1,0
9.865074,1,-1,-1,0,0,-1,-1,-1,0
9.865082,-1,-1,0,0,-1,0,-1,0,0
9.886864,-1,0,-1,0,-1,0,0,0,0
9.886872,-1,-2,0,-1,1,-1,0,0,0
9.886874,-1,-1,-1,-2,-2,-2,-1,-1,0
9.886876,-1,1,-2,0,0,0,0,-2,0
9.908847,-1,-1,-2,-1,-1,-1,0,-1,0
9.908871,0,1,-1,0,0,-2,0,-2,0
9.910591,-2,-2,0,0,-2,-2,-2,-1,0
9.910595,0,-1,-1,-1,0,-2,-1,-1,0
9.922830,0,-2,-1,0,0,-1,-1,-1,0
9.922941,-1,-1,-2,-1,0,-1,-1,-1,0
9.925525,-1,0,-2,-3,0,0,-1,-2,0
9.925531,0,-2,-2,-3,-1,0,-1,-1,0
9.945235,-3,-1,-2,-1,-1,-1,-1,0,0
9.945255,-1,-2,0,-2,-1,-1,-1,0,0
9.946905,-1,-1,-2,-1,-1,-1,-2,-2,0
9.946927,0,0,0,-2,-1,0,-3,1,0
9.968459,-2,-1,1,-1,-1,-1,0,-2,0
9.968479,-2,-1,-2,-2,0,0,0,0,0
9.969034,-2,0,-2,-2,0,0,-1,0,0
9.969048,-1,0,0,0,-2,-1,0,0,0
9.982801,0,-1,-2,-1,1,-1,-1,-1,0
9.982841,-1,-2,0,-1,0,-1,-1,-1,0
9.984729,-1,0,-2,-1,-1,-2,-1,-1,0
9.984734,-2,-2,-1,0,-1,-2,-1,-1,0
10.005570,-2,-2,-1,-1,-1,0,-2,0,0
10.005593,-1,-2,0,0,-2,0,-2,-1,0
10.007215,-1,-2,-1,0,0,-2,0,-2,0
10.007219,0,0,-1,-1,0,0,-1,-1,0
12.030833,-78,-81,-21,-5,-2,0,2,-11,4
12.031143,-70,-57,-14,-8,-4,-6,-26,-47,4
12.032342,61,38,3,-4,-4,-4,2,-8,4
12.032374,-88,-75,-2,-6,-4,-3,-4,3,4
12.060666,77,-25,-34,-7,-1,-1,1,18,4
12.060676,8,29,-11,-17,-12,-11,-19,-93,4
12.062141,90,-10,32,10,1,2,4,87,4
12.062155,9,27,-10,5,5,6,18,31,4
12.067513,47,-60,-37,-12,-7,-9,-19,-38,4
12.067532,12,76,3,0,0,-3,4,33,4
12.076242,-18,68,10,1,1,1,3,-35,4
12.076247,-119,-99,-37,-12,-7,-3,-8,-28,4
12.090756,-14,42,38,22,11,12,9,51,4
12.090782,50,15,-32,-14,-6,-5,-4,-60,4
12.092338,-42,-42,-18,-7,-5,-4,0,-82,4
12.092355,49,-47,1,-3,0,0,-11,50,4
12.113459,-18,-14,4,2,-2,-4,-5,38,4
12.115253,-49,-96,16,3,-2,0,9,-19,4
12.115260,-25,74,18,0,2,3,-1,24,4
12.115262,2,-95,3,4,-1,-4,-4,-56,4
12.127107,-5,35,-7,-11,-5,-5,-9,-9,4
12.127138,-63,16,13,10,4,4,2,12,4
12.138074,-15,-126,-25,-7,-4,-4,1,20,4
12.138080,54,98,2,0,0,1,-9,15,4
12.152852,-15,61,9,3,0,0,19,-66,4
12.152859,-39,-19,5,6,5,2,-4,2,4
12.152862,6,26,-8,-14,-5,-1,5,-28,4
12.152863,-17,-82,-19,-9,-6,-4,-4,-35,4
12.173486,76,74,5,9,5,2,-8,88,4
12.173509,57,5,-10,-9,-3,0,21,54,4
12.174996,79,10,0,6,2,2,-10,-30,4
12.175018,3,95,-7,2,1,-3,-1,-41,4
12.186834,-75,65,-9,-5,-2,-2,-7,-85,4
12.186850,56,15,44,13,9,9,7,42,4
12.197431,-4,-44,-10,-7,-7,-7,-14,-5,4
12.197444,79,13,11,8,0,0,5,18,4
12.211351,121,-124,-47,-20,-12,-9,-1,49,4
12.211463,35,60,5,-7,-1,-2,-21,-51,4
12.214165,74,-9,-23,17,8,7,16,65,4
12.214175,81,70,-2,-5,-4,-6,-9,3,4
12.233301,-57,9,7,0,-1,-3,-1,-38,4
12.233324,-46,-128,-3,0,-1,-2,-1,0,4
12.235119,98,122,0,-9,-5,-5,-4,-28,4
12.235149,12,-67,-8,-3,1,3,12,44,4
12.246943,-53,31,4,4,3,1,-7,50,4
12.246967,55,65,-25,0,-2,1,9,47,4
12.257166,-78,-16,13,-5,-2,-4,-10,-44,4
12.257171,-15,-21,3,-5,-3,-1,-6,37,4
12.270841,-3,-30,-5,0,0,-1,3,48,4
12.270867,16,13,16,3,0,-1,-6,-34,4
12.273240,-13,49,-9,8,3,7,17,20,4
12.273246,32,-73,-20,-21,-13,-13,-24,-97,4
12.294682,-14,48,0,6,4,7,19,51,4
12.294694,-30,18,5,-1,-4,-5,0,22,4
12.295015,-39,-21,-11,-3,3,5,9,19,4
12.295081,43,62,12,-5,-2,-2,4,18,4
12.309655,58,10,5,6,3,4,-9,-43,4
12.309662,50,-60,-17,0,1,0,-2,-36,4
12.317948,-75,-75,13,-11,-7,-9,-10,21,4
12.317957,-57,59,7,12,8,5,2,7,4
12.340427,33,-24,-1,2,-1,-3,-2,1,4
12.340441,-27,15,-9,-1,-2,-1,1,-72,4
12.340446,19,11,8,-1,-1,-2,-8,23,4
12.340450,51,-6,-29,-3,-2,1,6,-18,4
12.353370,70,-56,44,17,8,9,29,34,4
12.353394,-94,-40,-10,-8,-4,-5,-32,-80,4
12.355734,-2,15,-2,-3,-2,-3,0,-49,4
12.355739,-72,19,-6,-5,-1,1,11,0,4
12.367358,-56,112,1,3,1,1,-9,-58,4
12.367380,-60,-85,-18,-5,-3,-6,-12,34,4
12.377504,110,-21,-19,-8,-3,-2,2,80,4
12.377509,-19,1,25,6,3,0,-4,-16,4
12.391085,87,2,-4,-9,-6,-2,4,15,4
12.391103,-59,-44,-17,-6,-1,3,14,58,4
12.392221,55,-15,-8,5,0,-3,-12,-47,4
12.392229,48,14,7,2,-2,-1,8,20,4
12.413487,-102,-34,13,0,0,0,-11,-55,4
12.413514,16,26,22,3,-2,-1,-3,-29,4
12.415262,-57,-25,-8,-2,-2,-4,-4,56,4
12.415267,96,-28,2,2,4,6,18,36,4
12.436095,-46,32,-7,-11,-6,-8,-18,-63,4
12.436124,50,61,-29,-9,-6,-7,-5,33,4
12.437327,-45,-41,-5,-5,0,1,13,17,4
12.437371,-49,6,29,9,4,4,-9,8,4
12.451232,15,-57,-19,-8,-4,-7,-16,7,4
12.451270,-42,91,41,6,1,0,15,36,4
12.452435,35,22,21,11,6,6,2,-38,4
12.452462,-5,-37,-9,-11,-6,-4,-4,52,4
12.473491,84,35,18,3,0,-1,-6,-30,4
12.473521,55,-60,-20,-2,0,0,5,58,4
12.476336,-38,60,8,-4,-4,-5,-4,-22,4
12.476340,-17,-7,-11,2,1,-3,0,-34,4
12.495663,41,116,4,7,6,7,8,-2,4
12.495670,70,-67,-20,-12,-6,-4,2,47,4
12.497431,-62,-3,-20,-8,-1,-2,-6,16,4
12.497458,22,67,7,-2,1,-1,-11,-41,4
12.511507,53,2,22,-2,0,-2,6,82,4
12.511512,-15,66,4,9,2,2,-9,-103,4
12.512125,77,-80,-38,-7,-2,3,13,90,4
12.512138,-42,3,20,4,0,-1,-4,-51,4
12.533670,-26,-56,-16,-7,-4,-7,-19,-57,4
12.533797,-18,-47,2,0,-2,-3,-1,17,4
12.535469,55,105,38,8,3,-1,-10,-98,4
12.535475,63,20,-12,1,-1,0,3,46,4
12.556027,-65,-27,-6,1,-1,1,15,81,4
12.556057,12,-83,-5,-2,-4,-3,0,45,4
12.557986,-18,20,9,6,1,1,6,30,4
12.557991,54,35,29,-1,1,0,-17,6,4
12.570033,-31,-10,4,-3,-4,-3,20,-1,4
12.570058,56,51,-10,3,3,5,-18,-18,4
12.577042,12,-18,10,-2,-1,-4,-1,-18,4
12.577065,30,95,20,7,0,2,13,117,4
12.593200,-34,-78,-76,-16,-7,-6,-15,-27,4
12.593213,9,70,12,13,4,4,5,-5,4
12.594675,50,60,-5,-5,-3,-3,-10,-48,4
12.594681,-32,-26,-21,-3,-2,-3,2,-17,4
12.616353,-44,-63,-10,-4,-5,-5,-8,-13,4
12.616382,-27,25,14,-4,1,1,12,-16,4
12.618537,58,-19,-14,0,-1,-1,-2,-21,4
12.618544,-49,-21,5,-7,-8,-10,-17,-28,4
12.630613,66,-56,-10,9,4,2,5,-38,4
12.632259,-30,80,-9,-10,-3,-7,-16,-52,4
12.636935,52,29,28,2,0,-1,5,33,4
12.636961,13,19,-11,1,3,3,7,71,4
12.654497,42,-14,24,9,4,5,-2,-39,4
12.654504,22,-76,-18,-11,-7,-6,-4,27,4
12.654745,66,34,-14,2,1,3,8,-17,4
12.654751,13,-6,-13,-13,-9,-10,-19,-46,4
12.676016,6,-2,2,-5,-4,-4,-13,26,4
12.676039,-81,-54,5,3,4,3,13,-2,4
12.678740,70,115,33,10,1,-3,-31,-13,4
12.678745,-85,-109,-21,-1,0,-1,14,-42,4
12.690190,59,-47,-28,-3,0,1,-1,68,4
12.690226,66,-21,24,-3,-2,-1,6,5,4
12.697183,-51,-101,-14,-5,-3,1,5,-12,4
12.697206,73,121,16,6,3,4,11,48,4
12.713268,-49,-33,-26,-6,-2,-2,-2,-31,4
12.713298,96,61,52,7,1,-1,-5,22,4
12.714837,-40,2,-18,-2,0,0,1,107,4
12.714852,60,-116,-24,-7,-2,-1,-7,-4,4
12.735846,90,66,22,0,1,0,5,4,4
12.735864,69,-17,-10,3,2,-1,-4,-19,4
12.737274,61,-10,-11,-3,-2,-2,-3,-6,4
12.737289,-110,-6,-3,-1,-2,0,1,-29,4
12.750280,45,-16,7,-1,-2,-1,8,37,4
12.750302,124,24,-31,-8,-4,-3,-6,-7,4
12.757105,-37,-1,-28,-8,-4,-4,-5,-76,4
12.757127,31,16,7,7,2,2,3,-73,4
12.773563,79,81,-12,-4,-3,-3,0,50,4
12.773579,18,-25,-15,3,0,-3,6,17,4
12.775914,98,-37,-13,-6,-1,1,-7,39,4
12.775920,-25,-98,-7,-6,-5,-5,-2,-6,4
12.795619,35,66,39,10,3,2,13,-12,4
12.795626,-43,90,-19,-6,-6,-4,-15,-67,4
12.797419,-85,-71,-14,-7,-3,-1,-3,21,4
12.797439,9,16,19,8,1,0,-4,5,4
12.811324,-77,55,15,-1,-4,-3,-7,29,4
12.811330,-105,48,-14,-9,-4,-2,9,19,4
12.817326,57,-43,7,4,0,-1,-4,-74,4
12.817357,-65,24,4,-11,-4,-1,-5,-8,4
12.833577,-88,-65,-11,1,2,2,5,4,4
12.833612,-51,-23,9,1,1,3,-5,-17,4
12.835547,-3,47,27,6,2,1,5,-15,4
12.835551,-66,65,3,-3,-4,-4,-7,4,4
12.857620,11,-45,1,0,0,-1,-2,-2,4
12.857627,24,4,2,-4,-1,0,1,0,4
12.857629,-68,-48,1,2,-1,-2,-4,-45,4
12.857631,27,1,-13,2,1,1,4,21,4
12.870165,-67,81,2,-2,-1,-2,0,-50,4
12.870189,11,-2,-5,3,2,2,8,27,4
12.877852,-18,50,-1,-7,-3,-6,-1,56,4
12.877879,83,20,-9,-3,-1,0,1,-12,4
12.894196,-62,-15,7,-2,-1,-3,-5,6,4
12.894222,3,45,10,2,1,-2,1,17,4
12.896307,48,13,5,5,2,2,2,-75,4
12.896313,97,63,45,-2,-2,-1,18,77,4
12.915831,112,-47,-23,-1,-1,-2,-30,-87,4
12.915860,45,29,7,6,3,3,9,29,4
12.918372,-32,10,14,1,-2,-2,10,117,4
12.918387,9,-34,-9,1,3,2,-23,-39,4
12.929930,-17,2,4,3,-1,-3,5,5,4
12.929966,64,-89,-2,-5,0,-3,-2,26,4
12.938380,-47,27,5,1,-1,-3,-10,-107,4
12.938408,-78,-18,-21,-7,-3,-1,6,110,4
12.953228,48,-17,-9,-4,-5,-6,-21,-86,4
12.953301,-113,-45,-1,2,0,0,-3,11,4
12.954760,-44,-13,4,-4,1,0,5,75,4
12.954777,-23,-12,4,5,3,0,-4,9,4
12.975789,-6,-38,-12,-7,-3,0,10,46,4
12.975815,19,-20,36,2,-2,1,3,-60,4
12.977676,127,34,7,2,2,-1,-21,19,4
12.977681,-93,15,-21,0,-2,0,10,-36,4
12.989719,30,40,3,-1,-2,-1,-9,3,4
12.989746,6,97,5,-1,-1,-3,-2,56,4
12.998907,-94,-97,-61,-24,-13,-13,-12,-48,4
12.998915,28,-44,-28,-6,0,-2,-5,-30,4
13.015533,47,49,18,0,0,0,8,3,4
13.015542,-16,-2,6,3,-2,-1,-2,23,4
13.015545,99,62,10,15,6,5,5,26,4
13.015546,-59,-41,-16,-11,-3,-1,2,5,4
13.035882,70,8,10,4,1,2,5,-32,4
13.035979,-74,-54,-4,-1,-1,0,-3,-20,4
13.037433,52,-89,-7,-7,-1,-1,-1,5,4
13.039782,-11,52,28,3,-2,-2,1,25,4
13.049493,-14,51,11,2,-1,1,-3,47,4
13.049524,58,99,1,2,-1,-1,0,-25,4
13.059611,-55,-28,-17,-6,-3,-3,2,37,4
13.059621,41,-62,-10,-1,-1,-2,-3,-21,4
13.073443,8,-26,-11,-4,2,1,4,11,4
13.073460,12,43,13,11,11,1,-7,24,4
13.075833,14,-47,6,-1,18,3,7,-17,4
13.075839,-6,-122,-15,-1,-17,-2,7,4,4
13.096295,-39,45,-5,-8,-15,-5,-10,-37,4
13.096333,17,-63,-22,-25,-16,-2,-5,-42,4
13.098777,6,-7,17,27,6,5,8,55,4
13.098783,-24,-38,-5,0,22,-1,-7,-30,4
13.109331,102,38,-10,-2,3,-2,-6,-39,4
13.109356,80,31,16,-3,1,0,4,7,4
13.120042,82,-50,4,-8,-14,-6,-5,0,4
13.120055,42,77,17,6,-2,-2,-2,22,4
13.133593,-20,66,3,2,-3,-3,-2,22,4
13.133648,127,29,3,9,6,8,11,18,4
13.135576,-81,28,3,-11,-7,-5,-3,-9,4
13.135582,127,30,10,6,0,2,0,-31,4
13.155921,23,-55,18,1,9,6,11,28,4
13.155943,47,-2,6,4,-6,-6,-3,54,4
13.157598,-45,-18,-9,-7,-2,0,6,7,4
13.157625,-67,-71,-16,-5,7,2,1,24,4
13.169472,-72,-25,-17,-18,-23,-10,-17,-75,4
13.169491,-72,-99,-4,-2,10,-1,-3,-14,4
13.180050,-17,97,0,14,4,1,3,-28,4
13.180067,50,-49,53,4,-12,-2,-4,22,4
13.193235,96,42,-1,8,11,5,11,16,4
13.193252,103,10,-24,-13,-9,0,0,68,4
13.194702,78,-56,25,2,-3,1,-3,4,4
13.194708,46,14,-30,-7,5,-3,3,44,4
13.216155,-22,-25,19,6,2,-2,-7,-3,4
13.216162,-14,-4,-17,-5,-7,-9,-8,-26,4
13.217633,6,38,-5,-3,1,3,6,-4,4
13.217712,2,18,-11,1,-2,3,4,4,4
13.231521,34,-9,-6,-3,-3,-6,-11,-7,4
13.231531,14,110,27,-3,-9,-9,-15,-39,4
13.239916,1,-20,-9,-3,-2,-2,-2,-36,4
13.239928,-25,75,4,3,-3,-1,-10,-60,4
13.253205,28,-76,-8,1,6,5,20,61,4
13.253228,-109,67,8,1,5,2,-21,-59,4
13.254733,-18,-40,-44,-12,-7,-5,6,29,4
13.254747,-78,-69,-9,-9,-8,-11,-25,-105,4
13.275680,27,107,24,6,4,2,5,67,4
13.275696,-58,-79,-12,-1,-1,-1,7,18,4
13.277251,92,80,9,5,-1,-5,-20,-12,4
13.277257,82,72,-6,-1,-2,1,2,16,4
13.289558,43,-44,-27,-7,0,1,7,28,4
13.289583,-11,-20,11,1,-1,1,2,-30,4
13.300736,7,10,20,5,0,-2,-7,15,4
13.300757,12,-23,3,-3,1,-1,4,17,4
13.314562,-30,103,30,15,6,8,13,70,4
13.314611,2,-114,-57,-19,-9,-9,-13,17,4
13.317459,71,-5,26,8,3,7,32,54,4
13.317466,99,-15,-10,-4,0,1,-26,-2,4
13.335783,23,-41,-16,-7,-4,-8,-1,-22,4
13.335802,-28,51,3,6,1,5,14,-6,4
13.337416,46,-69,-22,-5,-3,-3,-2,5,4
13.337428,-45,-42,-1,-3,2,1,13,8,4
13.358498,-12,-41,16,4,-1,-2,-10,46,4
13.358514,98,-5,-9,2,-1,-3,-3,19,4
13.361672,-40,-38,-12,-20,-6,0,1,-59,4
13.361676,-59,44,-8,12,4,6,10,5,4
13.373446,-70,-17,5,-2,0,0,-2,3,4
13.373508,-56,65,29,13,2,-3,-5,2,4
13.375457,-124,42,23,2,2,3,0,2,4
13.375462,36,-16,-2,-10,-7,-9,-16,-9,4
13.396152,64,31,-19,-5,-1,1,2,-33,4
13.396184,-1,-51,-7,4,2,0,13,12,4
13.398713,-28,4,-4,-5,-5,-5,-26,-11,4
13.398724,39,47,13,-3,-1,-1,-1,-48,4
13.418598,40,-23,-4,-2,-5,-3,1,46,4
13.418637,48,-128,-32,-11,-5,-9,-18,-66,4
13.419852,-82,127,6,6,3,2,3,-9,4
13.419872,34,127,11,6,0,0,6,16,4
13.433447,32,-46,-32,-5,-3,-3,-8,-22,4
13.433477,-31,-28,33,7,5,6,6,-6,4
13.435036,-59,-62,-2,5,1,0,-1,-6,4
13.435075,62,-77,-28,-4,-2,-3,13,45,4
13.456091,57,70,30,0,1,-1,-19,20,4
13.456121,-99,-107,-26,-3,-4,-3,5,28,4
13.457754,113,-24,-37,-16,-5,-6,-13,-16,4
13.457758,-72,-42,33,8,7,9,26,-40,4
13.478856,19,-7,-26,-9,-2,-2,2,26,4
13.478862,-3,44,-29,-8,-4,-3,-9,3,4
13.479988,35,19,26,8,4,5,17,45,4
13.480013,-6,18,-16,-6,-4,-2,-17,-2,4
13.494960,-55,30,27,7,3,0,0,-25,4
13.494967,-29,56,21,4,3,5,-1,6,4
13.499557,-48,48,-13,-7,-5,-3,0,-87,4
13.499592,-52,-12,14,-2,-2,-1,-1,31,4
13.515860,-128,-12,-6,-5,-4,-5,-4,-25,4
13.515885,127,63,-5,2,1,2,3,-6,4
13.518654,9,-120,-1,-12,-6,-5,6,12,4
13.518663,88,92,-15,-1,-1,-3,-19,58,4
13.540513,-79,12,16,6,1,2,-2,-92,4
13.540554,-29,88,2,-5,1,2,23,77,4
13.540556,-84,-80,34,13,7,3,-12,-17,4
13.540558,49,-85,-19,-11,-3,-8,-12,-53,4
13.552728,47,38,1,-4,-3,-1,13,25,4
13.552754,28,-85,2,-4,-1,1,-8,-90,4
13.559723,78,127,44,13,4,2,5,25,4
13.559743,-34,-86,-16,-8,-6,-6,1,20,4
13.575687,-11,-27,1,-1,-2,-3,-14,-38,4
13.575710,91,19,6,7,2,4,13,30,4
13.577656,73,106,-9,-1,-3,-3,-7,19,4
13.577661,-42,28,-6,-1,-2,-2,1,-31,4
13.599401,26,3,-20,-3,-3,1,6,-59,4
13.599427,62,6,31,12,8,7,7,68,4
13.600825,-78,-71,-31,-12,-4,-3,0,-33,4
13.600833,38,65,27,7,0,-2,-14,-6,4
13.612677,34,-128,0,1,1,-2,4,24,4
13.615416,-64,113,34,3,1,0,4,-18,4
13.619527,28,-5,-22,-5,0,-1,-17,1,4
13.619595,8,-5,2,0,-2,1,9,8,4
13.635786,23,-6,28,4,1,-1,-4,61,4
13.635813,25,-28,-8,0,-3,-3,-6,-30,4
13.637466,99,-13,8,-5,-3,-3,5,15,4
13.637488,34,83,9,0,-2,1,5,-40,4
13.658375,-101,-39,-9,9,2,-1,-5,40,4
13.658398,-5,-61,-38,-8,-4,-5,-8,-53,4
13.659867,87,-23,-17,-1,-2,-2,0,14,4
13.659886,-36,-47,-22,-10,-2,0,1,43,4
13.672717,8,37,-9,-3,-2,-4,-4,-4,4
13.672742,-77,-23,-9,-6,-2,-1,-1,23,4
13.680725,-55,55,-10,8,-4,-2,-8,-73,4
13.680745,0,38,-6,-5,7,4,11,13,4
13.695757,43,77,21,-4,-2,-1,7,39,4
13.695779,-5,-49,-3,-6,-4,-5,-23,-1,4
13.697495,-8,-36,-5,1,0,-1,1,9,4
13.697522,-69,-33,-9,2,-2,-3,-3,9,4
13.717635,-103,96,3,-4,-2,-3,-12,-68,4
13.717670,-65,-47,-27,-10,-7,-7,-11,-5,4
13.727168,49,-24,-16,-2,2,6,15,74,4
13.727175,-47,-26,23,11,3,-2,-10,-52,4
13.732749,127,-122,-23,-4,3,6,11,-45,4
13.732783,-98,-54,-27,-9,-10,-10,-11,4,4
13.739479,12,31,14,-1,1,-1,-12,-55,4
13.739504,-35,29,4,5,2,2,8,45,4
13.755763,126,24,0,-2,-3,-5,-12,-23,4
13.755793,114,127,8,3,3,4,11,2,4
13.757786,-59,-23,-3,-4,0,0,-4,1,4
13.757791,81,-18,25,7,2,-2,-2,-28,4
13.778154,-60,45,-10,0,0,1,4,25,4
13.778172,-23,-15,1,-2,-1,-3,-8,-68,4
13.780128,100,2,37,0,0,-4,4,59,4
13.780154,-53,15,0,7,2,1,-1,-9,4
13.792628,-98,7,-1,-6,-4,-6,-3,38,4
13.792716,-55,-77,-44,-12,-4,-1,-4,-30,4
13.799464,60,88,0,-3,-5,-7,-11,7,4
13.799494,37,-113,-42,-18,-8,-5,-1,109,4
13.815772,-98,-31,-4,0,-3,-3,-13,-78,4
13.815794,-11,5,37,11,5,4,9,27,4
13.818327,60,11,-1,0,0,-1,-11,-62,4
13.818336,-18,-17,-29,-8,-5,-6,-7,-3,4
13.838351,-5,2,-8,-7,-1,-1,7,39,4
13.838366,-3,30,23,4,1,2,3,12,4
13.839709,-128,23,15,7,6,6,14,5,4
13.839722,109,45,-3,-4,-3,-6,-14,-73,4
13.853656,73,-81,3,5,5,5,5,-15,4
13.853663,-25,12,-4,0,1,-1,11,57,4
13.863498,68,23,16,10,5,7,-5,22,4
13.863517,52,-60,-13,-3,-2,-1,10,14,4
13.875851,36,69,8,-4,-3,-1,-5,6,4
13.875868,-21,3,6,4,0,-2,-7,5,4
13.877146,-51,43,-14,-2,-1,-2,2,26,4
13.877152,84,29,21,1,-1,1,0,18,4
13.900491,24,-29,-25,-7,-6,-5,-12,24,4
13.900511,53,-29,-10,-8,-1,-4,5,25,4
13.900517,-107,-88,22,5,4,2,-5,-1,4
13.900522,67,117,6,-1,-2,1,4,-22,4
13.912365,-12,4,1,4,3,2,-2,35,4
13.912398,124,34,12,2,0,-3,-1,-52,4
13.921816,7,-128,-14,-5,-2,1,8,6,4
13.921829,37,77,54,4,-5,-9,-16,2,4
13.935714,0,-86,-31,-10,-2,1,4,-78,4
13.935742,3,14,19,1,-2,0,4,105,4
13.937366,108,77,12,6,4,3,5,-53,4
13.937382,-67,-107,-23,-6,-5,-5,-4,-19,4
13.958424,35,49,11,0,-2,-1,1,27,4
13.958442,-38,-68,-24,-2,0,0,-8,-78,4
13.959774,117,5,-14,-6,-6,-4,6,48,4
13.959780,-68,14,-5,2,3,2,-1,-13,4
13.971920,-60,30,18,3,0,-2,5,56,4
13.971997,-7,63,-10,-2,-1,0,-2,-25,4
13.982772,46,11,-28,-15,-9,-7,-6,62,4
13.982781,-68,-29,4,4,4,0,0,-65,4
14.003273,73,-53,6,-1,1,-1,0,5,4
14.003296,48,34,30,4,1,2,2,-42,4
14.005535,-7,24,-26,-7,-6,-5,-3,49,4
14.005539,-78,25,34,8,2,4,8,119,4
14.018369,51,31,-50,-18,-12,-11,-18,-66,4
14.018390,-69,-5,-7,-6,1,4,9,76,4
14.020278,63,-94,-15,0,2,3,19,5,4
14.020282,88,4,-4,-11,-5,-6,-33,2,4
14.031933,59,-76,12,7,5,2,14,3,4
14.031997,-12,-5,-7,2,-1,-2,-7,-15,4
14.041521,-47,-23,-17,-7,0,0,2,8,4
14.041530,0,-79,0,2,1,4,13,-13,4
14.055783,-44,113,21,4,1,-2,-3,-17,4
14.055797,-6,-121,-27,-6,-4,-1,-1,-12,4
14.057261,35,25,29,3,6,5,14,68,4
14.057274,-39,59,-12,-6,-6,-9,-19,-44,4
14.078557,-93,4,0,-3,-5,-2,1,27,4
14.078587,67,-13,-5,0,-1,-2,-9,-28,4
14.081833,68,75,46,6,3,4,1,-5,4
14.081847,70,31,-38,-5,-5,-4,-8,-17,4
14.092440,24,-62,-8,-3,1,-1,-1,-37,4
14.092462,61,-60,6,10,2,-1,5,27,4
14.102485,31,80,34,2,-2,-5,-7,1,4
14.102492,-48,-92,-9,-6,-1,-2,-9,-116,4
14.115756,38,90,8,2,2,3,9,35,4
14.115772,127,10,27,1,-1,0,-5,6,4
14.118631,-113,-27,-28,-1,-2,-3,-12,-37,4
14.118642,96,34,3,5,4,6,26,53,4
14.138639,-20,-19,-6,-4,-4,-2,1,48,4
14.138661,11,14,2,-1,0,0,-15,36,4
14.139804,35,65,10,0,-3,-6,-9,-13,4
14.139818,77,101,7,-4,-3,-3,13,60,4
14.152085,111,-35,-5,2,-1,-2,-17,69,4
14.152114,-68,88,2,-2,-2,0,8,-53,4
14.161423,-93,-51,-12,-4,-4,-3,2,-12,4
14.161432,-82,-9,10,3,3,6,7,11,4
14.175812,5,-47,-18,0,0,-1,0,-47,4
14.175830,-27,99,13,1,2,1,-3,20,4
14.177587,32,4,-10,-5,-7,-8,-7,-14,4
14.177592,-33,-68,0,-5,-3,0,-5,-58,4
14.198276,-4,6,1,1,0,3,2,24,4
14.198293,48,17,-3,-3,0,-1,2,-7,4
14.200181,-41,18,-15,1,1,0,-2,-49,4
14.200245,37,-51,-50,-11,-3,-1,-1,47,4
14.211901,-30,-55,15,-4,-8,-9,-15,23,4
14.211908,33,-30,-12,-3,-2,0,3,60,4
14.221819,-9,14,1,0,0,3,5,-5,4
14.221828,40,-1,23,2,2,1,5,11,4
14.235838,-25,76,-20,8,4,5,2,-20,4
14.235862,22,-14,-19,-5,-3,-5,-2,-29,4
14.237267,-87,-96,13,-1,-2,0,-6,-29,4
14.237273,-2,45,26,4,5,1,0,8,4
14.259166,1,0,10,-4,0,-3,7,0,4
14.259173,-8,-52,-33,-4,0,0,-9,-94,4
14.259742,42,-79,-27,-7,0,-2,-14,30,4
14.259756,4,26,-6,3,0,1,3,-10,4
14.280800,23,35,24,5,2,2,6,-24,4
14.280824,-60,1,4,-2,-1,-1,3,-11,4
14.283467,-39,-32,-4,-3,-2,-2,-6,-49,4
14.283475,81,72,44,16,7,7,15,59,4
14.295941,9,-42,-16,-11,-7,-7,-10,-50,4
14.298530,122,33,25,2,-1,0,1,89,4
14.298538,40,37,9,7,2,-2,-5,-28,4
14.298540,81,-1,-10,-13,-4,-1,-4,-8,4
14.318364,-61,-18,-10,-1,-1,2,4,-28,4
14.318388,-25,12,12,6,1,0,-7,34,4
14.320908,50,-73,7,-1,1,4,15,37,4
14.320915,33,12,10,7,-1,-3,-8,-1,4
14.341229,29,-33,-4,-4,-2,-3,-7,-5,4
14.341304,111,90,-4,-1,-1,-2,-5,21,4
14.343856,59,12,-3,1,-2,-2,1,16,4
14.343860,51,3,2,0,0,0,2,35,4
14.355836,-37,-35,-15,-10,-6,-2,-2,-11,4
14.355856,-80,-9,26,13,5,1,2,16,4
14.357324,-114,24,-32,-17,-10,-9,-18,-39,4
14.357346,-72,-56,-13,-1,-2,1,21,-5,4
14.378321,-19,22,18,7,3,1,-27,66,4
14.378346,40,64,23,3,2,2,19,-21,4
14.380389,103,62,4,2,-1,-5,-13,-5,4
14.380413,-52,-22,-23,-5,-1,-4,1,14,4
14.400941,-29,-10,3,1,2,3,13,8,4
14.400967,-40,-33,-10,-2,-2,-2,2,-15,4
14.402350,-59,74,5,0,-3,-2,0,49,4
14.402372,-32,-23,-9,-4,-5,-6,-19,-7,4
14.415424,-7,21,32,9,7,6,17,73,4
14.415430,-32,-26,-42,-16,-10,-12,-24,14,4
14.421889,54,-52,-5,1,0,1,6,-1,4
14.421913,17,-58,-6,-8,-3,1,-2,-1,4
14.438448,75,16,-5,7,1,0,5,26,4
14.438470,-73,20,-1,-7,0,-1,-6,-89,4
14.440897,90,-53,-22,-3,2,2,8,53,4
14.440904,-60,-45,-9,-4,-3,-5,-19,-37,4
14.463707,4,-77,-27,-6,-3,-2,-6,-51,4
14.463724,-37,22,13,-4,-4,-1,0,-19,4
14.463728,42,-46,5,4,1,4,7,15,4
14.463731,36,3,-10,-1,-1,-1,-4,-2,4
14.475369,-7,-26,-29,-8,-4,-3,3,32,4
14.477435,77,17,-23,-9,-5,-5,9,55,4
14.482097,-126,-39,-9,-8,-1,-3,-28,-5,4
14.482151,6,-1,8,8,2,2,10,1,4
14.498366,69,93,9,-2,-2,-3,-4,-37,4
14.498395,-22,-1,4,-2,-1,-3,-5,-20,4
14.501077,83,75,30,14,4,3,7,-52,4
14.501083,73,15,-12,-5,1,-1,5,66,4
14.520739,86,7,-4,-1,-1,-2,-5,-35,4
14.520762,102,35,19,7,0,-1,-9,-14,4
14.522256,58,31,7,3,1,4,30,29,4
14.522267,7,43,-4,1,0,-4,-35,-25,4
14.535293,-20,-18,-2,-5,-2,0,1,-35,4
14.535372,74,-95,6,7,0,1,2,31,4
14.542154,-98,-14,-16,-5,-2,-1,-4,-35,4
14.542176,56,53,8,4,-2,-2,5,-29,4
14.558180,-103,-43,-28,-12,-7,-7,-7,20,4
14.558199,76,13,-10,3,3,4,4,-46,4
14.560569,-72,8,-16,-7,-2,-3,-6,-40,4
14.560573,-8,-47,2,5,0,-1,4,55,4
14.580890,-26,-62,-16,-4,2,2,7,-32,4
14.580912,45,-11,13,5,2,1,-9,74,4
14.582348,-64,-59,-17,-5,-2,-4,2,-33,4
14.582362,-128,-34,-26,-15,-9,-8,-11,-15,4
14.595395,88,47,-21,2,0,1,5,9,4
14.595424,51,-70,-20,-5,-2,0,1,24,4
14.601984,81,-6,-1,0,1,0,0,-18,4
14.602002,-59,-53,21,6,3,2,3,29,4
14.618555,72,36,25,-3,-4,-4,-5,14,4
14.618566,-5,38,-7,-7,-5,-5,-14,-75,4
14.619907,64,-66,-4,4,1,-1,-10,8,4
14.619924,-50,-16,6,4,3,2,10,-51,4
14.641043,-8,66,-4,-9,-5,-5,-9,-35,4
14.643413,-7,41,-3,-3,-2,-1,-3,5,4
14.643419,17,31,11,-1,-2,-1,4,50,4
14.643421,-32,-46,-24,-5,-1,-4,-10,-44,4
14.665567,-40,27,11,12,4,6,11,40,4
14.665573,-48,-16,17,1,-2,0,2,-3,4
14.665576,36,29,-7,-3,-4,-7,-13,-11,4
14.665577,41,103,0,-3,-1,1,6,27,4
14.678706,4,-40,25,10,5,2,-5,-80,4
14.678715,58,-27,-16,-5,-2,-3,4,-24,4
14.679870,-89,-36,-12,-10,-4,-3,3,41,4
14.679889,76,105,58,17,6,8,16,43,4
14.701138,18,-87,-18,-7,-5,-6,-19,-58,4
14.701175,3,7,13,1,1,0,4,35,4
14.702732,-50,-20,3,-2,2,1,2,26,4
14.702737,24,1,0,-2,-1,3,7,55,4
14.715083,-14,-33,-10,2,1,2,5,-12,4
14.715104,-106,-128,-21,-3,-1,-1,9,30,4
14.722054,-90,97,-21,-15,-10,-11,-21,-37,4
14.722130,70,-99,-39,-9,-5,-5,3,12,4
14.738367,62,68,24,5,3,2,4,37,4
14.738383,14,3,1,-4,-2,-2,-2,-20,4
14.741040,4,24,25,12,5,4,1,9,4
14.741046,-59,-37,-25,-10,-6,-3,-1,-9,4
14.760833,23,2,17,8,4,4,3,39,4
14.760855,19,-25,-17,-4,-2,-2,-4,-38,4
14.762317,21,-23,-2,0,1,1,1,-49,4
14.762336,44,100,25,7,3,2,-3,-22,4
14.774390,-39,-13,10,2,2,2,7,7,4
14.774619,-81,71,-19,-1,-2,-3,-9,-38,4
14.784826,39,-60,1,-2,0,-1,0,9,4
14.784834,37,-40,1,0,1,0,7,-33,4
14.798252,-57,88,6,1,-1,-1,-12,95,4
14.798271,78,-16,23,6,4,2,1,-38,4
14.799839,-18,-67,-13,-8,-5,-4,4,70,4
14.799858,-63,-18,15,9,1,-1,-7,44,4
14.820672,75,32,6,-7,0,0,6,36,4
14.820679,52,-50,2,-9,-3,-1,0,91,4
14.822185,-71,33,-6,13,2,1,-9,-67,4
14.822198,65,-10,18,0,0,-1,-1,-16,4
14.835240,-57,-14,-16,-7,-6,-4,-8,-30,4
14.835247,-120,2,-5,2,0,1,0,9,4
14.844673,49,40,19,1,3,3,7,-13,4
14.844679,38,-39,12,4,0,1,5,1,4
14.858217,-3,49,-1,3,1,-2,-3,3,4
14.858235,-27,38,3,-7,-4,-6,-13,-48,4
14.859691,106,51,5,3,-1,0,2,18,4
14.859695,6,-26,-21,-11,-6,-6,-13,-8,4
14.882089,86,-18,5,0,-1,1,10,78,4
14.882095,-54,-44,-1,3,2,2,6,-24,4
14.882452,69,16,19,8,0,-2,-15,63,4
14.882460,-57,-65,-25,-6,0,-3,1,-43,4
14.894528,50,36,28,20,9,7,9,-3,4
14.894552,-31,-13,-8,-7,-4,-4,3,7,4
14.903738,42,-112,-43,-13,-4,0,8,44,4
14.903742,-26,55,31,8,3,4,-2,34,4
14.918330,54,28,-20,-13,-5,-4,-7,8,4
14.918347,15,8,7,5,1,0,0,32,4
14.919803,-18,8,-5,-3,1,0,10,7,4
14.919818,-8,-72,-28,-8,-4,-3,-9,10,4
14.940716,8,-37,-11,-4,0,-1,1,32,4
14.942546,-3,110,12,1,1,0,-2,-6,4
14.942554,35,-8,-13,-12,-8,-7,-4,-5,4
14.942556,-42,24,-13,0,3,0,-2,-30,4
14.954525,54,63,22,2,-1,-1,-3,-64,4
14.954548,-28,-91,-19,1,0,-1,0,7,4
14.965917,-25,116,11,-4,-4,-2,-1,44,4
14.965923,-14,57,-22,-10,-1,-4,-5,-83,4
14.979171,94,-118,-20,-9,-5,-4,6,101,4
14.979201,102,15,-2,5,-1,1,-3,3,4
14.980199,-87,-64,-19,-8,-3,-2,-13,-77,4
14.980219,127,23,33,20,4,-1,4,78,4
15.001098,-128,-57,-13,-9,-4,-5,-10,-32,4
15.001129,-21,-19,3,-2,-2,2,6,13,4
15.002631,14,28,19,4,0,1,1,-8,4
15.002635,92,87,-6,6,1,4,-1,-18,4
15.014518,-113,-109,-12,-3,-3,-6,-4,-30,4
15.014543,120,-54,-19,-5,-4,-3,-2,13,4
15.025221,69,83,18,5,2,0,-8,-56,4
15.025234,-33,14,-2,-6,-1,1,5,42,4
17.039437,-2,-3,-1,-1,1,0,-1,-1,0
17.039715,-1,1,-3,-2,-2,-2,-2,-3,0
17.055024,3,-3,-2,-1,-2,0,0,1,0
17.055039,-1,5,4,-2,-2,-2,-1,-2,0
17.063073,2,-2,-4,-1,0,1,0,0,0
17.063148,-3,-2,-2,-1,1,1,0,-1,0
17.065397,1,-1,-3,-1,0,0,-1,-1,0
17.065407,-3,6,5,-2,0,-1,-2,0,0
17.085732,0,-8,-7,-1,-1,-2,0,-1,0
17.085742,-2,3,2,-1,-2,-1,-1,0,0
17.085833,-2,-3,-3,-1,0,-1,-1,-2,0
17.085879,2,3,2,1,-1,0,0,4,0
17.108334,-2,-1,1,-1,-1,0,-1,-2,0
17.108351,-2,0,-1,-2,-2,0,-1,-2,0
17.110094,-1,-2,-2,-1,-2,-2,-1,-3,0
17.110098,1,-3,-2,-1,-1,-1,1,1,0
17.122847,1,5,4,-1,0,0,-1,0,0
17.124894,-4,-6,-5,-2,0,0,-2,-2,0
17.124900,0,-2,-2,-1,-2,0,-1,-2,0
17.124902,-1,2,3,-2,0,0,-1,-4,0
17.145208,-1,1,0,-1,-1,-2,-1,-3,0
17.145237,0,-4,-1,-1,0,-1,-1,-1,0
17.147698,0,-2,-2,-1,0,-2,0,1,0
17.147710,-3,0,0,-1,0,-1,-1,-2,0
17.168386,-1,0,-1,0,-2,-1,0,-2,0
17.168404,1,4,-1,-1,-1,1,-1,1,0
17.168973,1,-5,-2,-1,-1,-1,-1,-2,0
17.169008,-2,0,0,-2,-1,-2,-2,-2,0
17.182769,-1,-3,-2,0,-1,-2,-2,0,0
17.182801,-2,-1,-1,1,0,-2,0,-1,0
17.183575,0,2,0,-2,-2,0,0,0,0
17.183609,-1,-3,-1,-1,-1,-1,-2,-1,0
17.205480,1,0,-2,-1,-1,-1,0,1,0
17.205510,-1,-3,-1,-1,-1,0,-2,0,0
17.207731,2,2,0,-2,0,-1,0,0,0
17.207735,0,-3,-4,-1,0,-1,-1,-4,0
17.228388,-5,-3,-1,-3,-1,-2,-2,-2,0
17.228401,1,0,1,0,-1,-1,-2,3,0
17.228983,-3,0,0,0,0,-2,-2,-4,0
17.229048,-2,3,6,-1,-2,-2,-1,-1,0
17.242862,0,-8,-10,-1,-1,-1,-1,-1,0
17.242869,-1,-5,-2,-3,1,0,1,0,0
17.243288,-2,1,1,-3,-1,0,-1,1,0
17.243295,0,-4,-7,0,-1,-1,-1,-3,0
17.265317,0,4,7,0,0,-2,-2,0,0
17.265349,-2,1,0,-2,-2,-3,-1,-1,0
17.267279,-1,-1,1,1,-2,-1,-1,-1,0
17.267292,-2,3,2,-1,-1,1,-2,-1,0
17.290126,-1,1,2,-1,-2,-1,-2,-2,0
17.290132,-2,-3,-4,0,0,-2,-1,-3,0
17.290134,-2,-2,-3,-1,0,-2,-1,-1,0
17.290136,0,0,0,-1,-1,-1,-2,0,0
17.302631,5,0,0,-1,-2,-1,-1,-1,0
17.302656,5,-3,-1,-1,0,0,-1,1,0
17.305079,0,-1,-3,0,-1,-1,-1,-1,0
17.305085,-4,-7,-4,0,-2,1,0,-2,0
17.325035,-1,1,2,-1,-1,0,1,-1,0
17.326567,-4,1,0,-1,-1,0,-1,-1,0
17.332772,1,-2,-2,1,0,-1,-1,1,0
17.332811,-1,-2,1,0,1,-1,-1,1,0
17.348276,-6,-1,-1,-1,-1,-1,0,-1,0
17.348296,-2,0,-2,-2,-2,-2,-2,-3,0
17.350331,1,-1,-2,0,-3,-2,1,0,0
17.350337,-2,3,1,-1,-2,-1,-1,-1,0
17.362748,0,-9,-6,-2,-1,-1,0,0,0
17.362768,-4,-4,-4,0,-2,0,-2,-2,0
17.365463,-1,-4,-2,0,0,-1,-1,-2,0
17.365473,1,0,1,-2,1,-2,1,-1,0
17.385321,-1,-1,-1,-2,-1,0,0,-1,0
17.385413,0,4,2,-2,-1,-1,-2,-1,0
17.385749,-1,0,1,-3,0,0,1,1,0
17.385757,-1,-4,-5,0,-2,-1,-1,0,0
17.408396,-1,0,1,-1,0,0,-1,-2,0
17.408424,-2,3,3,0,-1,1,0,0,0
17.409824,-2,-7,-4,-2,0,0,0,0,0
17.409833,0,2,1,-1,0,-1,-1,-2,0
17.422728,0,1,0,1,-1,0,-2,0,0
17.422748,-1,-5,-8,-2,0,-2,0,-3,0
17.424261,-1,0,1,1,-1,0,-2,-1,0
17.424270,-3,-1,-2,-1,0,1,1,1,0
17.445462,0,-3,-2,-1,-1,-1,0,-1,0
17.445473,4,4,4,-1,0,-3,-1,1,0
17.445616,-4,1,-2,-1,-1,-1,-3,-1,0
17.445670,-2,-5,-3,-1,1,-2,0,-1,0
17.468461,-1,2,0,-1,1,0,-2,-1,0
17.468481,-1,1,0,-1,-1,-3,1,0,0
17.469753,0,-3,-2,-2,-1,-1,-2,2,0
17.469762,-2,-2,1,-1,-1,0,0,-1,0
17.482813,-3,-1,-1,-1,0,-1,-2,-2,0
17.482846,-2,1,2,-1,0,-1,0,1,0
17.484430,0,-2,-1,0,-1,-2,0,-2,0
17.484437,-2,2,0,1,-1,-1,-1,0,0
17.505037,-1,-7,-3,1,-1,-1,0,1,0
17.505060,1,-1,-2,0,-2,1,-1,2,0
17.506351,-3,0,-1,-1,-1,-1,-1,-1,0
17.506358,-1,-2,0,-1,-1,-1,-2,-2,0
17.528133,-2,1,2,-1,0,-1,-1,-2,0
17.528151,-3,-2,-4,-1,-1,0,-1,-1,0
17.528813,-1,-1,-1,-1,-1,-1,0,-2,0
17.528831,2,1,0,-1,-1,0,-1,-2,0
17.542551,-1,2,2,-1,-2,0,-2,-1,0
17.542659,-2,-4,-1,-1,0,1,-1,-1,0
17.543174,0,-1,-3,-1,1,0,0,2,0
17.543211,-2,-3,-1,-1,-2,-3,-2,-3,0
17.564992,-4,-2,2,-2,0,-2,-1,-3,0
17.565009,-1,-4,-3,0,-1,-2,1,-1,0
17.566354,1,1,1,-1,-1,0,-2,1,0
17.566361,2,5,1,0,0,0,-2,1,0
17.588219,0,-2,-1,-3,-2,-1,-1,1,0
17.588254,-2,-4,-4,0,-1,-2,-2,-1,0
17.588894,0,2,2,-1,-2,-2,1,0,0
17.588907,-4,-6,-7,-1,-1,-2,-2,-3,0
17.603259,-1,2,0,1,0,-1,0,0,0
17.603265,-1,-1,1,-1,-1,0,0,0,0
17.610042,-1,0,0,-1,0,-1,0,1,0
17.610063,1,0,2,-2,-1,0,-2,0,0
17.625010,1,0,-3,-1,-2,-1,0,-1,0
17.625032,-1,-1,1,-2,0,0,-1,-1,0
17.625688,-3,-2,-2,0,-2,1,0,-2,0
17.627220,2,2,1,-1,-2,-2,1,0,0
17.649964,-1,1,-5,-1,-3,-1,-1,-1,0
17.649969,0,-1,1,-1,-1,-2,0,-3,0
17.649971,-5,0,-1,-3,-1,-2,-3,-3,0
17.649973,-3,-7,-5,0,-1,0,1,1,0
17.662914,-1,-1,-3,-1,0,-3,-2,-1,0
17.662938,-3,1,1,0,0,-1,-2,-3,0
17.665746,0,1,0,-2,0,-2,0,-1,0
17.665753,-1,2,0,-2,-1,-1,-1,1,0
17.685053,0,-3,1,-1,-1,1,0,0,0
17.685074,0,0,-1,-1,0,-1,0,1,0
17.685810,-4,-5,-1,-1,1,1,-1,-1,0
17.685824,0,3,3,-2,0,-1,-2,-2,0
17.708256,-5,-7,-3,-1,-2,-2,-2,-4,0
17.708280,-2,-2,-3,-3,0,-2,-2,-3,0
17.709304,1,-1,-1,-1,1,0,1,2,0
17.709309,1,1,0,1,-1,-2,-2,1,0
17.722108,0,0,1,0,1,-1,-1,1,0
17.722133,-1,0,2,-1,-1,-2,0,0,0
17.730428,-1,-2,-3,-1,-1,-1,0,-1,0
17.730460,1,2,2,-1,-1,0,0,1,0
17.745122,-3,-4,-2,-2,-1,-1,-1,-3,0
17.745136,-3,-4,-5,0,-1,-1,-1,-2,0
17.745636,-1,-1,-1,-1,-2,-1,-3,0,0
17.745649,-3,-1,-2,-1,0,-2,-2,-4,0
17.768380,3,-1,-2,0,0,0,0,1,0
17.768411,-2,0,-1,-1,0,-1,0,0,0
17.770289,0,0,0,0,-2,0,-1,-1,0
17.770299,0,-2,-1,-1,-1,-2,-1,0,0
17.782076,0,3,0,-1,-2,0,0,-3,0
17.782102,-1,-2,-2,-2,-1,0,-2,2,0
17.790132,0,-1,-2,-1,0,-1,-1,-2,0
17.790149,-2,-1,0,-1,-1,-1,-1,0,0
17.805611,0,-2,-1,-1,-1,-2,0,1,0
17.805618,-1,-1,1,1,-1,-2,-2,0,0
17.805720,-2,-2,-1,-2,-1,0,-2,-2,0
17.805753,0,0,-2,-1,0,-1,0,-2,0
17.828560,-2,3,2,-1,0,-2,-2,-1,0
17.828590,1,-5,-6,-3,-1,0,0,0,0
17.831577,-1,-2,-2,0,0,-1,0,0,0
17.831582,-1,-4,-4,-3,-1,1,0,-1,0
17.842478,-2,-2,-4,-1,0,0,0,-2,0
17.842506,-1,1,3,-2,-1,1,-1,-3,0
17.850405,-2,1,2,-1,-2,-2,-2,-1,0
17.850555,1,0,-3,1,-2,-1,-1,0,0
17.865071,0,-2,-3,0,0,0,-1,3,0
17.865089,2,1,-2,0,0,0,-1,1,0
17.867763,-3,-1,-2,-1,-1,0,-1,0,0
17.867775,-3,-4,1,-2,-1,-2,-2,-2,0
17.888220,-3,-2,0,-1,-1,-2,-3,-3,0
17.888245,-2,-1,-1,0,-1,-1,0,-3,0
17.888932,1,1,-1,-2,0,-2,0,0,0
17.888945,2,2,3,0,0,-2,-1,-1,0
17.902116,-1,1,1,-1,-1,-1,-1,0,0
17.902132,0,-1,1,0,-1,-1,-2,-1,0
17.910015,-1,1,3,-1,-1,-1,-2,-2,0
17.910038,-2,4,5,-1,-2,-1,-2,-2,0
17.925248,-1,-10,-7,-2,-3,0,0,0,0
17.925270,-1,-1,0,-1,2,-1,0,-3,0
17.926642,1,-2,-4,0,0,0,-1,-1,0
17.926646,0,0,0,-1,0,0,-2,1,0
17.948317,-2,2,1,-2,-1,1,-2,-2,0
17.948338,-1,0,0,-1,0,-2,-1,1,0
17.949040,-1,-1,-1,-2,-2,-1,0,0,0
17.949164,-2,-3,-2,0,1,-1,0,-1,0
17.963885,-2,2,2,-1,-2,-2,-1,-1,0
17.963898,0,0,-2,-2,-1,-1,1,0,0
17.970119,-3,-4,-1,-1,-2,-1,-2,-4,0
17.970143,-1,-1,-2,-1,-1,0,0,-1,0
17.985094,-1,-4,-2,-1,-1,-2,-2,0,0
17.985120,-1,1,-1,0,1,0,0,0,0
17.986505,1,-2,-1,-1,0,-1,-2,-2,0
17.986511,0,-1,-1,-1,0,-1,1,0,0
18.009452,-1,0,0,-3,0,-1,1,-1,0
18.009459,0,0,-1,-2,-1,-3,-3,-2,0
18.009460,1,-1,-2,0,-1,-4,-1,0,0
18.009462,-4,-5,-3,-2,-2,-1,-2,-4,0
18.022091,-1,-1,1,0,0,-1,0,-1,0
18.022112,-2,3,0,-1,-2,-2,-1,0,0
18.030386,-3,-16,-11,-3,-3,-1,-1,0,0
18.030412,-3,-5,-1,-2,-1,0,0,-2,0
18.045309,0,0,-3,-1,-1,-1,-1,0,0
18.045412,0,0,2,0,-3,-1,0,-1,0
18.045868,0,6,5,1,1,0,-1,-1,0
18.045892,-1,0,-2,-1,0,-1,-2,-1,0
18.069801,-2,-2,-1,-1,-2,0,-1,-2,0
18.069808,-2,-1,0,-1,0,-1,-1,-1,0
18.069810,2,4,1,0,-1,0,0,-1,0
18.069812,1,-5,-3,-2,-1,1,1,0,0
18.090982,-3,0,-2,-1,0,-1,0,-4,0
18.091000,-2,-2,-1,-2,-2,0,-1,-2,0
18.092422,0,1,1,-1,1,-2,1,0,0
18.092425,-4,-2,-2,-2,0,-2,-2,-1,0
18.105086,0,4,4,0,-1,-1,-1,0,0
18.105108,-1,-4,-1,-2,-1,0,-1,0,0
18.105964,0,-3,-6,0,-1,-1,-2,0,0
18.106141,-1,-2,-1,0,-1,-1,-1,-2,0
18.128882,0,-1,-1,-1,0,0,-2,1,0
18.128920,-1,0,1,-1,1,0,0,0,0
18.131797,-1,2,2,0,0,0,-1,-1,0
18.131803,1,3,1,1,0,-1,-1,2,0
18.150857,-2,-5,-4,-2,-1,-1,-2,-5,0
18.150892,-3,-3,-2,0,0,-1,-3,0,0
18.151953,-2,-1,-1,-1,-1,-2,-1,-3,0
18.151982,0,0,-2,0,-2,0,-1,-1,0
18.165383,1,1,1,-2,-1,-2,0,1,0
18.165392,0,-1,-3,-2,-1,-2,-1,0,0
18.165811,-1,-2,0,-1,0,-1,0,-2,0
18.165817,-4,1,0,-1,-1,-1,-3,-2,0
18.188904,2,1,1,0,-1,-3,-1,2,0
18.188933,-1,-1,0,-1,0,0,-2,-2,0
18.191757,-1,2,2,-1,-2,-1,0,-1,0
18.191763,0,-8,-9,-2,0,0,0,-1,0
18.211921,-1,-6,3,-1,1,-1,-2,-1,0
18.211928,0,-2,-2,1,0,-1,1,-2,0
18.211929,0,-1,-2,-2,0,-1,-1,-3,0
18.211931,1,6,3,0,0,-1,0,0,0
18.226730,-3,-7,-7,0,-3,0,-2,-2,0
18.226736,-1,1,1,0,-2,-2,0,-3,0
18.226738,-3,-2,0,0,0,-1,-1,-3,0
18.226740,1,9,-9,-1,-1,-1,-1,-1,0
18.248773,0,8,8,0,-1,-1,0,-3,0
18.248799,-1,-8,-4,0,0,-1,0,2,0
18.251139,-2,3,-2,-2,-1,0,-1,-1,0
18.251149,-1,-9,2,-1,-2,0,-1,0,0
18.271351,1,4,-3,-2,0,0,-1,0,0
18.271357,0,5,0,-1,0,1,0,1,0
18.271359,-3,-6,-2,-2,0,-1,-1,-1,0
18.271361,1,2,2,1,0,-1,-3,-2,0
18.286972,0,-2,-2,0,1,-1,-1,0,0
18.286979,0,-1,1,-1,-1,-1,-1,1,0
18.286981,0,-4,-2,-1,-1,-1,-1,1,0
18.286983,-1,-1,3,0,0,0,0,-1,0
18.308528,-1,0,-7,-1,-1,0,-1,-1,0
18.308550,-2,-6,-4,-1,0,1,-1,-2,0
18.310015,1,2,-1,-1,-2,-1,-1,-1,0
18.310019,-3,-1,2,-1,-1,-3,-1,-3,0
18.330870,-2,-4,-2,0,-1,-1,-2,0,0
18.330891,1,2,-1,-1,0,-1,-1,-1,0
18.332430,-1,0,1,-1,-2,0,-2,0,0
18.332437,-1,-3,-3,0,-1,0,-1,-1,0
18.345574,-3,-1,-1,-2,-2,0,-1,0,0
18.345602,-1,-1,-2,0,-2,-1,-1,-1,0
18.348685,0,2,2,-1,-1,-1,-1,-2,0
18.348694,-2,-2,-1,-2,0,0,0,-1,0
18.368657,0,1,-2,0,1,0,0,1,0
18.368689,-3,0,2,0,-2,1,-4,-3,0
18.369060,-3,-2,-1,-2,0,-3,-1,-1,0
18.369091,1,-5,-3,0,0,-1,0,1,0
18.390876,-2,-3,-3,-2,-3,-1,-1,-2,0
18.390895,-2,-1,-1,-2,-1,0,-2,-3,0
18.392585,0,2,-2,-1,-1,0,-1,-1,0
18.392589,1,2,2,-1,0,-2,-1,-1,0
18.405741,0,0,-1,0,-1,-2,-1,-1,0
18.405829,0,-7,-3,-4,0,0,-1,0,0
18.405867,-2,1,1,0,-3,-1,0,1,0
18.408106,0,-5,-4,0,0,-2,-1,1,0
18.428572,-5,-5,-2,-1,0,-2,-2,-7,0
18.428581,-3,1,2,-1,-2,-1,-1,-4,0
18.428836,0,-3,-2,-1,-1,-1,-1,0,0
18.428843,0,0,0,0,-1,1,-2,-1,0
18.451009,0,2,0,-3,-1,-2,-3,-1,0
18.451035,0,-2,-2,0,-1,-2,0,0,0
18.452655,-1,-1,-3,-1,0,1,0,-2,0
18.452659,-3,2,4,-2,-3,-1,-1,-2,0
18.465231,2,0,-4,1,-3,0,2,0,0
18.465255,-2,-1,-2,-2,-1,0,-2,0,0
18.466862,1,0,-1,1,1,-2,0,2,0
18.466878,-6,-3,-3,-2,-1,-2,-2,-6,0
18.488567,-2,0,2,-1,0,0,-1,2,0
18.488576,0,1,-2,0,1,-2,2,-1,0
18.488863,-2,-7,-3,-2,-1,1,-1,-2,0
18.488869,1,1,0,-1,-1,0,-1,0,0
18.511387,1,1,-1,-1,1,0,-1,-1,0
18.511410,0,2,1,-1,-1,-2,-2,0,0
18.514567,0,0,1,0,0,-2,-3,-2,0
18.514582,0,-1,-2,-1,-1,-1,-1,0,0
18.524689,-1,-2,-2,-1,-1,-1,-1,-1,0
18.524713,0,3,1,-2,-1,0,0,0,0
18.532833,-1,-1,0,0,-1,-1,-1,1,0
18.532870,0,-6,-5,-1,-1,-1,-2,0,0
18.548385,-2,-1,1,1,-1,-2,-1,-1,0
18.548462,1,0,0,-2,-2,0,-1,-1,0
18.550936,-1,1,-2,-1,-2,0,-1,-1,0
18.550954,-1,-4,-4,-2,1,-1,0,1,0
18.570724,0,-2,-4,-2,-2,-1,0,2,0
18.570740,1,0,-1,0,-2,-2,-2,-1,0
18.571644,0,0,1,-2,-2,-2,0,-1,0
18.571657,2,5,3,0,-2,1,1,1,0
18.585339,-2,3,0,-2,0,0,-2,-3,0
18.585372,-4,-2,-2,0,-1,-1,-1,-3,0
18.585743,0,-1,-1,-3,-1,-1,0,-1,0
18.585750,0,0,0,-2,-1,-1,-1,-2,0
18.608286,2,-1,0,1,-1,0,-1,0,0
18.608305,0,0,0,0,-2,-1,-1,0,0
18.609204,0,-2,-1,-1,-1,-1,-1,-1,0
18.609208,-3,1,1,-2,-2,-2,-1,-2,0
18.630790,-1,2,0,-2,-1,1,-1,-1,0
18.630807,-2,-6,-3,-2,0,0,-2,-1,0
18.631518,-2,-2,-1,-3,-1,0,-1,0,0
18.631525,-1,2,0,1,-1,-2,-1,-1,0
18.647321,1,0,1,-2,-2,-1,-1,0,0
18.647327,-2,-1,-1,-1,-2,-2,-2,-2,0
18.647329,-2,-3,-9,0,0,-1,1,-1,0
18.647331,-3,1,1,-1,-1,0,-2,-2,0
18.668207,-1,-6,-2,-2,0,-2,-1,-1,0
18.668226,0,1,3,0,1,-2,0,-1,0
18.669350,0,-2,0,-1,-2,1,-1,0,0
18.669355,-3,0,-2,-2,0,-2,-2,-2,0
18.692800,2,-2,-2,2,0,-1,-1,1,0
18.692805,-1,-1,-3,-1,-2,-1,-1,-1,0
18.692807,1,4,2,-1,1,-1,-1,0,0
18.692809,-3,-5,-5,-2,-2,-1,0,-3,0
18.704524,-2,-3,-1,0,-2,-2,-1,-2,0
18.704548,-1,-1,-2,0,-2,-1,-2,0,0
18.713278,0,2,1,0,-1,-2,-1,0,0
18.715528,2,1,0,0,-1,-2,0,1,0
18.728473,-1,-2,-1,-1,-2,-1,0,0,0
18.728492,-3,-2,-2,-1,-2,-2,-1,-2,0
18.731385,0,-2,1,-1,-1,-1,-2,1,0
18.731393,0,0,0,-1,-1,0,-2,-2,0
18.751200,-3,-1,-2,-1,0,-1,0,-1,0
18.752834,0,0,-1,-2,0,0,0,-1,0
18.752845,-2,-1,2,0,-1,0,-2,-2,0
18.752847,0,-4,-4,0,-1,-1,0,-1,0
18.764598,-4,2,3,-1,-1,0,-2,-2,0
18.764622,3,-2,-1,1,-1,-1,0,2,0
18.772686,-6,-4,0,-2,-1,-2,-2,-6,0
18.772703,-2,-2,-2,-1,-1,-2,-1,-2,0
18.788256,-1,0,-2,-1,-2,0,-1,1,0
18.788273,0,2,1,-1,0,0,0,0,0
18.789050,0,-1,0,-1,0,0,0,0,0
18.789072,0,6,5,-1,-1,-1,-2,-1,0
18.810723,-1,-12,-7,1,-1,-2,1,-1,0
18.810745,-2,1,-1,-2,-1,-1,-1,-1,0
18.813022,0,-1,-2,-1,-2,-3,-1,0,0
18.813032,-3,0,1,-2,0,-2,-2,-3,0
18.824394,0,0,-3,-1,1,-1,-2,0,0
18.824416,-2,-2,-1,0,-1,-1,0,-3,0
18.832908,-1,-2,-2,-2,1,0,-1,0,0
18.832944,0,1,0,0,-2,-1,1,1,0
18.848230,0,2,2,-1,-1,-3,-2,-1,0
18.848239,-1,-3,-4,-1,0,-1,0,1,0
18.848955,-1,4,2,0,-1,-1,-3,-1,0
18.848995,-2,-5,-3,0,-2,0,1,1,0
18.870918,-6,-6,-2,-1,-3,0,-2,-8,0
18.870995,-6,-1,1,-2,-2,-1,-3,-4,0
18.872816,1,0,-1,0,-3,0,0,1,0
18.872822,2,1,1,-1,0,-1,-1,2,0
18.884675,1,1,0,-2,-1,0,0,1,0
18.884694,1,-2,-2,-1,-1,0,-1,0,0
18.894324,0,1,0,-1,-1,-1,-1,-2,0
18.894333,-1,-5,-2,-2,-2,-2,-1,-1,0
18.909862,-1,1,1,0,-2,1,-2,0,0
18.909867,-2,4,3,0,-1,-2,-1,-1,0
18.909869,0,-9,-5,-1,0,-1,-1,0,0
18.909871,-1,-2,-2,0,0,0,0,0,0
18.930964,2,2,1,-1,0,-1,0,0,0
18.930992,-2,-2,-3,-1,-1,-2,-1,-2,0
18.933310,-2,-2,-1,-2,-2,-1,-1,-1,0
18.933318,-1,0,-2,-2,-1,1,0,-2,0
18.944324,0,3,4,-2,1,-1,0,-2,0
18.944346,3,4,0,0,1,-2,-1,1,0
18.954794,-6,-9,-3,0,-1,-1,-2,-4,0
18.954799,-1,-4,-4,0,0,-1,1,0,0
18.968238,-3,-4,-4,-3,-3,-2,-2,-3,0
18.968265,-2,1,2,-2,-1,-1,-2,-2,0
18.974517,2,2,1,-1,1,-2,0,0,0
18.974532,1,1,1,-2,-1,-1,-1,1,0
18.998246,-2,3,0,-1,-1,-1,-1,-1,0
18.998266,0,-4,-1,0,0,-1,-2,0,0
19.000075,-2,-2,-2,0,-2,-3,-1,-1,0
19.000156,-3,-3,-2,-1,-1,-1,-3,-2,0
19.013590,0,1,0,-1,0,-1,-1,0,0
19.013632,-1,-2,-3,-1,-1,-1,-1,0,0
19.015622,1,0,0,-1,-2,-1,1,0,0
19.015629,-1,0,-2,-1,0,-2,-1,-3,0
19.028387,0,-3,-2,-1,0,-2,0,1,0
19.028408,-1,-2,-3,-2,-1,-1,0,-1,0
19.030352,0,3,-1,0,-1,0,-1,-2,0
19.030367,-1,-2,-2,-3,0,-1,-1,-2,0
19.051581,-1,0,-1,-2,1,-1,-1,0,0
19.051721,-1,-4,-4,-2,-2,0,1,1,0
19.052257,-2,4,2,0,0,0,-1,0,0
19.052271,2,4,2,0,-3,-1,-1,-1,0
19.073425,0,-3,-1,-1,-1,-2,-2,-1,0
19.073454,-2,-1,0,0,-1,-1,-2,-2,0
19.076136,0,-1,-3,-2,-2,-2,1,-1,0
19.076140,-3,-5,-1,-1,-1,-1,-1,0,0
19.087591,1,2,0,0,-1,-1,1,1,0
19.087614,-1,-1,-1,-1,-2,0,-1,-1,0
19.094579,1,-2,-2,0,1,-2,0,1,0
19.094598,0,-3,1,1,0,0,-1,-2,0
19.113418,1,-1,-3,-1,-4,-2,0,-1,0
19.113431,-1,0,2,-1,-1,0,-2,1,0
19.113434,-2,0,-3,-1,-1,0,-1,-2,0
19.113435,-1,3,1,-2,0,0,0,1,0
19.133752,-1,-2,-2,-1,0,0,-2,0,0
19.133792,-1,0,-1,-1,-1,-1,-1,-2,0
19.135562,0,-2,-2,-2,0,-2,-3,-1,0
19.135567,-2,-2,-1,0,-2,-3,-2,-2,0
19.147677,-3,-3,-3,-3,-1,0,-1,-2,0
19.147698,1,0,1,0,-2,-2,0,-1,0
19.154484,-1,-1,1,0,0,0,-1,-2,0
19.154506,-2,-5,-4,0,-1,-1,-1,-1,0
19.170786,-1,0,-3,1,-1,-2,0,-1,0
19.170808,0,6,1,-1,0,0,1,1,0
19.172859,-2,-15,-8,0,-2,-2,-2,-4,0
19.172865,-1,-1,0,-1,-2,-1,0,-1,0
19.193455,-4,-6,-2,-1,-1,-2,-2,-3,0
19.193473,-2,-1,0,0,0,-1,0,-2,0
19.194763,-1,5,3,1,-1,1,1,1,0
19.194782,0,1,-2,-2,-1,-1,0,-1,0
19.215843,0,-1,1,0,-2,1,-1,0,0
19.215868,0,-3,-1,-1,-1,0,0,0,0
19.217742,-1,0,1,-2,-2,-3,-1,-1,0
19.217827,-1,1,-1,-1,0,-1,-2,0,0
19.230942,0,2,-2,-1,0,-1,0,-1,0
19.230968,-2,-1,1,-2,-1,0,-2,-1,0
19.233724,1,-1,-3,-1,0,1,-2,1,0
19.233730,-3,-1,0,0,0,-1,0,-3,0
19.253215,0,1,2,-1,-2,-1,-1,-2,0
19.253288,-2,-2,-3,-1,1,-2,0,0,0
19.254656,1,1,0,0,0,-2,-1,1,0
19.254669,-3,0,2,-2,-2,-1,-3,-1,0
19.269704,-1,-1,-1,1,0,-1,-3,-1,0
19.269711,-3,-3,-4,-2,-3,-1,-1,-1,0
19.274670,-1,-6,-5,-1,-1,1,-1,0,0
19.274690,1,4,2,-2,1,-1,0,1,0
19.290876,0,1,-1,-1,-1,-3,0,-2,0
19.290900,2,0,-2,1,-1,-2,-3,0,0
19.293365,-3,4,2,-1,-1,-1,-1,0,0
19.293370,2,-4,-4,0,0,1,1,1,0
19.313588,-6,-7,-2,-1,-1,-3,-1,-5,0
19.313620,0,-2,-2,-2,0,-1,-2,-1,0
19.315806,0,1,1,-1,-1,-1,0,-1,0
19.315812,1,0,-1,0,1,0,-2,1,0
19.328133,2,1,2,0,0,0,-1,0,0
19.328242,-1,-4,-5,-1,0,-1,-2,-1,0
19.334740,-2,0,-1,-2,0,-1,-2,-3,0
19.334760,-4,-1,-1,0,-1,-1,-1,-1,0
19.350974,-1,-1,-1,-2,-1,0,0,0,0
19.351001,0,-5,0,-2,-2,0,1,-1,0
19.352276,2,0,0,0,-1,-2,-2,1,0
19.352287,0,-1,-2,0,-1,-3,0,-1,0
19.380824,-1,1,0,0,-1,-3,-1,0,0
19.380844,-1,0,-2,-2,0,1,-1,-2,0
19.382518,-3,-12,-11,-1,0,-2,1,-1,0
19.382554,0,-1,5,0,-2,0,-1,-1,0
19.387901,-2,2,-1,-1,-1,0,-1,1,0
19.387924,-1,3,2,-1,-1,-3,-1,-1,0
19.394602,0,-3,-1,1,-2,0,-1,-1,0
19.394623,-1,-5,-2,-1,0,-2,-1,-2,0
19.410894,0,-3,-1,0,-1,-1,-2,0,0
19.410952,1,1,2,-1,-1,-2,-2,0,0
19.412131,-2,1,1,-1,0,0,-1,-2,0
19.412144,1,0,-1,-3,-3,0,-1,1,0
19.433596,-1,2,1,0,0,0,0,0,0
19.433653,-2,-1,-1,-1,1,-2,-2,-3,0
19.436143,-1,3,1,-2,-1,-2,-1,0,0
19.436150,-3,-7,-7,-1,0,-1,-2,-1,0
19.447808,-1,-1,-4,-3,-1,0,-1,-1,0
19.447826,-3,-3,-2,0,-1,0,1,0,0
19.454322,-1,0,2,-1,0,0,0,0,0
19.454353,0,3,1,-1,-1,0,-1,-2,0
19.470792,-5,-3,-2,-1,-2,-2,-2,-5,0
19.470825,0,-3,-3,0,-2,-2,-1,0,0
19.472188,-1,3,2,0,-1,-1,-1,0,0
19.472202,-2,2,0,-2,-1,-2,-1,1,0
19.493236,0,-2,0,-1,-2,-1,-1,-1,0
19.493253,-1,-7,-8,0,-1,-1,-1,-2,0
19.494646,-1,0,0,-2,-1,0,-1,-2,0
19.494655,-2,-3,-2,-1,-2,-1,-2,-4,0
19.507496,-2,0,-2,-4,1,-1,0,1,0
19.507516,-3,-1,0,-1,-2,0,0,-2,0
19.517359,-2,-1,-2,-1,-1,-1,-2,-1,0
19.517380,-2,-3,-1,0,-2,-2,-1,-1,0
19.531003,0,0,0,0,-1,-1,0,-1,0
19.531025,-2,0,2,0,-1,0,-2,-4,0
19.533647,-1,-1,0,-2,0,-1,0,0,0
19.533661,-3,-1,1,-2,-2,-1,-2,-4,0
19.553697,2,-5,-5,-1,-1,-1,0,0,0
19.553782,-1,4,3,0,0,2,0,-1,0
19.556295,-2,-4,-3,0,-1,-1,-2,-2,0
19.556301,0,2,0,0,0,-1,-2,0,0
19.566966,-1,0,0,1,-4,-1,-2,-1,0
19.566983,-2,-1,0,-3,-2,0,0,1,0
19.576650,-1,0,-2,-2,1,-1,-2,-3,0
19.576655,-1,-4,-1,0,0,-2,1,-1,0
19.590982,-1,-6,-3,0,-1,0,-1,-2,0
19.591000,0,2,2,-1,0,-1,-2,0,0
19.592264,-1,2,-1,-1,-2,0,-1,-1,0
19.592270,0,1,-2,-2,-1,-1,-1,0,0
19.614168,1,2,2,-2,-2,-1,-1,0,0
19.614176,-1,-1,2,-1,-2,-2,-3,-1,0
19.614799,-1,-4,-5,-2,0,0,-1,-1,0
19.614807,-2,-1,-2,-1,-1,-2,0,-2,0
19.628292,-2,1,0,-1,0,-2,-1,-1,0
19.628301,-1,-1,-3,-2,-2,-3,-1,-2,0
19.636655,-1,-1,1,0,-1,-1,-2,-1,0
19.636660,1,3,0,1,-1,0,0,1,0
19.650979,-3,-2,-1,-2,2,2,0,1,0
19.651008,0,0,-1,0,-2,0,-1,1,0
19.652223,-3,5,2,-1,-3,-3,-2,-3,0
19.652269,-2,-15,-7,-2,-1,0,0,0,0
19.673545,-1,-3,-2,-2,-1,0,1,-1,0
19.673571,0,-3,-2,0,1,-1,-1,2,0
19.676367,-1,2,1,-1,-2,-1,0,1,0
19.676374,-3,4,3,0,1,0,-2,-1,0
19.686914,-3,0,-2,-2,-1,-3,-1,-4,0
19.686937,-3,-4,-3,-1,-2,0,-1,-3,0
19.697691,1,-2,-2,-2,-1,0,0,0,0
19.697704,-5,-2,-7,-2,-1,-1,-2,-3,0
19.710632,0,-5,-5,0,0,0,0,0,0
19.710648,-1,1,0,0,1,-1,0,0,0
19.712106,-1,-3,0,0,0,-1,0,1,0
19.712138,2,0,-1,-3,0,0,-2,0,0
19.733837,0,4,1,-1,-2,-2,-1,-1,0
19.733863,-1,-2,0,-1,-2,-3,-1,-2,0
19.735451,1,-3,-1,0,-2,-1,0,0,0
19.735455,0,2,0,-1,0,-2,-1,-1,0
19.747022,-1,-1,0,0,-1,-1,-2,0,0
19.747046,-2,-1,-1,-2,-1,-1,-2,-1,0
19.755816,-2,-1,-2,-2,-1,-1,-1,0,0
19.755837,0,-3,0,-1,-1,-1,-3,-1,0
19.770678,0,1,-1,0,0,-1,-1,1,0
19.770687,-1,0,-1,0,-1,-1,-1,-1,0
19.772207,-2,-5,-3,-1,0,-1,-2,-2,0
19.772220,-1,2,0,0,-2,0,-1,-3,0
19.793466,0,-6,-3,0,0,-2,-1,2,0
19.793485,0,-2,-3,-1,-1,1,0,1,0
19.795379,-2,0,-2,0,-1,-1,-1,-1,0
19.795382,1,3,5,-1,-2,0,1,0,0
19.807025,-4,-3,-4,-2,-3,-2,-1,-4,0
19.807047,-1,0,-1,-2,-2,-1,1,-1,0
19.818253,-1,-2,0,-3,-2,-1,0,-1,0
19.818271,-1,-4,-3,-2,0,-2,0,-1,0
19.833657,0,3,3,0,0,0,-1,-1,0
19.833665,-2,-3,-4,-1,-2,1,-1,-4,0
19.833668,-1,0,-2,-2,-1,0,-1,-1,0
19.833670,-1,-1,2,0,-1,0,0,-1,0
19.853207,-1,-2,0,0,-2,-1,-3,-1,0
19.853225,0,-1,-1,-1,1,0,0,-1,0
19.854693,-2,0,1,-1,1,-1,-1,-2,0
19.854778,-1,3,1,0,-1,0,-1,-1,0
19.867098,0,-4,-2,-1,0,-1,0,0,0
19.867134,-1,2,3,-2,-2,-1,-2,1,0
19.878761,-1,-1,-4,0,0,-1,-1,-3,0
19.878770,-1,4,1,1,-1,-1,-2,-3,0
19.891123,-2,-7,-5,-2,0,2,1,-1,0
19.891146,0,3,1,-1,0,-1,-1,-2,0
19.893492,0,-2,-1,-1,-1,-1,-1,0,0
19.893498,-1,2,0,0,0,-1,-3,2,0
19.913404,0,0,2,-1,-2,-2,-1,0,0
19.913430,1,-2,-3,-1,-1,-1,1,1,0
19.914782,-3,1,2,-2,-3,-2,-2,-3,0
19.914811,-1,-4,-3,-1,-2,0,0,-2,0
19.926826,0,-1,1,0,0,-2,-1,0,0
19.926840,0,-1,-1,1,-2,-1,1,0,0
19.936479,2,3,4,-1,-2,0,0,-1,0
19.936484,-3,-4,-4,-2,-3,-2,0,1,0
19.950935,-1,7,1,0,-1,-1,0,-2,0
19.950952,-4,-6,-2,-1,-2,-1,-1,-3,0
19.952628,-1,-6,-4,1,-1,0,0,-1,0
19.952633,-2,-3,0,-3,-2,0,-2,0,0
19.973805,1,2,0,-1,-1,0,-1,-1,0
19.973812,-1,4,1,-2,1,-1,-2,0,0
19.974739,-1,-1,-2,-2,-2,-2,-1,-2,0
19.974745,0,-3,-2,-1,-1,-1,0,-1,0
19.996032,-2,0,3,-1,-2,-2,-2,-4,0
19.998260,1,-6,-4,-1,-1,0,-2,0,0
19.998267,-3,2,1,0,-2,-2,-2,-2,0
19.998269,-1,-1,-3,0,-1,-1,0,1,0
20.010832,1,0,0,0,-1,-1,0,-1,0
20.010848,0,-2,-1,0,0,-1,2,0,0
20.014095,0,-2,-2,-2,0,0,-1,0,0
20.014104,-2,-3,-2,-3,0,-1,-1,-2,0
20.033532,-2,-2,-3,-1,-2,-3,-1,-3,0
20.033571,-3,-1,-1,1,-1,0,-2,-2,0
20.035965,-1,1,0,-1,-2,-2,-3,1,0
20.035971,-2,-1,1,-1,0,-1,0,-2,0
22.058682,-6,-105,16,15,5,6,8,-20,4
22.059343,62,-15,21,-5,-4,-5,-7,19,4
22.060685,-15,-23,14,1,-2,-3,-1,-14,4
22.060689,62,-72,-51,-19,-5,-6,-8,-40,4
22.080735,-15,27,5,8,0,0,-3,-30,4
22.080757,27,38,15,7,6,5,6,29,4
22.082313,70,-90,-60,-15,-4,-4,-3,30,4
22.082393,-56,76,3,7,1,0,0,-8,4
22.095018,51,-61,-13,-4,-4,-3,-1,-6,4
22.095051,-48,51,8,1,-1,0,0,-34,4
22.101924,25,23,28,13,7,5,8,29,4
22.101941,53,7,-4,-4,-4,-6,-11,-28,4
22.118263,32,7,-7,-4,0,0,6,30,4
22.118282,12,-12,-11,5,3,3,5,5,4
22.119812,-40,-10,-17,0,1,3,6,-52,4
22.119898,-43,24,15,-1,1,-4,-9,48,4
22.142408,83,-77,-8,-3,-1,-1,-2,-6,4
22.142414,56,101,10,3,-4,-5,-6,-19,4
22.142417,-14,-29,-8,-1,-1,-1,-2,7,4
22.142419,-82,0,-10,-6,-3,-3,-1,-60,4
22.155187,82,6,-14,-4,-2,0,0,37,4
22.155210,-110,80,17,5,-1,-2,-8,-35,4
22.162115,-94,12,-32,-2,-1,-3,-4,27,4
22.162138,-35,21,-19,-4,-1,2,5,-1,4
22.178610,-14,-25,16,5,1,1,5,29,4
22.178640,-89,43,-1,-1,-1,-3,-5,-40,4
22.181400,98,111,25,-2,-3,-4,-7,-16,4
22.181407,127,122,39,12,4,7,12,12,4
22.201017,24,-19,-13,-2,-2,-2,-10,-17,4
22.201046,68,35,-22,-4,-2,-4,-2,-12,4
22.202621,-32,-29,20,1,-1,0,-5,-26,4
22.202625,-78,57,-29,6,3,2,3,-32,4
22.215060,21,18,-15,-6,-7,-5,1,14,4
22.215096,-32,-49,-1,7,4,4,6,14,4
22.221795,-32,-78,-8,-6,-2,-1,2,20,4
22.221812,-16,39,14,1,-2,-2,0,-24,4
22.238181,16,44,24,7,2,0,-7,-26,4
22.238194,19,21,5,-15,2,-1,2,16,4
22.239742,86,6,-1,-2,-5,-3,-2,2,4
22.239757,88,6,-2,1,3,0,0,14,4
22.260664,68,-38,-28,-12,-7,-5,-3,13,4
22.260683,58,45,-16,4,-2,-3,-4,-6,4
22.262085,99,85,26,8,3,6,12,26,4
22.262184,36,-94,-10,-19,-8,-5,0,69,4
22.275381,74,107,51,27,6,1,-11,-95,4
22.275409,17,-128,-51,-11,-8,-4,0,35,4
22.282132,-69,-39,0,1,-3,-2,-4,-22,4
22.282169,-91,73,9,4,0,-1,-2,-3,4
22.299523,73,-53,-49,-22,1,2,10,17,4
22.299532,61,-65,7,4,3,4,5,-2,4
22.299968,16,-71,-13,5,0,-3,-3,-2,4
22.300027,-48,-104,-15,-13,-6,-5,-8,-17,4
22.320746,-69,35,10,3,0,0,2,4,4
22.320777,-84,-32,9,-1,0,1,-6,-78,4
22.322543,50,52,3,2,1,2,6,34,4
22.322548,97,-64,4,5,1,4,6,-28,4
22.335097,85,67,0,-2,-3,-6,-11,9,4
22.335120,-4,-17,22,-2,0,2,8,35,4
22.341803,-14,23,1,4,3,1,-2,-6,4
22.341823,-78,60,19,5,3,2,6,-3,4
22.358765,-93,-40,-10,-12,-7,-5,-10,8,4
22.358794,-59,-3,6,1,0,2,11,55,4
22.361711,80,56,10,-2,-4,-8,-16,7,4
22.361718,17,-45,-4,5,3,4,4,11,4
22.380734,59,-70,5,7,1,0,-1,30,4
22.380752,-58,38,18,-2,0,1,2,-26,4
22.382571,66,23,19,3,0,0,-1,-20,4
22.382599,-47,-27,-20,-11,-3,-10,-15,0,4
22.394366,-120,-12,11,-7,1,5,13,9,4
22.394380,87,-60,-25,-1,-3,-3,-11,0,4
22.403934,34,-14,-20,-6,-3,-2,-1,-17,4
22.403939,100,50,8,12,2,1,0,1,4
22.418698,108,73,-1,-13,0,0,7,-20,4
22.418728,10,28,-34,-12,-7,-9,-11,12,4
22.420128,-10,-17,8,-2,2,2,6,14,4
22.420133,110,-74,9,7,2,1,2,29,4
22.441879,96,-56,-17,-9,-2,0,1,-10,4
22.441885,35,26,-3,6,1,2,1,-2,4
22.442184,23,-123,-38,-19,-3,-1,8,10,4
22.442207,-46,-48,-5,-6,-3,-2,2,58,4
22.454598,-59,-46,26,13,0,-7,-18,-101,4
22.454636,22,-58,2,-4,1,1,5,52,4
22.465728,24,98,-12,-2,-5,-8,-12,-5,4
22.465737,-106,18,18,-2,4,3,8,0,4
22.478758,22,-105,-15,0,0,2,1,16,4
22.478789,35,74,27,8,2,0,-3,-7,4
22.481119,55,49,12,7,-3,-8,-18,-26,4
22.481125,5,-24,-36,-11,-5,-5,-4,-16,4
22.502875,103,127,-4,-1,-2,0,1,4,4
22.502879,87,-46,6,-2,-2,0,1,0,4
22.502882,-44,-31,6,-6,0,0,-1,10,4
22.502884,70,89,8,9,0,1,2,-31,4
22.514667,-70,-23,-7,-4,-4,-3,4,40,4
22.514688,33,21,-11,-3,0,-4,-8,-27,4
22.524846,27,13,-1,-3,-3,0,5,51,4
22.524850,51,51,12,-1,0,0,-3,-28,4
22.538319,-118,115,16,5,2,0,-2,-4,4
22.538341,-29,-35,26,-1,-5,0,2,-4,4
22.539860,22,-41,-27,-8,-1,-2,0,-11,4
22.539881,101,-18,-7,-7,-5,-2,-4,-2,4
22.560688,-31,-58,-36,14,4,2,2,19,4
22.560783,-79,38,-21,-9,-4,-10,-13,-21,4
22.562179,-128,-90,-25,-11,-2,-1,0,-9,4
22.562229,-43,-106,-7,-5,-3,1,2,-11,4
22.574377,-4,-1,5,1,-1,2,4,6,4
22.574396,20,45,-14,-3,-1,1,3,0,4
22.583751,58,10,-14,2,0,1,2,26,4
22.583785,-43,24,11,4,2,2,5,14,4
22.598387,-37,20,-8,-2,-3,-8,-20,-20,4
22.598394,-8,-128,-14,-3,2,2,4,1,4
22.608258,-106,78,8,0,-1,-2,-4,-52,4
22.608265,76,-5,-17,-9,-7,-9,-15,10,4
22.620725,65,-77,3,-12,-1,1,9,29,4
22.620750,9,98,11,16,3,3,2,17,4
22.622293,-57,-80,1,4,2,1,-2,-15,4
22.622300,-8,5,7,0,0,-3,-3,-10,4
22.634472,-7,-28,-2,-1,-2,-3,-3,-20,4
22.634492,-88,-76,-20,-12,-5,-4,-3,-21,4
22.645305,59,29,46,14,5,6,9,4,4
22.645311,14,59,-22,-8,-6,-4,-4,1,4
22.661272,55,46,45,11,7,5,4,4,4
22.661278,79,22,14,-2,2,3,9,10,4
22.661281,-52,-71,-20,-4,-1,-1,-1,-28,4
22.661282,-90,38,13,0,-1,-3,-7,9,4
22.681019,-15,-128,-12,-5,1,0,-7,-86,4
22.681038,24,127,25,11,3,-1,-1,15,4
22.682345,-82,-74,-25,-16,-8,-5,-6,-21,4
22.682350,30,-13,-15,1,4,6,10,9,4
22.694363,-28,-17,7,0,1,2,2,25,4
22.694378,31,28,34,8,5,6,1,-26,4
22.704000,31,-78,-25,-10,-5,-5,-6,9,4
22.704006,-41,14,-6,13,2,-1,0,-13,4
22.718381,-32,93,-27,-7,-4,-5,-5,26,4
22.718404,40,62,9,2,-1,-1,1,12,4
22.719724,72,-41,-5,2,-3,1,7,41,4
22.719758,-27,-6,-5,-7,-5,-5,-7,-25,4
22.740898,90,73,11,5,4,4,6,37,4
22.740918,-98,-103,-11,-7,-3,-6,-14,-62,4
22.742204,-85,43,-4,-7,-1,-2,-1,34,4
22.743376,-31,-87,-6,15,3,4,2,-34,4
22.763448,2,121,20,1,-6,-6,-2,40,4
22.763482,49,-128,-46,-14,-4,-5,-5,0,4
22.766109,69,127,30,12,4,2,-3,-12,4
22.766115,29,-4,0,-3,2,3,5,-5,4
22.778326,58,81,-8,-4,0,1,1,-45,4
22.778350,-38,78,21,2,-5,-3,-2,2,4
22.780613,-57,6,-11,-7,-1,-1,4,2,4
22.780621,68,84,9,2,0,-1,-2,41,4
22.801265,-36,-27,-11,-8,-2,2,7,9,4
22.801274,13,-10,-10,8,2,0,-2,4,4
22.802283,29,61,19,18,1,-2,-1,-13,4
22.802316,-85,31,24,-4,2,-2,0,10,4
22.823405,33,12,-2,-1,-4,-7,-9,8,4
22.823428,21,20,-5,1,0,1,-1,-65,4
22.825376,21,57,29,7,5,5,8,57,4
22.825383,-5,-112,-34,-14,-8,-3,-5,13,4
22.838240,-17,-37,-9,3,0,-1,3,-34,4
22.838262,-20,84,13,2,0,2,1,69,4
22.840142,109,71,22,9,4,-1,1,9,4
22.840146,36,-39,-5,-5,-3,-2,-3,-48,4
22.861217,63,-62,-15,-13,-5,-5,-9,34,4
22.861247,81,37,14,6,3,4,8,-12,4
22.864125,-17,8,-9,-9,-3,1,2,-5,4
22.864132,-48,-92,-30,-12,0,-1,4,18,4
22.883516,-82,104,33,12,4,1,2,13,4
22.883542,94,24,-10,3,2,-2,-5,2,4
22.884789,83,-127,-37,-15,-7,-3,-4,-11,4
22.884807,127,127,27,16,2,0,-3,-10,4
22.897638,9,-102,-4,-11,-3,-3,0,-1,4
22.897657,-128,-65,-11,-3,-2,-1,4,12,4
22.904469,-2,-43,-3,-6,-3,-5,-5,18,4
22.904491,-18,26,20,-4,-2,-3,-7,-37,4
22.920770,108,68,-5,6,-3,-1,3,17,4
22.920796,32,-95,4,-9,-3,-5,-10,0,4
22.923194,-87,-112,-41,-9,-3,-2,-3,-16,4
22.923204,-37,47,12,7,4,3,5,28,4
22.943498,-68,-62,-13,4,-2,-3,-6,-19,4
22.943518,-33,-2,-17,0,-3,-3,-4,23,4
22.944918,-70,17,-11,-9,-3,-6,-15,-60,4
22.944992,92,-33,-3,3,0,0,0,0,4
22.958277,64,83,16,-2,0,0,0,-13,4
22.958299,73,96,27,15,7,7,15,26,4
22.964609,-29,-42,-1,-11,-3,-3,-4,-7,4
22.964638,38,-34,-15,2,-1,-1,1,11,4
22.981118,19,39,25,10,2,2,2,23,4
22.981136,127,68,11,1,-2,-7,-7,-5,4
22.982682,-33,61,33,9,6,7,8,3,4
22.982691,41,-31,-27,-9,-5,-7,-7,-32,4
23.003177,-42,25,6,3,1,1,0,13,4
23.003186,-93,-71,-23,-16,-2,0,0,-47,4
23.004693,-114,-56,21,3,-1,1,7,15,4
23.004707,-24,88,53,13,4,4,3,-20,4
23.018334,-105,-128,-58,-10,-1,0,0,-29,4
23.018341,-15,44,20,5,-2,-1,-5,33,4
23.024915,69,-51,-13,-9,-6,-8,-17,-35,4
23.025031,-28,21,4,-1,3,8,17,42,4
23.040940,-49,-26,-27,-9,-6,-9,-10,-9,4
23.042950,19,-90,-9,-12,-4,-8,-9,-56,4
23.042955,51,50,12,14,5,5,4,56,4
23.042957,57,52,5,10,4,2,-11,-44,4
23.065816,66,-128,-11,-11,-8,-2,9,17,4
23.065919,-113,37,2,-7,-1,-3,-5,16,4
23.065924,106,8,12,-4,-4,-1,2,-24,4
23.065926,79,-42,10,11,3,1,5,38,4
23.078225,0,97,26,8,2,-1,-9,-21,4
23.078264,-82,55,-15,1,0,4,9,-14,4
23.084685,93,-36,39,8,5,4,4,38,4
23.084714,-6,-57,-29,-21,-9,-7,-6,2,4
23.108291,-4,2,11,0,1,-1,4,19,4
23.108316,31,55,20,11,0,1,1,-2,4
23.109732,38,127,15,3,0,-4,-8,-20,4
23.109763,-21,-75,-27,-9,-3,-4,-4,11,4
23.123395,19,13,10,3,1,0,-1,4,4
23.123417,18,49,-15,-5,1,7,12,-11,4
23.125463,-93,-38,-29,-5,-6,-5,-8,-46,4
23.125468,55,14,-23,-8,-3,-3,-4,45,4
23.137714,-50,-99,-23,-12,-2,2,5,-5,4
23.137737,75,4,8,-3,0,-1,-3,19,4
23.144342,43,-5,-35,9,-1,-2,-2,0,4
23.144361,-79,12,5,-1,-4,-3,0,-10,4
23.160655,-36,48,1,2,3,3,2,12,4
23.160669,12,-101,-14,-5,-7,-7,-19,-30,4
23.162110,94,41,-5,-13,-1,-4,-3,-3,4
23.162124,-29,3,3,-6,-4,-6,-7,-21,4
23.183417,-56,0,-11,-4,-2,-1,5,23,4
23.183452,-11,-127,-7,7,2,-1,-2,-1,4
23.186099,34,-94,-26,-3,-2,0,6,22,4
23.186105,-72,-5,-21,-9,-6,-5,-4,14,4
23.197792,127,112,58,10,5,2,-3,-78,4
23.197814,-58,5,-28,-16,-6,-6,-4,0,4
23.204451,-66,29,12,10,4,4,7,8,4
23.204474,33,-2,-20,-10,-3,-6,-7,-19,4
23.221073,23,6,12,7,-4,-1,1,-3,4
23.221083,-83,105,19,-2,1,-2,0,30,4
23.222183,49,-65,20,3,3,3,5,10,4
23.222235,18,34,6,-1,-1,0,-5,-52,4
23.243394,65,-25,-9,-1,-1,-2,-3,-23,4
23.243410,33,-110,-10,0,-3,-1,3,49,4
23.246282,48,-21,-50,-21,-9,-7,-8,-3,4
23.246299,-21,-26,-1,-2,2,2,5,21,4
23.257711,-42,52,-1,-3,-2,-2,-3,25,4
23.257729,26,11,12,8,6,6,8,-47,4
23.264486,-57,-21,-27,-13,-4,-3,-6,-35,4
23.264507,36,-43,15,4,1,-1,-3,-8,4
23.281014,50,15,11,1,2,1,3,-13,4
23.281043,67,-70,17,8,0,-2,1,17,4
23.283139,-128,-5,-1,-4,-5,-6,-9,19,4
23.283146,62,37,-2,10,1,2,1,-45,4
23.303343,71,57,61,16,11,3,4,27,4
23.303370,-2,17,-73,-28,-9,-5,-2,-5,4
23.304838,81,47,19,21,3,1,-6,-29,4
23.304932,0,88,24,0,2,-1,8,35,4
23.317195,-20,-7,-18,-1,-3,-2,-5,-8,4
23.317226,69,-53,-1,1,-2,0,3,18,4
23.326779,9,24,9,-6,0,2,3,-1,4
23.326784,55,32,17,22,4,3,1,5,4
23.340707,-21,-84,-51,-16,-5,-3,-2,-9,4
23.340725,-33,14,12,4,0,-3,-7,-17,4
23.342230,44,22,-1,-5,-2,-1,1,1,4
23.342235,-117,11,0,2,1,1,3,-1,4
23.363510,-17,-107,15,-3,-2,-5,-7,3,4
23.363541,-55,-33,11,0,-1,-3,-12,-28,4
23.364844,76,49,-9,0,0,0,4,50,4
23.364862,90,67,-5,-3,0,-3,-4,40,4
23.377616,-28,-110,-42,-13,-5,-5,-7,-9,4
23.377622,13,127,31,8,3,2,7,11,4
23.387379,-38,45,26,-4,-3,-6,-12,-39,4
23.387386,-20,-62,-14,-12,-7,-5,-1,0,4
23.400779,-33,82,-11,-8,-9,-7,-12,-5,4
23.400799,50,-8,-12,-5,0,0,0,5,4
23.402264,71,7,24,12,6,6,5,18,4
23.402272,-15,-20,4,0,-1,-2,-2,-7,4
23.423668,46,41,1,6,-1,0,-4,-1,4
23.423674,82,72,7,1,1,1,4,6,4
23.424699,-36,-52,-46,-12,-6,-5,-7,-32,4
23.424706,78,-42,-10,-4,-3,-1,0,-4,4
23.439177,0,21,-2,-4,1,-1,0,-5,4
23.439190,17,-26,9,13,3,5,10,52,4
23.447821,-126,-71,-1,0,1,0,1,-70,4
23.447827,-95,-77,-6,-3,-2,-2,-6,39,4
23.461214,-7,-4,-44,-12,-2,-2,1,-40,4
23.462688,-78,79,32,-4,-2,-3,-4,26,4
23.462697,-38,1,-6,3,1,0,1,-40,4
23.462699,13,66,3,0,0,-1,-2,-4,4
23.483602,-29,1,8,3,2,6,14,32,4
23.483643,62,31,-12,-2,1,-1,-3,-13,4
23.486424,-3,-3,-9,-4,-3,3,4,27,4
23.486431,2,30,2,-2,-1,-2,0,-5,4
23.497314,6,12,7,7,3,3,2,-14,4
23.497345,54,-28,-8,-13,-4,-7,-13,-44,4
23.507067,63,40,2,6,0,-1,-1,20,4
23.507085,-50,28,-20,-1,-1,3,4,-17,4
23.520758,127,82,22,2,2,-2,-2,59,4
23.520782,-77,-128,-35,-11,-7,-3,0,0,4
23.522222,6,18,14,-3,4,2,1,9,4
23.522236,18,78,44,8,4,5,2,8,4
23.543176,-21,4,-41,3,-5,-6,-13,-43,4
23.543201,99,-46,-15,-3,-6,-5,-10,11,4
23.545469,58,-30,1,-4,-1,-3,-5,36,4
23.545473,88,47,-4,-3,1,0,-1,-23,4
23.557144,-34,-43,-5,6,0,3,7,26,4
23.557222,63,68,12,5,1,3,5,11,4
23.566961,-12,-15,-4,1,-1,-4,-10,-39,4
23.566968,-40,-108,-42,-12,-7,-7,-8,29,4
23.580913,12,16,24,-3,-1,-1,-5,-53,4
23.580930,-36,13,10,6,2,3,4,10,4
23.582391,-1,17,-3,-4,-2,-5,-8,-14,4
23.582416,79,19,10,2,1,-1,3,33,4
23.603240,121,-38,9,-7,-4,-2,4,22,4
23.603266,-45,-31,6,3,1,2,0,-20,4
23.604737,18,23,22,9,1,3,3,27,4
23.604770,-7,65,21,2,5,2,2,-36,4
23.617310,-25,-128,-58,-9,-4,-5,-8,22,4
23.617353,49,15,-13,-15,-1,-3,-8,-59,4
23.626604,-35,14,2,8,1,1,8,27,4
23.626609,61,19,16,-3,-3,-1,-8,-82,4
23.641307,-24,-13,19,-4,-2,-2,-1,3,4
23.641312,-12,-6,-10,1,-2,-2,-1,14,4
23.642103,10,62,-24,-9,-1,0,2,17,4
23.642116,-118,-103,-11,4,-1,0,0,-2,4
23.663324,68,-38,-22,-15,-8,-7,-3,21,4
23.663351,-80,-15,-8,2,-1,-3,-6,-5,4
23.665751,-21,-21,9,-7,-3,-1,-5,-11,4
23.665758,-12,-128,-30,-13,-6,-3,-1,18,4
23.677215,8,25,28,6,6,1,2,1,4
23.677238,-29,-33,-3,1,2,1,7,20,4
23.686929,4,70,27,7,1,0,1,-2,4
23.686938,4,-3,-1,3,0,-1,-2,-4,4
23.702797,-3,15,5,2,3,1,2,3,4
23.702804,15,-34,5,2,-1,0,2,50,4
23.702806,-87,35,28,10,3,-4,-14,-88,4
23.702808,-36,-79,-36,-22,-9,-5,-5,5,4
23.723588,-28,-76,-21,-6,-5,-2,-3,-47,4
23.723605,-54,21,-2,-5,-1,-5,-6,6,4
23.724852,53,-94,-7,4,1,3,8,20,4
23.724858,35,99,1,-2,-3,-2,-3,14,4
23.736856,-54,42,12,4,0,1,-1,-7,4
23.736881,11,16,15,8,2,2,-1,-25,4
23.748788,1,7,-6,-8,-6,-1,1,21,4
23.748797,23,-3,2,4,0,-1,3,5,4
23.761390,14,105,21,27,10,5,3,57,4
23.761419,62,-14,-17,-11,-6,-14,-25,-94,4
23.764941,-8,74,-15,-10,-3,1,7,51,4
23.764951,-45,54,23,9,4,4,9,-11,4
23.783289,-26,-53,-60,-36,-12,-9,-12,-2,4
23.783306,-41,44,25,9,5,5,9,16,4
23.785042,0,17,-10,3,0,-2,-2,-8,4
23.785071,34,-14,-1,-2,0,-1,-2,7,4
23.806064,-23,121,37,11,4,4,4,2,4
23.806093,28,15,-20,0,-1,1,1,6,4
23.808207,79,-3,1,-6,-1,-2,0,18,4
23.808213,-1,-4,10,-1,-3,-2,-6,1,4
23.820849,41,24,3,-2,-1,-3,-1,8,4
23.820872,21,-112,-7,0,-3,-1,0,-12,4
23.823295,-42,-47,3,4,4,6,9,12,4
23.823299,59,127,51,16,6,0,-4,-3,4
23.846466,-128,-128,-54,-18,-7,-3,-3,-17,4
23.846489,46,6,-2,-7,-6,-6,-4,17,4
23.846494,36,57,6,4,0,-1,-1,-12,4
23.846498,-114,12,8,10,4,1,0,2,4
23.865768,127,127,51,1,4,5,9,-34,4
23.865797,-68,-15,-43,-7,-5,0,3,10,4
23.868933,-47,58,12,-3,2,-2,-5,-17,4
23.868940,115,-23,-27,-9,-1,0,2,35,4
23.880975,-39,-14,30,13,1,0,-2,-36,4
23.880995,-66,50,-6,-3,-1,2,-3,20,4
23.882908,3,-23,-21,-7,-6,-3,0,2,4
23.882914,-49,-47,16,1,0,1,-2,-8,4
23.903401,23,57,29,8,1,0,0,2,4
23.903426,55,-67,-16,-13,-6,-7,-9,-10,4
23.905138,64,-92,-38,-7,-6,-2,0,32,4
23.905146,46,84,27,1,2,-1,-1,-18,4
23.925974,-57,8,-15,-1,-1,-1,-3,29,4
23.925995,-63,46,5,2,-1,-1,2,-2,4
23.928639,95,104,44,13,4,3,3,14,4
23.928644,-72,-124,-38,-10,-3,-3,-1,-11,4
23.940122,-16,-52,-19,-4,-3,-2,-2,-3,4
23.940141,90,122,41,12,6,8,13,3,4
23.947249,-48,-50,-4,1,-1,-1,-8,-18,4
23.947272,108,52,-21,-9,-9,-8,-6,-9,4
23.963618,88,81,-4,-1,3,2,5,-2,4
23.963657,41,100,42,9,2,1,1,16,4
23.965709,78,62,-1,-3,-4,-4,-4,2,4
23.965715,29,-87,-34,-9,-8,-10,-16,-42,4
23.985760,-15,6,-20,-6,-4,-3,1,8,4
23.985772,127,-25,-13,1,-1,-3,-4,-6,4
23.987298,-95,-99,-28,-10,-5,-3,-6,-29,4
23.987313,-59,2,15,10,3,2,-2,17,4
24.000364,-18,-59,13,3,0,-2,-7,2,4
24.000490,36,25,10,4,1,1,-1,-14,4
24.007391,-57,-17,-22,-6,-4,-6,-9,-9,4
24.007415,-4,13,-20,-12,-1,1,8,-1,4
24.023606,41,40,18,14,1,1,-1,7,4
24.023638,-44,35,5,7,2,3,6,44,4
24.026138,-30,-59,-7,-5,-4,-1,-4,-35,4
24.026145,44,39,-1,-4,-2,1,3,2,4
24.048306,106,-31,-14,-11,-2,-7,-10,-2,4
24.048312,-82,-100,-16,-1,0,2,6,-10,4
24.048315,76,113,48,16,6,3,4,28,4
24.048316,-35,-112,-45,-13,-9,-8,-11,-47,4
24.059730,30,68,-4,-5,-2,0,4,6,4
24.059818,-53,112,45,19,6,4,3,0,4
24.067244,5,-128,-25,-3,-3,-4,-1,8,4
24.068377,111,31,-5,-1,1,0,5,86,4
24.082656,-89,39,14,3,2,0,-6,-53,4
24.082683,-46,-2,-9,-4,0,0,2,-3,4
24.084651,95,-19,12,9,2,3,9,28,4
24.084658,63,-9,8,4,-2,-4,-8,10,4
24.105618,27,-9,-4,-1,-1,1,4,37,4
24.108195,90,-41,-9,-5,-2,0,-6,-62,4
24.113418,-54,-59,-8,-8,-4,-4,-3,-4,4
24.113444,-16,36,-7,-6,0,1,4,5,4
24.119410,-73,-23,3,4,-1,-1,-1,-11,4
24.119436,20,-88,-25,-9,-6,-5,-2,24,4
24.127209,-26,6,-6,-7,2,-2,0,19,4
24.127223,-128,6,22,5,4,-3,-6,-25,4
24.142494,11,78,8,-2,-2,2,5,3,4
24.142518,-10,20,-5,-7,-4,-2,-4,30,4
24.143937,24,31,17,2,3,2,1,-16,4
24.143946,-95,-34,-11,-4,-1,4,5,-2,4
24.165031,-19,-124,-16,3,-4,-4,-8,-19,4
24.165055,-75,-128,-25,-11,-5,-7,-6,-25,4
24.166545,61,127,6,1,0,1,1,8,4
24.166560,42,94,12,1,2,0,-3,-4,4
24.187488,31,-50,-15,-8,-5,-4,1,-19,4
24.187495,-91,-34,-4,1,-2,-2,-3,1,4
24.188295,-40,-18,-5,-2,-2,0,-1,-4,4
24.188309,-63,-61,-4,1,1,-1,3,-17,4
24.202733,-6,108,18,4,2,-2,-6,-8,4
24.202750,126,90,2,-1,-5,-4,-6,44,4
24.203105,-79,-1,-6,-1,-2,0,2,-44,4
24.204108,84,-34,-19,3,0,4,12,34,4
24.225040,13,-2,5,-1,-1,-1,-3,-2,4
24.225061,73,-83,-14,-14,-2,-3,-4,-10,4
24.226146,36,11,3,2,-4,0,0,28,4
24.226151,70,28,-4,-1,0,-1,-3,-34,4
24.239527,-9,-41,-2,0,2,4,11,36,4
24.239543,-98,97,37,17,7,5,9,-2,4
24.248664,-69,-126,-71,-23,-16,-16,-22,-54,4
24.248671,37,63,22,-2,5,2,-2,-14,4
24.265158,2,-56,-12,-10,-2,0,3,23,4
24.265165,-4,99,20,4,2,3,5,-1,4
24.265167,43,36,12,9,2,2,5,13,4
24.265169,15,-11,13,-2,-3,-2,1,11,4
24.285161,-73,-87,-23,-1,-3,-3,-7,-7,4
24.285191,78,-8,-6,-8,2,0,-2,-14,4
24.285776,0,88,17,13,3,1,2,9,4
24.285873,66,56,16,1,-2,-4,-3,11,4
24.299640,112,13,-14,-19,-7,-4,-5,22,4
24.299678,24,17,11,23,4,0,-4,-19,4
24.307352,-28,-41,-35,-9,-2,-2,-1,9,4
24.307377,-35,65,15,-3,2,1,4,12,4
24.322879,-40,27,20,8,1,1,-1,-44,4
24.322905,51,-20,-20,-12,-2,-1,2,27,4
24.325077,71,87,39,3,4,1,-1,5,4
24.325084,-111,-19,-4,15,3,4,2,-11,4
24.345151,-14,-63,-34,-24,-11,-10,-8,6,4
24.345173,-75,-43,-50,-18,-10,-6,-11,-38,4
24.345934,31,102,23,5,5,6,9,11,4
24.347537,-24,-118,-15,-6,-5,-1,0,17,4
24.367642,27,127,28,19,9,8,8,-4,4
24.367660,-43,12,7,-4,-1,-1,-1,-1,4
24.368928,9,-33,-6,-7,-3,-3,-4,17,4
24.368932,-1,7,14,3,0,0,2,-14,4
24.382898,-30,-41,2,-1,-2,0,-2,10,4
24.384972,34,-8,10,2,-1,0,1,-1,4
24.384979,-26,4,-1,-1,-1,2,-2,-14,4
24.384981,-22,-96,-63,-20,-9,-9,-9,-5,4
24.404973,101,98,9,3,2,1,0,1,4
24.405017,-95,13,-12,-10,-3,-4,-2,-3,4
24.405760,91,126,27,11,4,3,8,7,4
24.405786,77,-12,14,4,1,2,2,8,4
24.419429,112,-128,-32,-7,-5,-3,-3,-29,4
24.419447,92,103,32,-6,0,-1,3,18,4
24.427004,71,-111,0,5,0,0,-3,-30,4
24.427023,-49,54,24,14,4,3,5,49,4
24.443187,-45,-52,-21,-19,-4,-8,-11,-27,4
24.443216,-14,1,10,14,3,4,4,-3,4
24.443222,-58,81,30,3,0,-2,-2,-1,4
24.443227,-28,-51,8,6,0,3,2,-15,4
24.466625,-55,-80,-19,-6,-6,-5,0,56,4
24.466644,-23,60,-6,-4,-4,-4,-11,-34,4
24.466647,-103,-128,-17,-10,-5,-6,-9,-3,4
24.466650,-18,6,-15,-8,-5,-5,-3,-25,4
24.479818,53,74,50,20,7,6,6,13,4
24.479844,-31,8,-3,-2,0,-4,-6,6,4
24.487002,-1,54,-7,-5,-5,-3,0,9,4
24.487025,-9,7,11,-1,2,0,-3,-11,4
24.502609,-52,-43,-15,-1,-1,0,-2,-28,4
24.502635,-1,-89,-1,7,1,3,7,6,4
24.504565,102,-21,-17,-5,-2,-2,-2,-10,4
24.504574,11,28,-19,-10,1,-2,-2,45,4
24.525078,-73,48,9,5,1,-1,0,-40,4
24.526257,-35,-86,-18,-14,-4,-5,-8,-21,4
24.526269,-70,18,-5,1,-1,-2,3,8,4
24.526273,110,65,16,4,0,2,2,28,4
24.539507,87,26,1,7,3,3,5,19,4
24.539532,12,-17,15,-1,0,0,1,29,4
24.546982,-42,34,1,-8,-7,-7,-10,-30,4
24.547002,-18,46,2,-2,-4,-2,-3,0,4
24.563829,-18,-10,19,-2,3,0,3,29,4
24.563995,-23,-12,-15,-6,-3,-3,-3,-34,4
24.564002,82,35,-15,-6,-1,-2,0,-18,4
24.564007,-75,-6,-19,-6,-7,-8,-13,-12,4
24.585163,-76,4,10,4,-1,1,0,14,4
24.585183,127,21,-1,-1,1,0,3,23,4
24.586658,-109,-34,15,9,-1,1,0,-63,4
24.586664,53,-58,0,-13,-1,-3,-5,-31,4
24.599652,62,-76,-22,-6,-3,-1,-2,-6,4
24.599680,41,64,5,1,0,2,6,43,4
24.607166,66,66,8,0,3,1,-4,-57,4
24.607192,97,29,-2,0,-4,-2,5,36,4
24.622633,-96,-72,4,0,-1,-3,-2,-15,4
24.622657,0,5,-15,6,0,-2,0,-15,4
24.624850,-5,-31,-10,-4,-1,-1,2,52,4
24.624856,-7,-3,11,2,-3,-2,-4,-27,4
24.645165,87,46,26,2,-1,-1,0,15,4
24.645179,-13,-32,-8,6,2,1,1,-13,4
24.647939,50,-101,-19,-5,-2,-1,3,46,4
24.647947,-24,-7,15,1,1,-3,-7,-34,4
24.659480,-27,116,11,6,2,1,2,-1,4
24.659509,-26,-66,-21,-6,-4,-1,-1,-5,4
24.667231,-78,-105,-18,-1,-2,0,-2,-3,4
24.667255,-63,11,9,4,3,4,8,-17,4
24.682985,68,127,7,-6,-6,-7,-9,-15,4
24.683034,-28,4,8,-1,-2,-2,-2,18,4
24.685407,90,43,16,7,6,6,10,32,4
24.685413,-61,-89,-23,-4,-2,1,1,2,4
24.705133,-128,-61,-33,-8,-4,-3,-3,26,4
24.705150,84,7,23,1,1,-1,-4,-56,4
24.705768,36,33,7,2,2,2,-2,26,4
24.705782,73,81,15,12,3,0,2,-7,4
24.727504,-14,-34,-3,0,2,4,6,10,4
24.727528,-128,-72,-38,-17,-12,-4,-3,0,4
24.728475,65,123,20,12,8,3,7,37,4
24.728479,107,7,-18,-7,-7,-5,-6,-17,4
24.742643,52,-29,-13,-2,0,1,2,-11,4
24.742667,39,127,37,11,3,-2,-6,33,4
24.743629,-81,-89,-27,-11,-5,-2,-3,-17,4
24.743633,-9,92,-4,-6,0,0,2,15,4
24.766102,-35,44,10,4,-1,-2,-2,-9,4
24.766109,64,-19,-4,-1,-1,2,1,-12,4
24.766110,-23,-26,-9,-5,-3,-4,-3,27,4
24.766112,-40,6,10,9,2,4,4,3,4
24.787543,127,-51,-16,-8,-9,-9,-15,-44,4
24.787566,44,6,12,-1,2,1,4,40,4
24.789587,25,99,32,10,3,2,5,27,4
24.789596,-69,-97,0,-3,-2,-4,-4,-27,4
24.802431,-61,15,-22,-7,-5,-4,-8,-36,4
24.802455,-39,13,-4,2,-2,-2,1,8,4
24.812991,15,-10,3,-4,-2,-3,-1,-4,4
24.813008,-41,-43,12,0,3,3,8,15,4
24.825605,98,72,61,30,10,5,4,43,4
24.825634,15,-111,-49,-34,-14,-16,-17,-29,4
24.828124,26,99,23,12,5,5,-2,-46,4
24.828130,-75,-117,-60,-21,-11,-11,-9,20,4
24.847638,-46,30,-11,-6,2,3,8,30,4
24.847656,22,58,9,8,4,5,2,-39,4
24.848316,-4,28,9,0,-1,-1,0,6,4
24.848430,127,95,16,13,0,0,-2,0,4
24.862952,-83,-65,-13,-13,1,-2,-1,-48,4
24.862991,50,45,36,18,7,7,9,15,4
24.865410,-25,-128,-51,-24,-14,-14,-19,-36,4
24.865417,88,-5,-2,-4,0,2,-1,-9,4
24.885099,3,57,-13,-9,-4,-1,1,38,4
24.885123,87,-4,4,1,1,1,0,-23,4
24.886471,-6,31,-3,-1,0,-1,3,18,4
24.886480,-12,39,17,2,0,-1,-5,-14,4
24.907917,-49,-84,-39,1,-2,-2,3,46,4
24.907953,-71,90,22,1,-3,-5,-7,-36,4
24.908609,-16,-114,-32,-12,-5,-3,-2,22,4
24.908662,-12,112,2,2,-1,1,1,11,4
24.922764,17,33,9,3,2,1,-1,-26,4
24.922794,6,-5,-6,-7,-5,-5,-10,11,4
24.925311,-91,-16,20,4,2,1,-3,-78,4
24.925315,-43,-91,-4,-1,1,0,2,-18,4
24.945415,21,48,18,0,2,2,1,-8,4
24.945442,-58,-120,-34,-1,-2,-2,0,6,4
24.948674,14,24,11,1,-1,-3,-6,-17,4
24.948687,34,12,11,0,0,0,2,11,4
24.968050,4,-26,-5,-3,-4,-5,-6,-21,4
24.968102,44,79,28,10,8,7,13,17,4
24.968322,89,38,-9,-12,-8,-9,-10,37,4
24.968336,-20,-86,-8,-1,-3,-1,-2,8,4
24.982830,-21,24,0,-1,-1,2,2,17,4
24.982874,-66,-65,-6,3,2,4,3,-16,4
24.985616,19,29,7,7,4,3,3,11,4
24.985623,53,-81,-17,-9,-4,-7,-7,6,4
25.005357,14,70,9,-1,-1,-1,-2,4,4
25.005381,-7,-25,-8,-2,0,-2,-5,-16,4
25.007133,44,40,8,1,-2,3,7,50,4
25.007137,-62,-52,-18,-4,-3,-2,-4,-27,4
25.027458,-4,-18,5,5,2,3,4,26,4
25.027465,87,-65,-20,-10,-5,-7,-7,-46,4
25.028085,-111,-16,5,1,-2,-1,-5,-18,4
25.028091,16,-3,6,2,-1,-1,-3,-7,4
25.042837,23,10,-4,-4,-5,-2,-1,-3,4
25.042844,2,71,27,7,2,5,7,26,4
25.043177,64,48,5,5,5,2,2,-11,4
25.043184,-85,-57,-28,-5,-5,-6,-14,-14,4
27.068501,0,0,0,-2,-1,0,-1,-2,0
27.068846,-1,-1,-1,0,-1,-1,0,0,0
27.077298,-1,-3,-1,1,0,-3,-2,0,0
27.077302,0,0,0,-1,-1,0,0,2,0
27.090879,0,1,-1,-1,-1,-2,-2,-1,0
27.092773,-1,-1,-1,-1,-1,0,-2,-2,0
27.092779,-2,-4,0,-2,-1,-4,-2,-3,0
27.092781,0,-2,-1,-1,-2,-1,-1,-2,0
27.113487,0,0,-2,2,0,-1,-1,-1,0
27.113514,0,-1,-3,-3,-2,0,0,-2,0
27.115386,-1,-1,-1,-1,-2,0,0,-1,0
27.115392,0,1,0,0,-2,0,-2,-1,0
27.126827,-1,0,0,-2,1,-1,-1,-1,0
27.126849,-1,-1,1,1,-1,0,-1,-1,0
27.136657,-3,-3,-3,-1,-3,-2,-2,-2,0
27.136663,-2,1,0,-3,0,-2,0,0,0
27.151079,-1,0,-1,2,-1,-2,-2,-2,0
27.151107,0,0,0,-1,1,-2,-1,0,0
27.152525,0,-2,-1,1,0,-1,-1,2,0
27.152544,-1,0,-1,0,-1,-2,-1,-1,0
27.173366,-1,-2,-1,-3,-2,-1,0,-1,0
27.173388,0,-1,0,-2,-3,-2,1,-1,0
27.175553,0,-1,-1,-1,-1,-1,-1,-1,0
27.175557,0,0,-2,-2,0,0,-2,-2,0
27.186954,-2,-4,-1,-1,0,-2,-3,-3,0
27.186976,-2,-1,-1,-2,-2,-1,-2,-1,0
27.197147,-4,-1,0,1,0,-1,-1,-3,0
27.197160,0,-2,-4,-1,0,0,1,0,0
27.210592,0,-1,-1,0,-1,-1,-1,-1,0
27.210615,-2,3,1,-2,0,-2,0,-4,0
27.212138,-1,-6,-6,-2,-1,-1,0,-1,0
27.212177,-1,-2,-2,0,-1,0,-1,0,0
27.233536,-3,0,0,0,1,-1,0,-1,0
27.233570,-2,-1,-1,0,-2,1,-1,0,0
27.235381,-2,1,0,-2,-2,-1,0,-4,0
27.235385,-2,-1,-1,-2,0,0,-1,-2,0
27.247133,0,1,0,-2,-2,-2,-1,1,0
27.247155,0,2,1,0,0,-1,0,2,0
27.256524,-2,0,0,-2,1,0,-1,-1,0
27.256529,1,0,0,-1,-1,-1,-1,1,0
27.270747,-3,-1,-4,0,-1,-1,-2,-2,0
27.270771,-1,0,-3,0,0,-2,-1,0,0
27.272992,1,-1,-2,-2,0,0,-1,0,0
27.272998,-2,0,1,1,-1,-1,1,1,0
27.293791,0,-1,-1,-1,-1,0,-1,-1,0
27.293813,-1,-2,0,-1,-3,0,-1,-2,0
27.296198,2,-1,-3,-1,-1,0,-2,1,0
27.296204,-3,-2,-2,-1,0,0,-2,-3,0
27.307075,0,-2,-2,0,-2,-3,-1,-1,0
27.307092,-3,-4,-3,-2,0,-1,-1,-2,0
27.322087,1,2,0,-1,-3,-2,0,0,0
27.322118,-2,1,0,-3,-2,-2,1,-3,0
27.330878,4,2,-1,0,1,0,-2,2,0
27.330897,-3,-4,-4,1,0,1,-1,0,0
27.332839,1,5,3,0,0,-1,0,2,0
27.332852,-1,-4,-2,0,-1,-2,-2,-2,0
27.353299,-3,-2,-1,-1,0,1,-1,-2,0
27.353324,0,-1,0,-1,-1,-1,-2,-3,0
27.354800,0,-3,-4,-1,0,-1,-2,0,0
27.354822,0,1,-1,0,0,1,-2,1,0
27.367216,-2,-4,-3,-2,-1,-1,-1,-2,0
27.367250,1,-3,-4,-2,-2,0,1,1,0
27.376101,-2,-2,0,0,-2,-2,-1,-1,0
27.376105,-1,0,-1,-2,-2,-3,-1,-1,0
27.390850,-3,0,1,0,1,-1,-2,-1,0
27.390867,0,2,1,-3,1,0,-1,0,0
27.392289,0,0,1,0,-1,-1,0,-1,0
27.392293,0,-2,0,0,-1,-1,-1,-1,0
27.414392,0,-1,-4,-2,0,-1,-1,2,0
27.414398,-4,-1,0,1,-1,-3,-2,-4,0
27.414773,-1,-3,-4,-1,-2,0,-2,-1,0
27.414779,-1,0,0,-1,-1,-1,-2,-2,0
27.427241,-1,0,1,-4,-1,-1,0,-2,0
27.427270,0,0,0,-2,-3,-1,-1,-2,0
27.435837,1,-1,-2,-2,1,1,0,-1,0
27.435855,2,1,-2,-2,-3,-2,0,0,0
27.451013,-2,1,-2,0,0,0,-1,-1,0
27.451034,-1,-3,-2,1,-1,-2,0,0,0
27.452312,-2,-5,0,-1,-2,-1,-1,-1,0
27.452362,-1,-2,-2,-1,0,0,1,-1,0
27.473244,-1,0,0,0,-4,-1,-1,-1,0
27.473261,0,3,2,-2,-2,0,-2,0,0
27.474803,-3,3,0,-1,0,-1,-1,-3,0
27.474817,0,-4,-4,0,-1,1,-1,-1,0
27.486900,-2,-3,-1,0,0,-3,-1,-1,0
27.486924,1,0,-2,-1,0,0,0,0,0
27.498514,-1,1,2,-1,0,-1,-2,1,0
27.498520,-2,-1,0,-1,0,-1,-1,-3,0
27.510005,-2,-1,0,-1,-1,0,-1,0,0
27.510019,2,-2,-4,-1,-2,0,0,-1,0
27.517150,0,-1,0,-2,-1,-1,-1,0,0
27.517169,-2,-1,-1,-1,0,-1,-1,-1,0
27.533559,3,0,1,0,0,1,0,2,0
27.533602,-4,-2,-1,-2,0,-2,-2,-3,0
27.535495,-2,-2,-3,-2,-1,-2,-2,-3,0
27.535500,-3,-3,-3,-3,-2,0,0,-2,0
27.555782,0,0,-1,-2,-2,-2,1,-1,0
27.555799,1,2,2,0,0,-2,-2,1,0
27.557224,-3,-1,-2,-1,-2,-1,-1,-2,0
27.557237,-3,-2,-1,-2,-1,1,-2,-2,0
27.570684,-3,0,-2,-2,-1,0,-1,-1,0
27.570753,0,-3,-3,0,-1,0,1,1,0
27.572177,-1,-1,0,-2,1,-1,1,-1,0
27.572184,1,-1,-2,-1,0,-1,-1,-2,0
27.593596,-2,-2,-1,-3,-2,-2,0,-2,0
27.593714,-1,-1,0,0,0,0,0,1,0
27.596320,-2,-2,-3,-1,-2,0,-1,-2,0
27.596326,-1,-2,0,0,-3,-2,-1,-1,0
27.616091,-1,0,-1,0,-1,1,-1,0,0
27.616097,-5,-4,-3,-5,2,-2,-2,-5,0
27.617369,1,1,0,0,0,-1,1,0,0
27.617386,1,1,1,-2,-1,-2,-1,0,0
27.632128,-2,-2,0,-1,-3,-1,0,-3,0
27.632135,0,-1,1,-1,-2,-2,0,0,0
27.632341,-2,1,1,1,1,1,-2,-1,0
27.632347,0,0,-1,0,-1,-1,0,0,0
27.653122,-1,-2,-1,-1,-1,-1,-2,-1,0
27.653145,-1,-1,0,0,-2,-1,-1,-2,0
27.654754,0,-1,1,-1,-2,0,-1,0,0
27.654773,-1,0,0,0,-1,-2,1,0,0
27.678642,2,1,-1,-1,-1,-2,-1,0,0
27.678648,-3,-1,-1,-1,-1,-1,-2,-1,0
27.678650,0,-5,-2,-1,-1,0,-1,-1,0
27.678652,-1,-3,-2,0,1,0,-1,0,0
27.690212,-3,-1,2,-3,-1,-1,0,-5,0
27.690236,0,2,1,0,-1,-1,-2,0,0
27.697317,-3,-2,-4,-3,1,-2,-2,-4,0
27.697382,0,2,0,-2,-2,0,-1,2,0
27.713622,-1,-3,-3,-1,-2,-2,-1,-3,0
27.713660,-2,-3,-6,-1,-1,0,-1,-1,0
27.716109,-2,-2,2,2,0,-2,-2,-1,0
27.716117,-3,-3,0,0,-2,0,-1,-2,0
27.735761,-2,-2,-1,-4,-2,0,-2,1,0
27.735785,-2,0,0,-3,-1,-1,0,0,0
27.737218,-1,2,-1,0,-1,-1,0,1,0
27.737233,-1,1,1,0,-2,-1,-1,0,0
27.750249,0,0,1,1,-2,-2,-3,1,0
27.750293,-1,-2,-2,0,-1,-1,-1,-1,0
27.756995,-2,0,-2,-3,-2,-1,-1,0,0
27.757017,-3,1,0,-1,0,1,-3,0,0
27.773273,-3,-3,-1,0,1,1,-1,0,0
27.773284,-1,-2,-1,-2,-1,-1,-1,-3,0
27.774969,0,0,-1,-1,-1,1,-2,-2,0
27.774988,-2,-3,-3,-1,-1,-1,-2,-1,0
27.796467,1,-1,-2,1,0,-1,0,0,0
27.798967,-1,1,1,0,-1,-2,-1,-2,0
27.798974,0,-1,0,-2,-3,-1,-1,0,0
27.798976,2,0,-2,-1,-1,0,-2,0,0
27.809980,-6,-1,-2,-2,0,-2,-3,-6,0
27.810003,1,-2,-2,1,-1,0,2,1,0
27.817259,0,-1,-1,0,-1,-1,0,-2,0
27.817290,-2,0,-1,-1,1,-2,-1,-2,0
27.835171,0,1,-1,0,-2,0,-1,0,0
27.835178,-1,-1,1,-1,-1,-1,-1,0,0
27.835180,-1,2,0,0,-1,0,-1,0,0
27.835182,0,-2,-2,-2,-2,-1,-1,0,0
27.855900,-2,1,0,-2,-1,-1,-1,-1,0
27.855922,-1,0,0,-1,-1,0,-2,-1,0
27.857965,0,-3,-3,-1,0,-2,0,0,0
27.857974,-3,-2,-2,-2,-1,-2,-2,-3,0
27.869822,0,1,3,-1,0,-1,0,-1,0
27.869846,-2,-1,-2,-1,-1,-1,-2,-2,0
27.879770,-1,0,0,-1,-3,0,0,-1,0
27.879788,-1,0,0,-1,0,-1,0,-2,0
27.893724,-1,-2,-3,2,-1,-1,-1,-1,0
27.893754,-3,0,3,-1,-2,1,-1,0,0
27.895600,-4,-2,0,-1,-1,-1,-1,-2,0
27.895610,-2,2,-1,-2,-1,-1,-2,-1,0
27.915832,-1,-1,-1,-2,-1,0,0,0,0
27.915870,3,0,-2,-1,0,-1,-1,-2,0
27.918284,0,-2,-1,0,0,0,0,0,0
27.918288,-2,-3,-3,-1,-1,-1,-2,-3,0
27.934714,-1,1,0,0,-1,-1,0,1,0
27.934732,0,0,0,-3,-2,-1,-1,-1,0
27.936947,-3,-2,0,-1,0,-2,-2,-2,0
27.936975,1,-3,2,-1,-2,-1,0,0,0
27.953321,1,2,-1,-2,-2,1,-3,-3,0
27.953341,-1,-5,-2,0,-2,0,0,0,0
27.954807,-2,0,-1,-1,-1,-1,-1,1,0
27.954848,-1,0,1,-1,-1,0,-1,-1,0
27.975762,-1,-3,-3,-2,0,-2,-1,0,0
27.975787,-2,-2,-2,3,-6,-1,-2,-2,0
27.977245,-1,-2,-1,-5,3,-1,-1,-1,0
27.977265,1,2,2,-1,1,0,0,2,0
27.990071,-2,-6,-5,0,0,-1,-2,-2,0
27.990094,-1,1,0,-3,-1,-2,-1,-1,0
27.997110,0,-1,0,-1,-2,-2,0,-1,0
27.997137,-2,-1,-2,-2,-1,1,-1,-1,0
28.013340,1,1,1,-1,0,-1,0,0,0
28.013367,-1,-4,-3,-1,0,-1,0,0,0
28.015028,-1,2,2,1,-2,-1,-2,-2,0
28.015035,-1,-4,-4,0,0,-2,0,-1,0
28.035999,-1,2,-2,0,-2,-2,-1,-1,0
28.036006,-3,-6,-2,-3,0,0,0,1,0
28.037285,0,1,-2,-1,-2,0,-1,1,0
28.037304,-5,-5,-1,0,-1,-2,0,-5,0
28.049701,0,-1,-1,-3,-1,-1,0,0,0
28.049741,-2,1,1,0,1,-1,-1,-2,0
28.058984,1,0,-1,0,-1,1,-1,0,0
28.058993,-1,2,1,-1,-2,-1,-1,-1,0
28.073420,-2,-1,0,-1,-1,-1,-1,1,0
28.073520,-1,-3,-3,-3,-1,-2,-1,-3,0
28.075633,-1,-2,-1,-1,0,0,1,0,0
28.075640,-1,1,0,-1,0,-1,-2,-4,0
28.095668,-1,-4,-6,0,-2,-1,1,1,0
28.095686,-2,-2,-2,0,0,2,-1,-1,0
28.097477,-1,1,1,-1,-2,-2,-2,-2,0
28.097521,0,-1,-3,1,-1,1,1,-2,0
28.109281,2,1,3,-2,0,-1,-1,-1,0
28.110409,-1,0,-4,-1,-2,-1,-1,-1,0
28.118762,-2,-3,-2,-1,-1,0,-2,-1,0
28.118767,1,-1,1,-4,-1,0,-3,-1,0
28.133242,0,-1,-1,-1,-1,0,-1,2,0
28.133260,-3,1,-3,0,1,-2,-1,-4,0
28.135151,-1,-5,-5,-2,1,-1,-1,-2,0
28.135196,1,-1,-1,-1,0,0,0,2,0
28.155925,-3,-1,0,-1,-3,-1,-1,-2,0
28.156004,1,1,1,0,-1,0,-1,1,0
28.158028,0,1,1,-1,-2,0,-1,0,0
28.158037,-1,-2,-6,-4,-3,0,0,1,0
28.169439,-2,-3,-3,0,-1,0,0,-2,0
28.169461,0,1,1,-1,0,-1,-1,1,0
28.180794,0,0,0,-1,-2,-1,0,-1,0
28.180802,-2,-3,-3,-1,-1,-1,-1,-2,0
28.195430,-3,-4,-6,-3,-1,-2,-1,-1,0
28.195443,-1,-2,-1,-1,-1,-3,-1,0,0
28.195446,0,-1,-2,-2,3,0,-1,1,0
28.195447,1,1,1,2,0,0,0,0,0
28.215958,-1,0,2,-2,-2,-1,-1,-3,0
28.215993,-1,0,0,-2,-3,1,-1,-1,0
28.218501,-1,-3,-4,-1,-3,-2,0,0,0
28.218509,-3,1,-1,-1,-1,-1,-1,-1,0
28.229622,0,-2,-2,0,-1,-1,-1,0,0
28.229644,0,-1,1,0,0,-2,0,0,0
28.239819,-1,-4,-3,-2,-2,0,-2,-1,0
28.239831,-2,-3,-2,-2,0,-2,1,-1,0
28.253349,-2,1,2,0,0,2,-2,-2,0
28.253371,3,0,1,-2,-1,-1,-2,1,0
28.254754,-3,-1,2,-2,0,-1,-2,-1,0
28.254821,-1,-1,-2,0,-1,-2,-1,0,0
28.275739,-1,-2,-1,-1,-2,-2,-3,-1,0
28.275760,0,2,-1,0,-2,0,1,1,0
28.277149,-4,-1,0,1,-2,-2,-1,-2,0
28.277162,-1,-3,0,-2,-1,-3,-2,-2,0
28.289447,-2,2,0,0,-1,-1,-1,-3,0
28.289465,-1,-2,-1,-1,-2,0,-3,-1,0
28.299014,-1,1,1,-2,-2,-1,0,-1,0
28.299021,0,-1,-1,0,-1,-2,0,0,0
28.313538,1,-1,1,-1,-2,-2,0,1,0
28.313569,-1,-4,-2,-1,-1,0,0,2,0
28.315421,0,-1,-3,-3,0,-1,-2,-3,0
28.315428,1,1,1,-1,-1,0,-2,-1,0
28.335712,-4,-2,-2,-3,-2,-3,0,-2,0
28.335720,1,1,0,-1,0,-2,-1,0,0
28.337100,-1,-1,1,-1,-2,-1,-1,-1,0
28.337106,1,-3,-2,2,-2,0,0,0,0
28.351108,-2,-1,0,-3,0,0,-1,-1,0
28.351119,-5,-1,1,-3,0,-3,0,-4,0
28.359884,1,0,-2,1,-2,-3,0,0,0
28.359889,-2,-2,-4,-1,1,-1,-2,0,0
28.373537,0,0,-1,0,-1,-2,2,0,0
28.373565,3,1,1,0,-1,-3,-2,-1,0
28.375648,-3,-1,-1,-1,-1,-2,-1,-2,0
28.375653,-3,-2,-1,-1,1,0,-1,-1,0
28.398048,1,-1,0,3,-1,-1,-1,0,0
28.398055,-1,-1,-3,-3,1,-2,-2,-2,0
28.398057,1,2,0,-2,-3,0,1,0,0
28.398059,-1,-1,0,-3,-3,-2,0,-3,0
28.409869,1,-1,-1,-1,1,0,-2,-1,0
28.409892,-4,0,-3,-2,-2,-1,0,-1,0
28.419466,-1,-2,-1,-1,0,0,-1,2,0
28.419476,0,0,0,-1,-1,-1,-2,-3,0
28.433629,-2,2,0,-2,-1,-1,-1,0,0
28.433654,-2,-2,-1,0,-1,0,0,-2,0
28.435658,-1,-3,-1,0,0,0,-1,-2,0
28.435663,1,5,2,-1,-1,-2,0,2,0
28.455891,-4,-6,-4,-3,1,-2,-1,-6,0
28.455914,-1,-1,3,-3,-1,-1,-1,0,0
28.457668,-1,0,-1,0,0,0,-1,0,0
28.457675,0,-2,0,-2,0,0,-2,1,0
28.469396,1,1,0,-2,1,-1,-1,0,0
28.469421,-2,-2,-2,0,-2,-2,-1,-1,0
28.479354,1,1,1,-1,-1,-1,-1,-1,0
28.479362,-2,1,-1,-2,-2,-2,-1,-3,0
28.493183,0,-5,-1,-1,0,-2,-2,0,0
28.493233,-3,-2,-3,-1,0,0,0,0,0
28.494681,0,-1,0,-2,-1,-1,-2,-1,0
28.496548,-1,1,-1,0,-1,0,-1,-1,0
28.515888,-1,-5,-4,-2,-2,-1,-2,-1,0
28.515915,1,0,-2,0,-1,1,0,-2,0
28.517677,-4,-3,-3,-1,0,-1,-2,-1,0
28.517685,-2,-2,-2,0,-2,-1,0,-1,0
28.538302,0,2,2,-1,-2,-1,-1,-1,0
28.538328,2,0,0,-2,-1,-1,-2,0,0
28.539839,0,-3,-4,-1,0,-1,0,-2,0
28.539864,-2,-3,-3,-3,-1,-2,-2,-1,0
28.553206,-1,-1,-3,-1,0,-2,1,0,0
28.553229,0,0,0,1,-1,-1,-1,-1,0
28.554774,0,0,-1,-1,-2,-1,0,0,0
28.554797,-1,-3,-2,-3,-2,-1,1,-2,0
28.575726,0,0,0,3,0,0,-1,1,0
28.575790,0,0,-3,-3,0,-1,-1,-2,0
28.577147,-4,-2,0,-1,-1,-2,-3,-3,0
28.577157,0,1,2,2,1,0,-1,2,0
28.598505,-4,-3,-3,-2,-2,-1,-3,-4,0
28.598512,-2,-4,-3,0,-2,-2,-1,-2,0
28.599917,1,2,1,-1,0,0,0,-1,0
28.599936,-3,1,0,0,-1,0,0,-1,0
28.615256,-1,-1,-1,-3,-1,0,-1,0,0
28.615268,1,-3,-6,0,0,0,-1,0,0
28.615271,1,-1,0,-2,-2,-1,-1,0,0
28.615273,-2,-2,-2,2,-2,-1,-1,0,0
28.635783,0,1,1,-1,-3,-1,0,1,0
28.635803,-5,-2,2,-3,0,-2,-1,-2,0
28.637254,-1,-2,-2,-2,-1,-2,-2,0,0
28.637267,-1,-2,-2,-4,-1,-1,-2,-1,0
28.658307,0,2,1,0,0,-1,-1,-2,0
28.658324,0,1,0,-1,-3,-1,-2,-1,0
28.659744,-1,0,-3,-1,-2,0,-1,0,0
28.659751,0,0,1,0,0,0,0,0,0
28.673135,0,0,-3,-1,-1,-1,-2,-1,0
28.673164,0,-2,0,-1,-1,-2,1,-1,0
28.679498,-2,-1,2,0,-1,0,-1,-3,0
28.679558,-2,-4,-3,0,-1,1,-2,0,0
28.695845,-3,-2,-3,-3,-3,1,-3,-2,0
28.696032,-3,1,0,3,-2,1,-2,-1,0
28.697515,1,-2,-2,-1,-2,-2,2,-1,0
28.697532,3,1,1,-1,0,-3,-1,0,0
28.718306,-2,0,1,-2,0,-1,0,-2,0
28.718330,-3,-7,-3,-1,1,-2,-2,-5,0
28.720242,-2,0,-5,1,0,-1,-1,0,0
28.720247,-1,0,0,-1,-3,-3,-1,-2,0
28.732703,2,1,-2,-2,-1,-2,-1,1,0
28.732743,-4,1,-2,-1,-1,-2,-2,-1,0
28.739477,-1,-2,-1,0,0,-1,0,0,0
28.739496,-3,-1,-2,-3,-1,-2,0,-3,0
28.756359,-2,-1,0,0,-1,-2,0,1,0
28.756365,0,-1,-1,-3,0,-2,0,1,0
28.757165,0,-1,-1,1,-1,0,0,-2,0
28.757172,-1,0,-3,0,-1,0,-1,-3,0
28.778378,-1,0,2,2,-2,0,0,-1,0
28.778400,0,0,-3,-3,0,1,-1,2,0
28.780826,-1,-1,-3,0,2,-2,-1,1,0
28.780833,-1,-1,1,1,-3,-2,-3,-2,0
28.792523,-3,-1,-2,-1,0,-1,-1,-4,0
28.792539,0,-1,0,0,-1,0,0,-2,0
28.799448,0,0,1,-3,0,-1,-2,-2,0
28.799469,-1,0,-1,-2,0,0,-1,0,0
28.816240,-1,-4,-5,0,-1,-1,-2,0,0
28.816309,-2,-3,-2,-1,-2,-1,0,-1,0
28.818678,0,1,-2,-3,-1,0,-3,0,0
28.818685,-3,-1,2,0,0,0,-2,-4,0
28.838285,-1,-3,-2,-1,0,0,-1,0,0
28.838300,1,1,-1,1,-1,-2,-1,0,0
28.839807,-2,-1,0,-2,0,-1,1,0,0
28.839813,-1,1,0,-2,-1,0,-2,1,0
28.852578,1,-1,-1,1,-1,-1,-1,0,0
28.852600,-1,-2,0,0,0,-1,-1,-3,0
28.859468,0,-1,0,0,-2,-1,-1,0,0
28.859484,0,-3,-2,-2,-1,-1,0,-1,0
28.875734,-2,0,1,-2,1,-3,-1,-1,0
28.875756,0,0,-1,-1,-1,-1,0,1,0
28.877179,-3,-2,-1,1,-1,-2,-1,-2,0
28.877192,-1,0,-1,-1,-2,-1,-2,-1,0
28.897255,1,-2,-2,-1,0,0,-1,0,0
28.897272,0,2,2,0,-1,1,1,0,0
28.907578,-4,-2,-4,-1,1,-2,-1,-3,0
28.907585,-2,-4,-1,-1,-2,-2,-1,-1,0
28.912571,1,-1,-1,-1,-2,-1,-2,-1,0
28.912598,-1,0,1,-1,-1,-1,-2,-2,0
28.919460,-1,-3,-5,-3,1,-1,-2,0,0
28.919480,1,2,-2,0,-2,-2,0,0,0
28.935838,-3,-2,1,2,-1,0,-1,-1,0
28.935857,0,-3,-1,0,0,-1,-1,-2,0
28.937286,-3,-4,-2,-1,-3,-1,-1,-2,0
28.937293,-1,-5,-5,-2,0,-1,-2,-2,0
28.958473,0,2,0,0,-1,-1,-2,-1,0
28.958478,2,1,0,-2,-2,-1,-1,0,0
28.959710,-2,1,-1,-1,-1,-1,-1,-1,0
28.959717,1,-2,-4,-2,0,0,1,1,0
28.974582,-3,-1,-1,-2,-2,0,-1,-3,0
28.974589,-2,-4,-2,-1,-2,0,-2,-2,0
28.979840,3,0,3,-2,-3,-1,-2,0,0
28.979867,-2,1,0,-2,-2,-2,-2,-3,0
28.995992,-2,-2,1,-2,-1,-1,-2,-1,0
28.996030,-3,-2,-5,0,-1,0,-1,-1,0
28.998925,-2,0,2,-1,0,-1,-1,2,0
28.998952,-1,-4,1,1,0,-1,-1,-4,0
29.025714,0,2,0,-2,1,-3,1,-2,0
29.025736,0,-1,-3,-2,0,-2,-1,0,0
29.027909,-2,-2,-1,-1,0,0,0,-1,0
29.027913,-1,-2,-2,1,-1,0,-2,0,0
29.032259,0,-3,-2,-3,-2,-1,0,-1,0
29.032301,-1,1,1,1,-1,-3,-2,-4,0
29.042655,2,1,-3,-1,0,0,-1,0,0
29.042663,-2,-5,-2,-1,-2,0,-1,-4,0
29.055817,-2,-2,-7,-2,0,-1,-2,0,0
29.055886,-3,1,2,0,-2,-2,-2,-3,0
29.057306,-2,0,-1,-1,1,-1,0,-1,0
29.057326,1,-1,1,-3,1,0,0,0,0
29.078590,0,0,0,-1,-2,-1,1,2,0
29.078715,-3,-3,-3,1,-3,-1,-1,-1,0
29.081816,-2,-2,0,-1,-2,0,-1,-2,0
29.081824,-2,1,-1,-1,1,-1,-1,-1,0
29.092150,-2,1,-1,-1,0,1,-2,0,0
29.092179,0,-1,-1,-3,-2,-1,-1,1,0
29.102472,0,-2,0,-2,-2,-2,0,0,0
29.102476,-2,0,0,1,-2,-2,0,1,0
29.115746,1,-2,0,-1,-1,-1,-1,0,0
29.115757,-2,0,1,-3,-1,0,-2,-1,0
29.117491,0,-3,-4,-1,-2,0,0,1,0
29.117532,-2,-2,-1,-1,1,-1,0,-2,0
29.138390,-2,-2,-2,0,-1,-1,0,-1,0
29.138474,0,1,-1,-1,-1,-2,0,2,0
29.140242,-5,-2,-2,0,-4,-2,-1,-1,0
29.140253,1,-1,-1,-3,-2,-1,-1,1,0
29.151906,-2,-5,-4,0,-2,-1,-2,-2,0
29.151931,-1,1,1,-1,1,0,0,0,0
29.163300,-1,-1,-2,0,0,1,-1,-4,0
29.163314,0,4,2,-2,0,0,0,0,0
29.178428,-1,-2,-1,-1,-3,-2,-1,-1,0
29.178435,-1,-4,-4,-1,1,-2,-1,0,0
29.178437,1,-1,-1,-2,0,-2,-1,-4,0
29.178439,-3,-2,-2,2,-1,-2,-1,-2,0
29.198317,0,1,-1,-1,-1,0,-1,-1,0
29.198343,0,0,-1,-1,0,0,-2,0,0
29.200888,1,-1,-2,0,-1,-1,-1,0,0
29.200893,-1,-2,0,0,0,2,-1,-2,0
29.213211,-2,-1,-1,-2,-1,0,0,-1,0
29.213241,0,-2,-1,-2,-2,0,1,0,0
29.222892,-3,-1,2,-2,0,-2,-2,-2,0
29.222898,0,-1,-1,0,2,0,-1,2,0
29.235722,-2,0,0,0,2,0,-1,-2,0
29.235746,2,-2,-2,1,-1,1,1,-2,0
29.238008,1,2,0,0,0,0,0,-1,0
29.238022,-1,-3,-3,0,-1,-2,-2,1,0
29.266020,0,1,2,0,-1,-1,-2,-1,0
29.266059,0,-1,-4,-3,-1,-1,0,-1,0
29.268712,1,1,-1,1,-3,-2,1,2,0
29.268728,-6,-4,-4,0,-1,-1,-3,-8,0
29.271780,-2,-1,3,-1,-1,1,1,0,0
29.271792,1,3,2,1,-3,-2,-2,1,0
29.281748,-4,-4,-2,-2,-4,-2,-4,-5,0
29.281754,0,-3,-2,-2,0,0,-1,1,0
29.296316,0,0,-3,-1,-2,-1,1,-1,0
29.298995,1,-1,-2,1,0,-1,-1,0,0
29.299004,-3,-1,0,0,0,-1,-2,-1,0
29.299006,0,1,2,-1,-3,-2,0,1,0
29.319095,-1,-1,-1,-3,-2,-1,-1,-3,0
29.319102,-2,-1,-1,-1,0,-2,-1,0,0
29.319768,-1,-1,-4,-2,0,-1,-1,1,0
29.319803,-2,-1,-1,1,-1,-2,0,-1,0
29.333769,-2,2,-2,0,0,-1,-2,-1,0
29.333814,2,0,-2,-1,-2,-1,-2,0,0
29.342741,0,-3,-1,-1,-4,1,0,-1,0
29.342746,-2,0,-1,-1,-1,0,0,-1,0
29.355923,0,-1,-1,2,0,-1,1,2,0
29.355953,-6,-2,-1,-3,-1,0,-3,-5,0
29.358261,0,-2,-1,1,2,0,-1,0,0
29.358268,0,0,-2,1,-3,-1,0,-1,0
29.378256,0,0,0,-1,-2,0,-1,-1,0
29.378272,0,-3,-2,0,1,-2,-1,0,0
29.380110,0,1,0,-3,-1,-1,-1,-1,0
29.380121,-2,-2,-1,-2,-2,0,-1,-2,0
29.392286,-1,-1,-2,-1,0,-1,-3,-2,0
29.392315,-2,-4,-3,-1,0,0,1,0,0
29.402095,-1,-2,-1,-1,-3,-3,0,-3,0
29.402099,2,0,1,0,0,-1,0,1,0
29.416000,-3,-6,-4,-3,-2,-3,-2,-2,0
29.416039,-2,0,1,0,-2,-1,0,-1,0
29.418105,0,1,0,-2,-1,-1,1,2,0
29.418109,-1,-2,-2,-3,-1,-1,-1,-3,0
29.438443,0,-1,-2,1,2,0,-1,0,0
29.438466,0,0,0,0,0,-1,-1,1,0
29.441052,1,-2,-2,0,0,-1,-1,-2,0
29.441061,-1,-4,0,-2,-2,-2,0,-1,0
29.460799,0,2,2,-1,-1,0,-1,0,0
29.460884,-2,-4,-3,-2,-1,-1,-2,-2,0
29.462101,-2,0,-1,0,0,0,-2,0,0
29.462115,1,3,-2,-2,1,-1,0,-1,0
29.475684,0,-1,-3,0,0,-1,0,1,0
29.475707,-3,0,-2,0,-2,-1,-1,-3,0
29.477115,0,1,3,1,-1,0,-1,2,0
29.477128,-3,0,1,0,-1,-2,-3,-5,0
29.498340,-5,-3,0,-1,0,-1,0,-3,0
29.498368,0,-2,-1,-1,0,-1,0,0,0
29.501182,-1,-2,-2,0,-2,0,-1,-1,0
29.501191,0,0,-1,2,-1,1,0,2,0
29.520818,0,1,1,-1,-2,-2,0,0,0
29.520833,-3,-1,0,-1,0,-1,-2,-1,0
29.522274,-2,-3,-3,-1,-1,-2,0,-1,0
29.522338,2,0,-2,-3,0,0,-1,2,0
29.535688,-1,-2,-1,0,-2,0,0,-2,0
29.535699,-1,3,0,-3,-2,-1,-1,-1,0
29.537148,0,-3,-2,-1,1,-1,0,0,0
29.537163,-3,0,0,0,-1,-1,-1,2,0
29.558178,0,3,1,0,-1,-1,0,-1,0
29.558197,-2,-5,-1,-1,-2,0,0,-1,0
29.559697,-2,-2,-2,1,0,-1,0,0,0
29.559704,0,-2,-1,-1,-2,-2,-1,-1,0
29.582821,-3,1,0,-1,0,-1,0,-2,0
29.582885,0,0,1,0,-2,-1,0,0,0
