timestamp,emg1,emg2,emg3,emg4,emg5,emg6,emg7,emg8,label
10.018290,47,43,4,11,16,-1,1,6,0.544359102
10.018360,-44,-39,0,-1,-64,-17,-3,-18,0.544359102
10.038146,-9,24,-4,11,70,45,-8,-62,0.544359102
10.038153,-23,5,6,9,51,-41,-22,-34,0.544359102
10.039654,-10,48,-5,-12,-41,-40,12,2,0.544359102
10.039674,-18,-24,-3,-2,20,1,-1,-3,0.544359102
10.052787,35,9,6,-3,-25,-27,6,-20,0.544359102
10.052794,12,41,5,2,4,18,-18,-2,0.544359102
10.061664,-15,-2,6,0,-13,14,2,0,0.544359102
10.061679,-8,-28,-3,2,-13,-14,7,6,0.544359102
10.075677,-14,-12,1,-3,0,7,-2,1,0.544359102
10.075696,40,7,-11,-22,-3,5,4,49,0.544359102
10.077484,8,18,7,-9,-23,-1,-3,10,0.544359102
10.077499,-4,53,6,6,17,15,12,54,0.544359102
10.099160,59,-64,-7,-3,-6,-4,-9,10,0.544359102
10.099168,-16,-51,-8,-4,3,3,9,-56,0.544359102
10.099575,-2,-13,0,3,-19,-11,-11,-12,0.544359102
10.099582,-2,8,-4,-3,55,8,5,-17,0.544359102
10.111999,-53,30,-2,-2,-27,-1,1,4,0.544359102
10.112020,5,-47,10,-6,-38,1,3,-20,0.544359102
10.121950,0,-39,-9,12,27,9,14,-8,0.544359102
10.121958,-1,1,2,5,13,-5,-25,-9,0.544359102
10.135785,2,36,-1,1,-5,-17,-6,-6,0.544359102
10.135817,10,-28,-5,-5,0,3,13,0,0.544359102
10.141936,-32,12,5,-1,-4,53,-2,-6,0.544359102
10.141960,21,15,-1,-9,-12,-51,6,19,0.544359102
10.158212,17,-7,1,0,-17,14,0,-5,0.544359102
10.158238,-8,67,8,13,-1,-49,-8,14,0.544359102
10.160627,-35,-98,-9,-10,-21,24,-2,-28,0.544359102
10.160640,14,57,-1,0,38,27,-16,-13,0.544359102
10.172011,-13,-66,-9,-7,-17,-20,35,-8,0.544359102
10.172035,37,37,0,1,-1,11,-4,59,0.544359102
10.182892,0,36,-1,1,23,-2,2,16,0.544359102
10.182901,-26,-30,6,-6,-15,-10,3,-18,0.544359102
10.196019,-12,-7,-7,-7,-6,-3,-25,-11,0.544359102
10.196066,3,18,3,-7,15,17,-1,-17,0.544359102
10.197394,-24,35,2,23,10,-20,4,-11,0.544359102
10.197409,-8,-58,-2,-4,-39,18,3,5,0.544359102
10.218806,31,20,5,3,27,4,2,12,0.544359102
10.218835,34,20,2,-2,-23,-6,0,4,0.544359102
10.221156,-21,-14,-11,-18,3,-7,-8,-2,0.544359102
10.221163,-6,18,-1,5,-19,11,5,-9,0.544359102
10.232139,13,21,-1,5,42,28,9,0,0.544359102
10.232164,-60,-83,-6,9,-39,-6,-7,-17,0.544359102
10.240819,9,74,10,-2,-2,-4,8,17,0.530338787
10.240847,15,-49,-2,2,-3,-8,-4,-3,0.530338787
10.255972,-39,-67,-7,-10,-25,-24,-11,-34,0.530338787
10.255992,50,25,2,4,15,18,-3,20,0.530338787
10.257445,-28,-4,-3,3,-12,-5,0,7,0.530338787
10.257464,19,4,-8,-11,-17,-8,-1,-10,0.530338787
10.278185,5,18,9,0,-8,3,-4,4,0.530338787
10.278204,-14,6,2,19,25,-2,4,-8,0.530338787
10.279879,-29,60,3,-3,3,-6,-3,3,0.530338787
10.279900,31,-53,-20,-1,-46,-10,-2,15,0.530338787
10.291916,-23,54,7,4,27,0,-11,-38,0.530338787
10.291941,-49,-1,-3,-5,14,17,22,60,0.530338787
10.302585,-6,-6,2,-3,-51,-5,5,-22,0.530338787
10.302594,7,-4,-5,-3,14,16,-39,-2,0.530338787
10.317797,12,-2,2,2,5,23,18,9,0.530338787
10.317805,15,68,-2,-3,2,-7,-5,-17,0.530338787
10.317808,21,-15,-1,-7,-4,10,3,2,0.530338787
10.317811,-37,-19,0,0,11,-10,1,-37,0.530338787
10.338543,-5,0,0,4,0,-2,-9,20,0.530338787
10.338565,10,18,2,-6,0,10,-2,-26,0.530338787
10.340782,-2,13,1,-2,8,-9,0,13,0.530338787
10.340796,29,52,12,4,-7,14,3,-14,0.530338787
10.352185,0,-24,-5,-5,3,-9,-10,7,0.530338787
10.352207,-4,-13,-4,2,-6,-7,3,-4,0.530338787
10.362790,12,-54,-6,-2,-17,-28,-16,-5,0.530338787
10.362796,-12,26,9,10,92,21,17,-22,0.530338787
10.375764,-51,-20,-8,-8,-20,-14,2,2,0.530338787
10.375789,-6,-30,-7,4,2,4,-10,-5,0.530338787
10.377941,37,-5,2,-7,15,-5,-3,-51,0.530338787
10.377954,-22,-37,-3,-2,-18,1,8,22,0.530338787
10.398392,32,50,1,-17,-2,-16,-15,-68,0.530338787
10.398415,-18,-32,-7,-6,16,-2,-1,-16,0.530338787
10.399708,35,5,-2,0,-1,6,4,-9,0.530338787
10.399725,-12,42,-1,-1,21,-26,-22,-6,0.530338787
10.420634,-15,1,5,9,-24,27,17,7,0.530338787
10.420659,49,7,0,1,19,50,12,-46,0.530338787
10.422764,6,-14,-5,-5,-12,11,-1,11,0.530338787
10.422777,-26,-6,1,3,16,32,7,10,0.530338787
10.435234,36,-4,-3,10,7,-12,-12,39,0.530338787
10.435266,-15,9,-1,-5,-14,0,-9,-4,0.530338787
10.437894,1,76,6,4,-17,-8,18,29,0.530338787
10.437903,-11,-12,12,20,-9,3,-9,-9,0.530338787
10.458215,-21,-32,-7,2,40,-6,-3,-13,0.530338787
10.458227,13,70,14,4,-37,-1,9,87,0.530338787
10.458230,-15,-74,-12,0,32,-2,-10,-12,0.530338787
10.458233,5,23,-1,-9,-40,-20,8,7,0.530338787
10.480262,23,19,0,1,0,-1,0,14,0.530338787
10.480742,10,-12,2,-6,-16,-18,-13,-23,0.530338787
10.482561,-72,-22,-5,5,23,-2,-9,-5,0.530338787
10.482574,46,48,-3,-5,-8,3,6,20,0.530338787
10.495199,-32,-16,-5,2,-6,2,4,-5,0.511009584
10.495223,2,14,-3,-6,-21,-24,7,-14,0.511009584
10.497301,5,-31,1,-5,23,22,3,9,0.511009584
10.497309,-5,4,-6,-9,-26,-9,-4,-8,0.511009584
10.521034,-8,17,0,5,8,-35,-15,1,0.511009584
10.521041,19,17,5,-1,8,78,9,1,0.511009584
10.521044,1,-49,-10,-16,3,-85,13,20,0.511009584
10.521074,-27,31,2,11,-13,51,0,-71,0.511009584
10.540271,89,-42,3,-9,4,-19,-4,70,0.511009584
10.540301,-58,-21,-13,-3,-22,-29,-9,-23,0.511009584
10.540957,3,22,5,16,20,26,-5,-15,0.511009584
10.540985,16,8,-1,-10,1,0,0,-15,0.511009584
10.555388,-5,-2,1,-8,-34,-5,0,0,0.511009584
10.555421,-16,16,0,4,11,-13,-8,-27,0.511009584
10.558107,12,34,4,-10,-5,16,0,9,0.511009584
10.558122,-17,-43,-12,-6,8,-32,1,31,0.511009584
10.577665,-7,19,5,3,-7,26,3,-33,0.511009584
10.577698,13,22,0,-11,27,-16,-4,70,0.511009584
10.580338,45,-16,1,-3,-2,7,-10,-3,0.511009584
10.580352,-15,0,2,-2,4,-6,-3,11,0.511009584
10.600140,-4,21,-2,4,-3,5,16,-11,0.511009584
10.600148,-22,-34,-2,-6,28,-7,-20,-23,0.511009584
10.600930,17,-4,-1,1,-89,-13,-5,-2,0.511009584
10.600989,-12,-37,-2,3,31,-11,-3,12,0.511009584
10.614928,8,-2,-3,-9,-9,12,32,8,0.511009584
10.614955,34,31,4,-6,-3,16,-12,-8,0.511009584
10.617097,-25,-4,-7,1,-8,18,5,-62,0.511009584
10.617108,-10,-4,-2,-4,-14,-1,1,8,0.511009584
10.638110,-20,-8,-3,-1,-4,-30,-8,-10,0.511009584
10.638142,2,-10,-4,2,1,-11,-2,-2,0.511009584
10.641115,-10,-57,1,-5,7,5,-4,-14,0.511009584
10.641128,23,35,3,5,-22,8,8,14,0.511009584
10.660012,2,-4,2,-10,16,8,-11,-2,0.511009584
10.660031,-47,-27,-6,10,-19,-14,9,-18,0.511009584
10.662315,64,41,-2,-8,24,14,6,48,0.511009584
10.662323,-46,-6,-2,0,-27,-30,-9,-13,0.511009584
10.674890,12,-15,-4,3,49,28,-11,18,0.511009584
10.674908,-36,9,-3,-14,-13,-20,11,-14,0.511009584
10.677365,24,5,-9,3,1,-2,-7,23,0.511009584
10.677381,21,11,2,-8,-7,0,11,12,0.511009584
10.697584,-23,15,1,-2,-27,-6,-10,-12,0.511009584
10.697608,15,14,2,17,20,49,0,-3,0.511009584
10.698260,-27,15,9,-2,23,9,5,1,0.511009584
10.698275,74,43,10,-7,14,4,-5,-2,0.511009584
10.720792,-2,-48,-1,17,-5,-17,5,-15,0.511009584
10.720826,-47,-48,-7,-4,-50,23,7,38,0.511009584
10.724050,-11,15,-9,-4,19,-13,-7,1,0.511009584
10.724069,5,15,4,20,39,4,1,-7,0.511009584
10.734720,25,10,-1,-8,-27,28,1,17,0.511009584
10.734750,13,-10,0,15,0,-31,0,6,0.511009584
10.742640,2,-43,-7,5,3,3,-3,26,0.511009584
10.742666,-11,38,-3,-4,-24,-12,-12,-4,0.511009584
10.757468,-34,13,-1,1,15,3,-1,2,0.507598019
10.757489,35,6,-2,-2,-2,-9,-6,-62,0.507598019
10.758207,-28,-14,1,2,-4,-3,2,-25,0.507598019
10.758216,-3,-39,-6,-10,-4,-1,4,-1,0.507598019
10.780765,-4,3,-2,-3,-7,0,-4,-2,0.507598019
10.780797,17,19,2,-6,2,-29,-8,-3,0.507598019
10.783833,5,-49,0,5,10,24,-17,-31,0.507598019
10.783841,-51,-16,-7,-3,3,-2,15,14,0.507598019
10.795171,23,9,0,-9,-3,8,2,-30,0.507598019
10.795196,-33,15,-3,-16,-8,-16,-5,5,0.507598019
10.798156,-16,7,2,4,4,-10,-3,-15,0.507598019
10.798172,-43,-28,-1,-6,-87,-11,-10,-13,0.507598019
10.819498,41,67,1,-4,72,17,-3,49,0.507598019
10.819506,24,-62,-4,-4,-1,37,-5,9,0.507598019
10.819510,7,36,6,-3,-30,-17,3,-11,0.507598019
10.819512,4,-22,-14,-6,29,21,3,-31,0.507598019
10.840112,-50,46,3,-1,-21,-20,-15,-22,0.507598019
10.840139,29,-66,-5,0,4,12,0,8,0.507598019
10.842671,-33,-10,-2,-7,-12,0,1,13,0.507598019
10.842684,-20,19,2,16,42,4,12,-3,0.507598019
10.855520,0,-12,-5,0,-16,-15,-28,-55,0.507598019
10.855552,6,1,1,4,6,3,0,8,0.507598019
10.858455,4,22,3,1,18,-20,3,3,0.507598019
10.858467,32,56,6,-7,-22,-4,-6,-13,0.507598019
10.877657,8,-97,-15,-3,6,28,20,-11,0.507598019
10.877690,-65,-24,6,15,5,-2,3,-13,0.507598019
10.879938,-22,18,2,2,-38,-5,-11,-24,0.507598019
10.879948,62,40,12,1,4,-1,2,54,0.507598019
10.900081,22,-10,-1,-5,-33,8,0,14,0.507598019
10.900091,-6,37,2,7,56,-82,-5,-6,0.507598019
10.900750,-26,-9,-1,1,41,16,4,22,0.507598019
10.900789,41,4,-4,-7,-6,-8,-5,11,0.507598019
10.915119,-51,9,1,1,-24,-19,-2,6,0.507598019
10.915143,29,-41,-4,-6,-6,67,15,35,0.507598019
10.917152,-11,-17,0,-4,-6,-23,-23,34,0.507598019
10.917169,-18,-8,-3,-3,13,5,7,-38,0.507598019
10.938117,5,9,1,3,7,-11,1,34,0.507598019
10.938150,-4,15,0,-5,-13,16,-2,-37,0.507598019
10.941244,16,19,-3,-6,-2,11,3,-5,0.507598019
10.941256,5,-8,-4,-10,-23,-35,-12,1,0.507598019
10.960847,6,-27,5,6,-3,34,11,-27,0.507598019
10.960864,-68,31,4,4,12,-19,8,22,0.507598019
10.967826,27,-33,-5,3,-29,0,-6,-65,0.507598019
10.967845,-5,-45,-10,-3,-32,-25,-1,33,0.507598019
10.975037,19,19,4,-1,-10,22,-1,1,0.507598019
10.975165,-7,16,-8,-6,-15,-16,-9,-13,0.507598019
10.977470,-9,23,-1,1,34,11,7,6,0.507598019
10.977480,0,-15,1,-1,21,-3,-4,-21,0.507598019
10.998201,-32,18,-10,-2,-14,-21,-3,-36,0.507598019
10.998229,25,-34,4,0,-1,8,-4,25,0.507598019
11.001048,48,78,1,-1,-10,-5,5,13,0.524944277
11.001057,12,-71,-5,-3,12,18,13,16,0.524944277
11.020266,-21,4,1,1,9,-27,-35,6,0.524944277
11.020297,-1,9,-7,-4,10,0,-6,-28,0.524944277
11.023205,33,31,-1,-5,18,16,9,55,0.524944277
11.023247,-39,22,4,17,3,-45,-19,-1,0.524944277
11.034735,25,-28,1,-14,27,37,20,15,0.524944277
11.034767,7,3,3,10,21,-17,0,-4,0.524944277
11.042824,0,-17,2,-1,-53,-5,-6,-33,0.524944277
11.042843,26,40,6,-11,-50,34,-6,37,0.524944277
11.057684,-18,26,-15,-11,19,-87,1,6,0.524944277
11.057709,-8,-51,1,-1,-20,-7,-6,1,0.524944277
11.059195,-31,11,-3,-3,9,8,23,-13,0.524944277
11.059205,-23,-17,-6,-5,-1,-6,-28,-16,0.524944277
11.080319,-12,32,7,4,-12,4,2,-23,0.524944277
11.080351,19,16,-5,-9,-10,2,0,-17,0.524944277
11.083351,-6,-20,0,10,10,-1,6,-7,0.524944277
11.083360,21,-2,-1,-7,9,18,3,-2,0.524944277
11.094264,5,-16,-1,-1,-4,-2,-4,-2,0.524944277
11.094284,26,7,1,-12,-41,-16,-6,-24,0.524944277
11.102692,-22,-27,0,7,37,30,8,-23,0.524944277
11.102716,-32,-51,3,9,9,-18,2,-10,0.524944277
11.117569,16,-20,-9,-3,-2,6,17,13,0.524944277
11.117604,28,-11,-6,-4,-49,-7,-6,60,0.524944277
11.118188,9,91,4,1,29,-1,0,-1,0.524944277
11.118210,-59,-25,-5,7,-3,11,6,-11,0.524944277
11.140072,2,-88,-8,-4,3,5,0,25,0.524944277
11.140091,-18,13,0,2,10,9,-5,-25,0.524944277
11.142400,4,-29,-5,-2,-19,-82,2,28,0.524944277
11.142412,0,27,-2,-3,24,21,-10,-2,0.524944277
11.154636,-25,26,3,-3,-19,-4,1,-6,0.524944277
11.154666,42,17,3,-2,-6,7,12,39,0.524944277
11.170319,-30,-39,-4,7,-17,-2,-25,-8,0.524944277
11.170352,8,-27,-2,3,68,10,16,-13,0.524944277
11.177507,4,8,1,8,-13,4,-4,17,0.524944277
11.177531,15,-7,0,-4,-9,-24,-9,-9,0.524944277
11.179490,-37,-6,-6,6,-45,3,10,-36,0.524944277
11.179496,19,25,6,-2,2,51,-4,-11,0.524944277
11.200567,-44,-39,-6,9,-5,7,3,-75,0.524944277
11.200601,1,-43,-9,-6,8,13,-4,-30,0.524944277
11.203411,7,39,2,-2,-14,-7,-9,-3,0.524944277
11.203418,1,-28,-12,-16,-17,-5,-6,12,0.524944277
11.214507,5,20,7,1,2,1,-6,7,0.524944277
11.214540,7,68,3,-3,14,3,5,-4,0.524944277
11.222876,-6,-54,-13,-5,-4,5,-6,20,0.524944277
11.222892,14,-22,4,1,-7,-7,6,-8,0.524944277
11.237894,18,37,5,-10,-16,2,4,36,0.524944277
11.237922,-22,-2,-4,10,24,-20,-2,-10,0.524944277
11.240558,-17,5,1,-5,33,19,-20,6,0.524944277
11.240572,1,41,5,-2,7,6,29,78,0.524944277
11.260001,21,-26,2,1,-27,13,7,-8,0.522555731
11.260014,41,4,-8,1,-7,-62,-32,1,0.522555731
11.260719,-27,-14,9,-14,13,-15,1,-7,0.522555731
11.260741,29,-24,-9,12,-22,-10,7,-22,0.522555731
11.274554,-10,24,4,-4,-16,2,2,12,0.522555731
11.274582,-41,22,5,-2,38,25,10,23,0.522555731
11.283052,54,43,0,2,-14,1,-12,61,0.522555731
11.283074,11,-14,-4,-6,-5,-23,-5,-65,0.522555731
11.297706,-2,21,6,11,29,0,-6,19,0.522555731
11.297738,-2,-17,-4,-27,-56,13,2,-45,0.522555731
11.300052,9,22,5,5,2,-2,-1,-12,0.522555731
11.300060,-25,14,-2,-8,-2,4,-5,-21,0.522555731
11.320034,6,7,6,3,6,-1,-4,8,0.522555731
11.320070,-22,26,-1,5,7,8,7,-3,0.522555731
11.320650,-2,-70,-7,-3,7,7,8,-5,0.522555731
11.320684,-10,60,4,-4,-6,-16,-7,-3,0.522555731
11.334606,14,-83,-11,-5,-57,-6,-2,-13,0.522555731
11.334636,16,14,-1,20,108,41,-11,21,0.522555731
11.343011,-9,-38,4,-3,-13,-5,41,2,0.522555731
11.343036,3,42,-2,-5,-13,13,-4,-2,0.522555731
11.365759,-16,23,-3,-4,-56,-17,-6,-1,0.522555731
11.365769,0,0,-2,4,27,18,7,-5,0.522555731
11.366390,18,8,-3,-6,-17,10,-14,7,0.522555731
11.366428,-42,5,0,-1,13,-10,-5,-4,0.522555731
11.380285,14,17,2,-2,-22,-20,1,-21,0.522555731
11.380302,-6,-19,-2,-3,-6,10,3,64,0.522555731
11.395097,-16,7,1,0,4,18,-4,-62,0.522555731
11.395114,38,-13,-9,-2,-12,-21,1,-42,0.522555731
11.403288,-2,-19,-4,-2,14,7,-8,-21,0.522555731
11.403305,-5,-14,-2,2,-17,-8,6,4,0.522555731
11.405460,1,3,-2,1,13,7,0,-7,0.522555731
11.405472,5,7,-2,-6,-17,12,-7,10,0.522555731
11.418040,-6,28,4,5,-5,-16,-12,13,0.522555731
11.418083,5,13,3,6,30,30,32,-23,0.522555731
11.421220,9,45,6,3,-23,-35,-41,11,0.522555731
11.421235,-10,-108,-8,10,37,45,-7,5,0.522555731
11.441765,28,26,-3,-6,10,-70,10,17,0.522555731
11.441777,12,-19,3,0,-50,-6,-6,2,0.522555731
11.441780,-9,5,-3,-5,37,9,4,7,0.522555731
11.441783,-5,33,1,5,-3,-25,-3,31,0.522555731
11.463390,-28,23,-3,-19,32,25,-12,-16,0.522555731
11.463417,-37,-61,-8,1,-16,2,-3,-19,0.522555731
11.464026,4,-20,3,0,-7,-12,1,21,0.522555731
11.464048,31,-18,-6,-3,8,-1,2,8,0.522555731
11.477506,17,77,5,5,26,25,2,12,0.522555731
11.477609,-22,-19,-7,-11,-31,-31,-5,-1,0.522555731
11.479956,14,-8,-7,3,46,26,2,39,0.522555731
11.479962,-30,-14,-2,-12,-17,2,9,28,0.522555731
11.500296,25,18,11,31,60,16,-6,23,0.522555731
11.502282,-16,8,1,-8,2,-6,3,-6,0.522555731
11.502292,7,9,-4,0,-8,-6,-2,-8,0.522555731
11.502294,0,17,4,5,-5,8,9,11,0.522555731
11.522474,8,-36,-5,-1,-14,10,10,-4,0.505718731
11.522494,-32,24,7,-9,-4,-33,-21,-14,0.505718731
11.530542,8,59,-1,-11,-17,-2,7,-32,0.505718731
11.530605,-6,-63,-12,-3,-13,-16,-4,-9,0.505718731
11.537855,6,12,-4,0,-13,27,0,-3,0.505718731
11.537882,5,35,8,5,1,0,3,-5,0.505718731
11.538551,4,-32,-1,-3,-16,2,4,3,0.505718731
11.538576,2,35,8,3,3,-6,-2,8,0.505718731
11.559985,-16,-24,-1,-12,11,-6,-2,6,0.505718731
11.560010,15,4,-9,-1,-1,6,-5,-2,0.505718731
11.562517,-17,-2,4,5,5,-6,-5,0,0.505718731
11.562525,13,101,10,-9,-39,-9,7,-5,0.505718731
11.583077,-25,-109,-11,8,29,13,3,0,0.505718731
11.583086,32,56,7,-5,-39,-5,-11,-1,0.505718731
11.583751,-48,-73,-12,3,3,-8,-2,-39,0.505718731
11.583759,9,22,4,6,15,25,13,42,0.505718731
11.598115,-51,33,2,-3,17,-13,-7,-12,0.505718731
11.598125,4,-7,-3,-12,-13,8,4,5,0.505718731
11.598128,42,-35,1,-1,-38,32,-4,13,0.505718731
11.598194,-40,-21,-1,7,18,-33,-20,-16,0.505718731
11.620665,26,0,0,3,14,-28,-1,10,0.505718731
11.620709,-13,-2,2,8,3,13,22,-8,0.505718731
11.624265,19,10,-1,-7,-5,0,-1,4,0.505718731
11.624278,-3,1,3,8,-2,14,4,-13,0.505718731
11.644833,-9,-35,-11,-10,-4,7,0,9,0.505718731
11.644851,-14,-10,-8,0,-12,-26,-11,-3,0.505718731
11.644857,1,45,2,-1,18,11,15,7,0.505718731
11.644862,8,4,1,-9,-11,-14,-7,-8,0.505718731
11.657715,-46,-38,-4,-9,-4,-7,-12,-64,0.505718731
11.659794,23,41,6,24,5,10,-3,1,0.505718731
11.659807,62,-8,-4,-6,3,-7,-2,25,0.505718731
11.659809,-35,44,-4,-5,-1,3,-6,-68,0.505718731
11.679933,13,-48,6,2,-7,-8,7,1,0.505718731
11.679950,-23,-69,-6,-6,12,14,1,0,0.505718731
11.680656,44,53,1,-14,-32,-21,-4,1,0.505718731
11.680690,-35,-35,-5,1,34,14,-7,-9,0.505718731
11.703663,0,54,-1,1,-42,-9,1,11,0.505718731
11.703696,13,-16,-3,-2,30,5,3,8,0.505718731
11.706573,-21,7,3,-1,3,2,10,-1,0.505718731
11.706589,24,12,7,0,24,-19,-24,15,0.505718731
11.718010,-15,-9,-4,-6,-36,10,-1,0,0.505718731
11.718052,9,26,-7,-3,33,6,-6,-6,0.505718731
11.721067,-14,-55,-2,4,13,7,9,45,0.505718731
11.721076,-1,5,-4,1,-11,14,8,-11,0.505718731
11.740186,27,33,2,1,-10,-34,-8,8,0.505718731
11.740219,14,2,4,-3,-13,23,-7,-14,0.505718731
11.740884,-32,30,-3,2,-4,-16,1,-19,0.505718731
11.740924,-8,-57,-11,-22,28,-16,-3,-19,0.505718731
11.763475,26,20,9,17,31,33,11,47,0.505718731
11.763508,-1,-13,-10,-2,-12,7,3,-2,0.505718731
11.765871,-17,10,4,-7,-20,-12,-19,1,0.505718731
11.765878,18,-20,5,-6,-13,4,4,14,0.505718731
11.777812,-29,4,-6,-10,6,7,10,-31,0.485479177
11.777845,11,39,2,1,-44,-22,4,37,0.485479177
11.780378,-52,-91,-12,-4,4,17,-3,-8,0.485479177
11.780387,31,27,4,7,-15,-15,-3,9,0.485479177
11.800631,20,48,6,-3,23,5,-5,-5,0.485479177
11.800641,-10,2,1,-1,-7,2,13,-6,0.485479177
11.800644,9,-3,-4,4,6,-23,-17,-4,0.485479177
11.800692,10,-2,0,0,-30,6,2,12,0.485479177
11.823343,-19,48,2,-2,7,3,-2,52,0.485479177
11.823370,7,-17,1,-5,-22,-19,-13,-4,0.485479177
11.825494,-10,-17,0,8,7,25,-4,-56,0.485479177
11.825508,-11,-5,0,3,-27,-1,21,2,0.485479177
11.837650,3,0,-3,-8,4,9,-5,34,0.485479177
11.837675,-7,30,5,-5,-4,4,-2,-3,0.485479177
11.839502,-11,14,6,-2,-34,-58,-3,7,0.485479177
11.839515,-7,-22,-9,-5,30,11,-2,-4,0.485479177
11.859999,12,-7,-2,-10,-46,-12,-4,-16,0.485479177
11.860017,-22,-26,-3,3,3,-5,-3,-3,0.485479177
11.862264,-6,-20,-9,1,18,13,-1,-56,0.485479177
11.862282,-19,29,2,-1,-17,-5,1,-3,0.485479177
11.883240,-8,-39,-1,10,27,20,1,-10,0.485479177
11.883264,1,-9,0,3,3,-72,-17,30,0.485479177
11.885379,12,-7,4,4,-8,27,30,4,0.485479177
11.885392,-19,11,-4,-4,18,-19,-30,-3,0.485479177
11.897549,6,-14,-6,-4,-25,13,-3,-5,0.485479177
11.897575,27,-20,4,-12,4,-2,2,-2,0.485479177
11.898413,16,26,4,20,-40,4,-14,6,0.485479177
11.898421,12,-18,1,-4,3,67,21,-50,0.485479177
11.921085,5,33,-1,-1,4,-34,-5,38,0.485479177
11.921118,43,34,-7,-10,-16,6,-9,-12,0.485479177
11.924459,-11,-29,-4,-15,28,-15,-3,-2,0.485479177
11.924475,17,0,-1,5,-6,4,2,41,0.485479177
11.951012,-14,43,3,8,0,33,-9,-45,0.485479177
11.951038,-18,-78,-9,2,8,-1,8,0,0.485479177
11.952596,-10,1,-2,-9,-5,4,-5,24,0.485479177
11.952604,10,-11,-4,6,-4,-13,3,3,0.485479177
11.957639,-8,-7,-5,-3,22,-5,8,-11,0.485479177
11.957666,-23,25,5,-7,-22,2,1,14,0.485479177
11.959325,-31,22,0,10,48,8,8,-4,0.485479177
11.959337,-12,-20,0,2,-19,6,-2,1,0.485479177
11.980129,28,-5,-4,-9,-39,-50,-8,-5,0.485479177
11.980243,4,23,6,5,14,18,4,-19,0.485479177
11.982985,-11,44,2,-6,-19,58,-4,-2,0.485479177
11.983000,-2,-24,-1,15,32,-6,3,3,0.485479177
12.004104,-1,-21,0,3,5,16,5,39,0.485479177
12.004113,-19,55,8,4,23,-6,-4,-5,0.485479177
12.004116,4,-61,-10,-15,-21,-15,-9,-2,0.485479177
12.004119,42,46,10,6,-5,-8,-1,84,0.485479177
12.025942,6,-17,-4,-8,-2,-1,2,-26,0.493870639
12.025966,-31,-46,-7,3,38,20,0,-5,0.493870639
12.027850,15,32,3,9,20,-11,4,27,0.493870639
12.027904,28,22,0,-13,-25,-13,-3,19,0.493870639
12.040091,-84,-30,-2,2,28,-2,-1,-17,0.493870639
12.040120,-13,38,-1,14,-3,16,5,-6,0.493870639
12.041638,13,-18,2,7,48,-7,2,22,0.493870639
12.041654,7,20,-3,-4,-37,-27,-8,-28,0.493870639
12.065795,26,6,6,1,13,23,10,1,0.493870639
12.065803,9,11,-3,-14,-21,-19,0,3,0.493870639
12.065806,-28,16,2,-6,7,8,-4,-29,0.493870639
12.065808,-18,-9,3,2,2,-38,-2,2,0.493870639
12.086270,29,6,-5,7,8,31,18,5,0.493870639
12.086282,2,-32,-7,-6,-12,15,3,-16,0.493870639
12.088556,35,-27,4,5,-37,-21,-7,0,0.493870639
12.088574,-19,13,-7,-12,-14,18,18,32,0.493870639
12.100264,3,-43,-5,-1,2,-15,-12,-18,0.493870639
12.100288,1,-13,1,10,14,-8,-3,0,0.493870639
12.100950,22,53,0,-6,-4,-6,2,16,0.493870639
12.100972,-2,-43,-6,-3,7,3,-6,-21,0.493870639
12.123368,-23,-13,-4,-15,-12,-5,-5,-20,0.493870639
12.123387,21,-10,-2,14,32,13,-1,21,0.493870639
12.125454,-4,7,-4,-12,-50,-14,-6,-66,0.493870639
12.125464,-36,32,12,5,-21,-4,-2,3,0.493870639
12.137288,35,39,0,8,16,14,-9,-14,0.493870639
12.139536,13,-34,-5,-6,18,12,17,-4,0.493870639
12.145281,-12,-27,-10,-8,-33,-47,-36,-23,0.493870639
12.145313,-14,-19,-2,-2,15,1,-20,-34,0.493870639
12.159958,-10,41,2,0,-20,-4,1,48,0.493870639
12.159970,-29,-45,2,-4,-12,-14,-6,-13,0.493870639
12.160666,34,54,0,12,45,19,14,32,0.493870639
12.160702,-20,-56,-7,0,5,13,-9,0,0.493870639
12.183669,-6,-6,5,-7,-10,2,7,2,0.493870639
12.183702,0,25,1,-5,-8,5,-5,-20,0.493870639
12.186321,5,-17,1,3,-3,2,15,47,0.493870639
12.186330,21,50,-3,-1,13,-6,-5,-23,0.493870639
12.197261,-18,-42,-9,-1,14,-11,-4,-28,0.493870639
12.197291,-14,-27,-2,-7,-34,2,-10,-9,0.493870639
12.206346,-16,11,-5,-1,66,-4,2,-64,0.493870639
12.206362,27,35,-4,-3,12,10,-6,45,0.493870639
12.221497,-2,-67,0,-8,-12,-9,11,-11,0.493870639
12.221507,23,30,-4,3,3,6,-1,18,0.493870639
12.221510,-17,16,1,-2,-2,3,-4,-2,0.493870639
12.221513,13,-8,2,-4,21,9,12,-18,0.493870639
12.243173,-28,-27,-10,-11,-30,-20,-18,-23,0.493870639
12.243197,13,-11,-6,-5,-8,-6,-4,1,0.493870639
12.245727,4,5,6,-7,-10,10,5,17,0.493870639
12.245736,8,-6,-2,-5,-13,-2,12,-14,0.493870639
12.257094,27,28,2,-1,-1,-3,1,7,0.493870639
12.257124,-11,16,6,5,3,-12,2,24,0.493870639
12.267169,-30,21,-1,-3,-20,5,-8,-65,0.493870639
12.267184,19,-13,0,6,-21,-8,2,-17,0.493870639
12.282411,-6,-7,-5,-2,38,38,-3,-23,0.487142146
12.282418,4,-3,-6,-3,-6,-10,-8,-6,0.487142146
12.282421,-11,30,2,-3,-13,-3,10,-10,0.487142146
12.282423,15,-40,-7,-12,3,-4,-14,-3,0.487142146
12.303684,15,-10,-1,22,18,-5,17,12,0.487142146
12.303706,-36,-12,-4,-15,-3,8,2,-22,0.487142146
12.304359,45,-5,-2,-1,5,3,-3,43,0.487142146
12.306589,-36,0,0,1,-29,-7,-4,-7,0.487142146
12.316960,64,-16,-1,-4,-9,-7,-4,8,0.487142146
12.316969,-34,-1,1,-1,4,-4,-3,43,0.487142146
12.325139,1,3,0,8,-6,12,3,18,0.487142146
12.325166,-29,22,0,-2,7,-37,11,-13,0.487142146
12.340352,4,23,0,-13,-20,-17,-10,0,0.487142146
12.340386,7,-31,-8,19,-14,10,-6,7,0.487142146
12.342571,14,37,-1,-11,-20,9,4,10,0.487142146
12.342583,-43,-51,-2,5,6,25,7,41,0.487142146
12.363109,-29,47,3,1,-10,-2,1,-21,0.487142146
12.363146,22,19,1,-8,8,-10,-6,-18,0.487142146
12.364043,-51,-54,-7,4,12,4,-2,-44,0.487142146
12.364064,14,-14,-1,-7,14,11,-1,-24,0.487142146
12.385831,-3,19,5,3,-13,-24,-5,-8,0.487142146
12.385848,-22,23,2,-2,-15,9,-5,11,0.487142146
12.387685,21,-6,-3,-5,9,5,0,15,0.487142146
12.387694,-3,27,1,0,-13,5,-18,-19,0.487142146
12.400477,25,-19,-5,-8,-15,-21,6,-1,0.487142146
12.400512,-10,-5,5,14,58,28,18,42,0.487142146
12.402549,12,1,-5,-7,-1,13,-16,18,0.487142146
12.402563,14,5,-4,2,1,-7,-4,-2,0.487142146
12.425522,-44,-10,-2,-12,2,4,-5,5,0.487142146
12.425535,0,19,-1,-6,-4,-16,-4,-29,0.487142146
12.425538,1,-34,2,7,-9,-16,5,59,0.487142146
12.425541,-2,-20,0,-9,12,15,4,4,0.487142146
12.446076,6,29,1,6,-11,4,-6,64,0.487142146
12.446103,8,-3,0,6,40,-10,6,-17,0.487142146
12.446529,16,13,1,-2,-28,-2,0,3,0.487142146
12.446550,-8,23,2,6,-1,-18,5,-22,0.487142146
12.459933,5,0,-2,-15,-42,10,-22,-22,0.487142146
12.459954,18,-39,1,18,26,9,13,53,0.487142146
12.460760,13,15,-7,1,35,-9,-16,-13,0.487142146
12.460779,10,9,-3,9,70,-26,7,17,0.487142146
12.483566,-8,25,5,12,14,44,25,-20,0.487142146
12.483600,-2,41,0,-16,-37,-11,-29,-32,0.487142146
12.486017,43,-31,-8,-8,-21,-8,5,48,0.487142146
12.486033,-39,-10,7,0,-9,0,3,4,0.487142146
12.505771,15,15,-1,4,15,-12,-17,-6,0.487142146
12.505790,4,15,-2,-6,-11,2,6,-32,0.487142146
12.506781,-24,-28,2,-3,11,6,10,-9,0.487142146
12.506807,11,68,5,-5,-28,-5,-8,39,0.487142146
12.520450,23,-45,-6,7,9,3,6,18,0.487142146
12.520492,-9,-1,-3,-13,-10,4,-2,30,0.487142146
12.520699,-5,6,-2,-5,-29,-17,7,-20,0.487142146
12.520774,-14,-35,-5,13,81,1,-4,-15,0.487142146
12.543143,-20,13,3,-7,-39,13,-1,-4,0.500693768
12.543161,26,20,-3,-4,18,20,2,-12,0.500693768
12.545350,8,-9,1,12,11,-47,8,7,0.500693768
12.545366,-21,-22,-7,-7,6,11,-3,-75,0.500693768
12.565563,54,52,5,15,32,-6,6,10,0.500693768
12.565570,-30,-66,-1,-15,-34,-12,-12,-56,0.500693768
12.566215,-32,43,9,-1,3,23,0,-7,0.500693768
12.566222,13,-8,-1,-2,-43,-3,-1,-65,0.500693768
12.580082,-2,32,-5,-12,15,-6,-5,15,0.500693768
12.580103,24,-54,1,2,-13,-6,-1,-16,0.500693768
12.580908,-23,16,6,-4,-9,-6,-5,-14,0.500693768
12.580928,27,10,-2,-8,-11,5,1,19,0.500693768
12.603747,-26,-42,-8,-4,-14,-13,-7,-11,0.500693768
12.603779,-8,21,-2,5,15,-1,-5,2,0.500693768
12.605874,14,-10,2,3,13,10,13,4,0.500693768
12.605888,-48,-11,-2,-12,-15,27,-9,2,0.500693768
12.627162,40,-34,-1,22,36,-29,5,16,0.500693768
12.627172,20,113,7,-5,9,6,3,-5,0.500693768
12.627176,-30,-94,-14,5,-2,-1,-1,-8,0.500693768
12.627179,-7,19,2,0,-14,11,3,6,0.500693768
12.640211,8,-5,-1,-6,-21,-8,-3,-19,0.500693768
12.640237,2,15,1,8,16,-7,4,0,0.500693768
12.642243,-16,46,2,-1,-13,5,-7,14,0.500693768
12.642257,14,-25,-6,-3,-35,1,18,27,0.500693768
12.663311,-42,-13,1,-9,9,5,-31,-19,0.500693768
12.663347,-9,-59,-11,-7,-13,-34,-1,-50,0.500693768
12.663803,23,37,4,-3,6,12,3,-27,0.500693768
12.663819,15,-1,-7,3,-3,-1,0,56,0.500693768
12.685894,-23,-46,-2,-1,-15,5,4,-21,0.500693768
12.685925,-16,5,4,-1,-12,16,-3,24,0.500693768
12.688650,-8,-4,-6,-9,-44,-8,-19,-12,0.500693768
12.688661,1,31,3,4,-14,-10,-5,-15,0.500693768
12.700157,-40,-58,-8,-8,-1,-4,3,-20,0.500693768
12.700182,-6,18,4,6,32,12,-1,15,0.500693768
12.702945,34,-34,-4,10,-6,-9,6,16,0.500693768
12.702954,-30,28,6,0,12,-7,-8,8,0.500693768
12.723379,27,39,1,11,0,-12,2,10,0.500693768
12.723400,12,52,-3,-10,-17,31,4,1,0.500693768
12.723937,-23,-85,-4,11,14,-26,-5,-9,0.500693768
12.723956,11,-11,-6,-5,1,-2,-6,-16,0.500693768
12.745783,-15,21,7,12,12,-2,1,3,0.500693768
12.745802,24,-18,1,3,-16,-6,3,18,0.500693768
12.746956,-32,43,-1,-2,17,14,-2,-10,0.500693768
12.746969,40,-2,-4,4,-6,-4,-4,0,0.500693768
12.759998,-16,-8,0,0,6,6,-1,-2,0.500693768
12.760016,-8,5,-4,-8,-19,-27,-9,20,0.500693768
12.763007,-17,48,4,-11,-33,11,-8,-21,0.500693768
12.763016,-2,-55,-7,0,15,-2,0,-9,0.500693768
12.783530,5,40,2,-9,-16,5,5,11,0.500693768
12.783539,-16,-33,-5,-2,4,0,16,15,0.500693768
12.783727,14,21,0,4,53,3,8,46,0.500693768
12.783734,33,1,-2,0,-38,2,-12,-29,0.500693768
12.805705,3,25,-2,-13,11,24,-3,37,0.499247118
12.805730,-3,-28,0,6,10,-12,2,-1,0.499247118
12.808084,-20,6,-2,-7,7,2,3,-13,0.499247118
12.808100,-16,25,1,1,-7,-5,2,14,0.499247118
12.820358,20,-34,-6,5,-21,-21,-7,-2,0.499247118
12.820389,-30,7,0,4,6,5,-10,-22,0.499247118
12.823636,51,42,2,9,12,23,12,25,0.499247118
12.823657,-48,0,12,-3,18,-4,-15,40,0.499247118
12.844081,-14,-67,-2,-2,9,2,14,-4,0.499247118
12.844097,-1,-5,3,-6,-18,-18,-12,5,0.499247118
12.844103,12,18,4,2,0,-1,-3,-14,0.499247118
12.844109,31,18,2,-7,-13,-9,1,-24,0.499247118
12.865789,-11,-19,-7,3,12,-1,-1,-15,0.499247118
12.865813,-18,14,-3,0,21,12,3,-16,0.499247118
12.867846,-31,-31,2,-9,-15,-2,-6,-2,0.499247118
12.867862,33,-1,-5,-1,13,0,7,-5,0.499247118
12.880022,-38,70,1,-5,-8,-8,-8,-5,0.499247118
12.880040,52,-82,-8,-1,-21,2,-8,-7,0.499247118
12.880786,-8,13,-3,-14,5,4,0,-53,0.499247118
12.880820,-27,-27,-2,17,49,-7,0,18,0.499247118
12.903384,-8,33,7,13,29,-3,-3,-6,0.499247118
12.903400,-2,7,-1,-4,-34,-16,-7,0,0.499247118
12.905504,4,-12,0,-3,18,-10,1,1,0.499247118
12.905517,14,15,-2,-17,-33,-3,1,-12,0.499247118
12.925721,-14,-24,-2,-3,0,2,-3,2,0.499247118
12.925754,-19,6,1,-1,11,-4,9,4,0.499247118
12.926422,3,-12,-3,1,6,4,-13,1,0.499247118
12.928999,5,10,-4,2,-18,9,17,-4,0.499247118
12.939447,-5,3,5,11,46,-8,-26,-69,0.499247118
12.939472,15,12,-2,-10,-20,1,20,4,0.499247118
12.947717,-22,-16,4,-2,-43,3,-3,7,0.499247118
12.947750,-39,-6,0,-3,10,-30,-12,-27,0.499247118
12.963346,19,-22,-7,-1,-31,-15,12,-3,0.499247118
12.963378,21,-9,-5,6,-3,19,-8,-1,0.499247118
12.966114,-9,18,-2,3,-6,-9,-5,7,0.499247118
12.966122,-4,-23,4,-10,3,6,3,-6,0.499247118
12.985770,5,27,1,-20,-102,2,-11,9,0.499247118
12.985825,-1,-8,10,19,26,-13,8,-45,0.499247118
12.986436,25,-2,-8,-5,25,12,3,35,0.499247118
12.986470,9,2,-2,-2,-4,10,2,3,0.499247118
12.999762,-2,6,-5,-5,0,-5,-7,-3,0.499247118
12.999777,-2,32,1,4,-6,-5,-9,8,0.499247118
13.007541,-13,-19,-1,1,-2,-2,2,-14,0.499247118
13.009463,17,45,4,3,-17,-3,-2,7,0.499247118
13.023288,-17,-27,4,-3,28,3,3,18,0.499247118
13.023308,0,-50,-10,-9,18,7,11,64,0.499247118
13.026048,-2,-1,7,15,15,-16,-9,-21,0.499247118
13.026092,58,7,-3,-4,25,64,7,23,0.499247118
13.048174,-65,26,6,7,31,-16,6,11,0.499247118
13.048189,13,16,0,2,-22,-14,-9,-12,0.499247118
13.048195,9,-26,-5,-11,-12,8,-1,14,0.499247118
13.048201,-6,-18,4,2,17,9,-1,-2,0.499247118
13.059559,1,0,-2,1,1,4,3,-6,0.494181599
13.059580,12,36,4,-4,1,0,0,-4,0.494181599
13.067934,-80,-43,-15,-19,-40,-17,-3,-59,0.494181599
13.067965,-28,-29,-3,12,18,-10,-12,27,0.494181599
13.083383,52,1,-4,-5,-6,6,8,5,0.494181599
13.083415,-17,-49,-13,-1,31,15,-8,-8,0.494181599
13.085790,28,57,7,5,-19,-34,-3,12,0.494181599
13.085797,-17,8,9,9,-7,9,-7,-18,0.494181599
13.105768,4,1,-3,-6,-6,-3,-3,3,0.494181599
13.105783,-14,8,8,5,-5,1,0,-3,0.494181599
13.108088,10,14,-3,-1,6,4,-3,-7,0.494181599
13.108109,-29,-23,-11,-7,-8,-12,-4,-14,0.494181599
13.119714,41,2,0,0,-7,2,3,16,0.494181599
13.119747,-27,7,-2,-6,-17,-5,-6,-25,0.494181599
13.127795,24,-7,3,-1,15,13,5,68,0.494181599
13.127827,16,19,-1,-9,-16,-19,0,-3,0.494181599
13.143211,-59,-34,-3,4,-18,5,-2,-15,0.494181599
13.143224,6,30,1,-12,10,18,7,6,0.494181599
13.143961,6,-51,-4,9,33,-5,-12,-17,0.494181599
13.143998,-26,36,-8,-6,-8,-1,4,-1,0.494181599
13.165786,22,-79,-4,-3,10,-4,1,9,0.494181599
13.165808,-1,21,0,-2,-15,-8,-3,6,0.494181599
13.168293,-9,17,2,6,-10,-1,1,-2,0.494181599
13.168304,26,22,4,-4,2,-12,5,0,0.494181599
13.179679,-11,16,6,8,-18,3,-24,-70,0.494181599
13.179705,3,6,2,-13,-29,3,27,5,0.494181599
13.187787,-3,-34,-16,-12,25,32,-8,-9,0.494181599
13.187808,-2,-14,3,-3,-8,-81,-10,-13,0.494181599
13.203674,0,29,-7,1,9,7,7,-2,0.494181599
13.203681,8,-33,-5,1,2,-9,-12,4,0.494181599
13.203730,-4,26,6,3,-3,-2,-1,-8,0.494181599
13.203752,27,18,2,-6,-28,15,2,2,0.494181599
13.225662,1,1,-6,7,19,1,-4,-8,0.494181599
13.225687,-34,32,1,2,1,-16,-12,-10,0.494181599
13.226289,29,-55,-6,-4,-2,8,25,17,0.494181599
13.226307,-27,-9,-5,6,9,1,-2,18,0.494181599
13.239680,35,32,7,-18,-43,16,11,21,0.494181599
13.239705,-2,-26,-12,-6,25,25,-14,12,0.494181599
13.247789,10,30,4,9,-18,-11,-6,-14,0.494181599
13.247816,-9,-19,-4,-6,-13,9,9,-12,0.494181599
13.263639,13,15,-2,-7,11,-1,-7,16,0.494181599
13.263672,-6,-4,-3,-4,2,-7,11,-8,0.494181599
13.266389,0,12,6,-2,-5,1,1,-3,0.494181599
13.266398,12,42,0,-2,-6,11,0,21,0.494181599
13.285797,-13,-106,-9,0,11,-11,-7,6,0.494181599
13.285836,-15,6,-3,-4,-20,-5,-11,-2,0.494181599
13.286388,11,29,-1,0,-2,-1,-4,-2,0.494181599
13.286423,-3,-31,-7,5,9,2,0,4,0.494181599
13.308384,24,31,4,-4,0,7,1,-1,0.487308894
13.308406,11,-8,5,3,1,-7,-12,27,0.487308894
13.310075,-24,5,-4,-4,-14,-14,-2,-35,0.487308894
13.310094,-11,-15,-7,-8,24,13,-12,-26,0.487308894
13.322280,20,25,4,0,13,12,21,22,0.487308894
13.322310,-11,0,1,4,-18,-41,-33,-13,0.487308894
13.332126,22,-51,-7,12,56,16,7,7,0.487308894
13.332135,21,-1,-1,11,-31,21,5,0,0.487308894
13.346073,-40,-24,5,-4,-19,-12,-2,-6,0.487308894
13.346090,3,-52,-4,-4,16,-9,6,32,0.487308894
13.347334,-53,19,2,-9,-29,2,-11,-16,0.487308894
13.347360,6,-24,-4,3,22,-6,-8,2,0.487308894
13.368213,-1,32,-2,3,-16,-3,8,10,0.487308894
13.368237,-21,44,1,9,25,14,5,-15,0.487308894
13.369802,34,-98,1,-4,-40,-7,-8,17,0.487308894
13.369824,-11,-45,-5,-5,2,3,9,-4,0.487308894
13.381899,16,48,4,6,11,-7,-6,-47,0.487308894
13.381924,-57,16,2,-6,-9,5,-2,-18,0.487308894
13.391112,-20,28,-7,-12,-32,-7,0,-20,0.487308894
13.391127,22,12,8,16,11,-8,-7,-6,0.487308894
13.405574,-9,-31,-7,-6,13,16,-8,4,0.487308894
13.405593,62,37,1,0,-10,-4,8,-2,0.487308894
13.407283,-33,13,0,-12,2,-8,0,19,0.487308894
13.407300,7,-19,2,29,16,21,-5,1,0.487308894
13.428157,-11,2,-1,-5,6,4,-6,10,0.487308894
13.428179,15,23,6,-1,36,18,12,-29,0.487308894
13.431302,-13,-11,-5,-13,-41,-5,-3,12,0.487308894
13.431311,-11,-3,0,-1,-19,11,2,37,0.487308894
13.441767,19,65,4,5,27,-64,-1,2,0.487308894
13.441791,24,-56,-7,2,16,-4,-2,8,0.487308894
13.452695,1,12,-2,8,17,2,4,13,0.487308894
13.452701,-46,-45,1,-13,0,-6,0,-10,0.487308894
13.465115,20,26,-3,5,-22,9,-1,-15,0.487308894
13.465148,-33,-28,-3,-13,-60,-38,-2,75,0.487308894
13.474708,10,20,5,26,103,42,22,-44,0.487308894
13.474721,1,20,0,-7,-18,-11,-19,-23,0.487308894
13.488220,6,-24,-9,-12,22,19,17,23,0.487308894
13.488286,1,2,1,-5,-97,-9,-6,-59,0.487308894
13.489776,-3,62,-2,-4,17,-11,12,4,0.487308894
13.489798,14,-79,-2,-14,7,-8,-1,14,0.487308894
13.503295,-25,-8,4,4,-1,6,-3,8,0.487308894
13.503303,15,22,-3,4,13,5,1,-25,0.487308894
13.509289,17,26,1,0,-12,-7,-11,17,0.487308894
13.509307,2,28,0,-2,-5,-2,-2,-84,0.487308894
13.525699,-35,-25,-3,-5,-13,-14,-5,-8,0.487308894
13.525718,26,20,1,-1,2,10,9,-2,0.487308894
13.527393,-7,-40,2,7,50,-9,-12,0,0.487308894
13.527529,-3,45,1,0,-9,-2,7,64,0.487308894
13.549452,-38,-56,-4,-7,-28,21,-8,46,0.487308894
13.549466,-4,1,1,4,43,1,4,4,0.487308894
13.549624,3,-46,-10,-20,-21,36,-18,2,0.487308894
13.549632,3,20,-6,-5,-43,-22,6,-4,0.487308894
13.563250,9,30,2,8,40,39,3,-13,0.510513850
13.563263,-6,-7,4,11,12,-1,-6,-9,0.510513850
13.569657,-11,28,1,-2,-44,-14,-10,-17,0.510513850
13.569685,6,13,-1,-11,1,-12,-5,-54,0.510513850
13.586180,-9,-10,-1,6,-30,2,-4,-12,0.510513850
13.586208,-8,-17,-6,-2,10,-39,3,-10,0.510513850
13.589032,16,32,-1,-5,-15,-8,6,4,0.510513850
13.589045,15,12,0,2,14,0,-5,7,0.510513850
13.608825,14,3,-3,-4,-10,-12,8,5,0.510513850
13.608846,-33,-25,-7,9,36,10,0,-2,0.510513850
13.610781,-12,-64,-6,-9,-58,-5,-3,0,0.510513850
13.610791,-37,25,5,8,42,3,-20,16,0.510513850
13.622907,40,-2,5,3,-2,-5,10,22,0.510513850
13.622931,-7,50,3,-1,-19,10,0,11,0.510513850
13.629770,45,-41,1,9,19,-6,5,73,0.510513850
13.629798,-9,11,2,0,-30,-5,-1,6,0.510513850
13.645914,-14,-10,-5,-2,10,32,3,-27,0.510513850
13.645941,-5,-9,-1,0,2,-48,-5,7,0.510513850
13.647493,6,49,1,-10,17,-3,5,2,0.510513850
13.647515,-7,-40,3,-4,24,-16,4,-20,0.510513850
13.668424,18,-15,0,10,19,-3,-7,37,0.510513850
13.668451,34,-15,-9,-7,48,45,0,0,0.510513850
13.671323,-61,21,0,9,5,0,3,-31,0.510513850
13.671338,3,-4,-1,-5,3,-5,3,0,0.510513850
13.682766,-6,16,-3,2,-27,-13,3,-27,0.510513850
13.682798,26,-28,-1,-3,-19,9,-9,10,0.510513850
13.689467,7,38,5,4,31,-4,-3,-19,0.510513850
13.689504,-2,-7,-8,-5,-21,30,8,13,0.510513850
13.705611,-15,-12,-4,-6,3,-50,1,-30,0.510513850
13.705630,-27,-3,8,0,-14,-7,-28,-53,0.510513850
13.707277,22,27,2,-14,-11,-6,-6,47,0.510513850
13.707296,-4,-18,-2,7,10,-5,10,16,0.510513850
13.728111,48,50,-7,-10,0,20,-1,-10,0.510513850
13.728129,-29,-17,0,-8,31,19,15,7,0.510513850
13.729736,36,24,7,-3,0,10,10,-34,0.510513850
13.729750,-36,-7,-7,-16,-39,4,-8,34,0.510513850
13.742319,2,12,3,1,-1,-17,-7,-2,0.510513850
13.742344,16,0,-3,-1,-5,5,0,5,0.510513850
13.750662,16,26,8,1,-29,-10,-12,-17,0.510513850
13.750678,-30,-45,-4,5,8,6,7,-6,0.510513850
13.766013,-24,-4,-3,-4,-5,-11,-9,-10,0.510513850
13.766020,31,4,-1,2,-31,-4,1,18,0.510513850
13.767048,-11,28,0,4,-4,-3,3,4,0.510513850
13.767071,29,28,-1,-6,-23,3,8,-25,0.510513850
13.788413,-35,-50,1,-2,-12,3,1,3,0.510513850
13.790504,-2,-21,-3,7,9,-5,-17,-10,0.510513850
13.790517,-12,-17,-7,2,3,-2,3,7,0.510513850
13.790520,-32,10,-2,7,13,24,-13,-29,0.510513850
13.801949,-2,40,-3,-4,72,2,2,76,0.510513850
13.801972,0,-67,-10,-20,-104,22,20,-4,0.510513850
13.812117,-26,-23,-6,12,42,18,-4,-7,0.510513850
13.812130,57,-8,-4,-6,-19,-35,1,57,0.510513850
13.825750,0,30,5,7,14,42,1,-16,0.531690795
13.825768,-15,22,-2,0,6,-10,-5,12,0.531690795
13.827880,-13,-25,-2,-8,-3,14,-2,10,0.531690795
13.827898,17,94,10,4,3,-11,-5,-29,0.531690795
13.848743,-14,-93,-9,-6,-12,-15,-6,-22,0.531690795
13.848770,3,13,-1,4,15,-3,5,7,0.531690795
13.849680,-7,-9,1,3,-18,-13,-7,-14,0.531690795
13.851468,13,23,3,7,25,4,-2,3,0.531690795
13.862041,3,36,8,-14,-49,-28,14,-24,0.531690795
13.862051,-27,-14,-12,2,53,20,-25,1,0.531690795
13.874046,6,-1,-1,1,0,-18,-6,-7,0.531690795
13.874064,-7,-41,-10,-5,3,-1,7,-3,0.531690795
13.893222,-24,5,-4,-4,-17,5,-6,3,0.531690795
13.893237,-3,-52,2,-2,-13,-18,3,-65,0.531690795
13.894811,27,15,7,-14,8,2,6,-5,0.531690795
13.894833,1,22,5,1,1,3,-3,-4,0.531690795
13.908239,-10,-60,-6,0,33,-3,-2,-5,0.531690795
13.908256,27,51,2,-4,-35,-4,8,8,0.531690795
13.909681,-29,-61,-11,-3,0,-8,-8,15,0.531690795
13.909696,-5,-8,0,-6,-8,5,4,-13,0.531690795
13.922150,57,34,-1,1,-3,-25,-4,25,0.531690795
13.922162,-4,37,5,0,-13,72,1,18,0.531690795
13.932800,14,25,-2,-8,-17,-2,-1,3,0.531690795
13.932808,-37,-64,-2,11,3,-9,3,15,0.531690795
13.945998,26,30,-4,-2,14,21,-10,15,0.531690795
13.946029,-11,-65,0,4,8,26,20,-9,0.531690795
13.948671,9,22,2,-6,-49,-13,-2,-2,0.531690795
13.948679,27,21,6,17,13,8,-3,-5,0.531690795
13.968174,-36,-8,4,15,28,0,-6,-11,0.531690795
13.968210,34,26,7,-2,-4,-3,6,33,0.531690795
13.969604,-17,1,-7,0,13,10,4,-16,0.531690795
13.969611,29,5,2,-4,-3,-22,0,0,0.531690795
13.981910,-1,-17,-4,-6,-30,9,-1,-8,0.531690795
13.982055,-21,27,5,2,-8,-33,-12,-43,0.531690795
13.992182,-10,-20,1,18,30,-8,8,-13,0.531690795
13.992194,-20,-45,-8,-9,-7,5,-8,-35,0.531690795
14.005950,22,48,3,-2,18,-4,-5,-6,0.531690795
14.005974,-29,-46,-6,-5,22,-20,-9,-10,0.531690795
14.008220,28,-16,-2,2,-10,0,13,18,0.531690795
14.008237,-36,33,1,-11,3,5,2,59,0.531690795
14.030668,-21,-25,7,-6,-11,-11,-6,-16,0.531690795
14.030678,-5,56,6,-1,-76,-16,1,22,0.531690795
14.030681,41,-33,-6,9,49,18,-13,-31,0.531690795
14.030714,-10,-11,1,-7,6,-6,1,-4,0.531690795
14.041920,4,-3,6,6,-23,18,-3,-25,0.531690795
14.044075,-14,-37,1,-5,62,17,-7,17,0.531690795
14.052857,-28,30,-5,-5,-33,-24,-2,-1,0.531690795
14.052867,22,-17,7,3,34,5,1,-6,0.531690795
14.065934,-5,-40,-5,-11,-21,4,6,-11,0.531690795
14.065959,14,26,1,3,13,20,0,-13,0.531690795
14.068561,-3,-9,2,4,9,2,-2,-2,0.531690795
14.068568,3,21,-4,-7,-24,-15,-4,-21,0.531690795
14.088726,-18,24,-3,0,-5,-8,0,-54,0.530190064
14.088763,12,-9,-1,2,3,-12,9,22,0.530190064
14.091366,5,27,1,-5,-7,-6,-12,-15,0.530190064
14.091378,40,31,-8,-8,-29,-6,4,12,0.530190064
14.101936,-53,-11,2,0,3,-4,1,-6,0.530190064
14.101956,5,15,-1,-1,-16,-31,3,-28,0.530190064
14.113146,-9,-57,4,-3,-19,27,-15,1,0.530190064
14.113157,-3,-33,-8,23,64,21,-9,-22,0.530190064
14.125701,25,-10,-10,-12,-21,-13,2,14,0.530190064
14.125715,8,15,6,-4,42,-8,1,26,0.530190064
14.127159,-16,40,1,4,-22,-11,17,13,0.530190064
14.127167,18,2,4,-7,-18,0,-6,-4,0.530190064
14.148281,2,-4,-4,3,35,1,-1,25,0.530190064
14.148305,-3,20,3,7,0,-16,2,-10,0.530190064
14.151463,-10,22,-1,-15,-27,25,-2,0,0.530190064
14.151471,26,-21,3,8,-2,2,8,-4,0.530190064
14.162318,-10,-19,-9,2,7,-11,-12,24,0.530190064
14.162351,0,-2,-5,-11,-4,17,5,13,0.530190064
14.172488,48,-35,-4,3,-8,30,0,-15,0.530190064
14.172507,-75,8,0,1,33,-30,-6,-40,0.530190064
14.188076,13,36,3,-8,-37,2,12,32,0.530190064
14.188085,-16,3,0,4,-11,-27,-32,-4,0.530190064
14.188088,-8,-23,-4,-9,32,-8,0,9,0.530190064
14.188091,15,19,2,0,-18,16,2,18,0.530190064
14.208257,13,-20,-4,1,-22,-7,-8,-10,0.530190064
14.208274,10,47,0,5,4,0,8,19,0.530190064
14.210172,-31,-76,-2,-4,19,-19,-7,4,0.530190064
14.210193,2,16,-2,-14,-53,-8,-2,4,0.530190064
14.230926,18,14,-4,5,58,17,12,-23,0.530190064
14.230959,16,9,0,-3,6,-2,-2,4,0.530190064
14.233913,-11,39,4,-3,-4,-20,2,6,0.530190064
14.233924,-12,-25,-6,-13,-20,1,-6,-9,0.530190064
14.245892,14,29,4,11,1,5,9,81,0.530190064
14.245924,20,-10,0,-3,20,-10,-6,-12,0.530190064
14.248349,-34,-26,-6,12,26,6,3,-21,0.530190064
14.248361,13,2,2,-10,-2,-38,-5,3,0.530190064
14.268133,-8,17,-1,4,-10,18,-14,-68,0.530190064
14.268172,-65,-5,-4,-2,12,-17,13,6,0.530190064
14.269720,40,-60,-10,2,14,-33,-27,-2,0.530190064
14.269803,5,32,-1,-13,-34,5,-1,-5,0.530190064
14.290994,-34,-40,6,8,-10,9,9,3,0.530190064
14.291016,0,-43,-1,-4,18,3,-6,2,0.530190064
14.292837,-20,67,6,-16,-16,17,5,-72,0.530190064
14.292849,20,4,1,-4,-14,-11,-1,8,0.530190064
14.306393,7,-15,-1,11,42,-22,-13,-36,0.530190064
14.306425,7,12,-2,1,-32,14,3,-15,0.530190064
14.309445,-8,61,10,-2,1,-4,12,20,0.530190064
14.309457,38,-91,-13,5,11,14,-18,60,0.530190064
14.328493,-5,25,1,-8,-23,-16,7,1,0.531213082
14.328500,-20,4,-4,5,7,-10,-2,1,0.531213082
14.329643,-6,25,-3,-13,-26,8,-1,9,0.531213082
14.329651,-11,37,2,14,56,17,-1,-20,0.531213082
14.351038,-2,-8,0,-4,7,-3,-5,9,0.531213082
14.351071,18,-31,-7,-14,-59,9,1,21,0.531213082
14.353374,8,25,0,10,20,9,-13,10,0.531213082
14.353381,-27,-13,1,5,-13,-34,7,-6,0.531213082
14.366078,1,-10,-2,-6,1,-4,-5,-15,0.531213082
14.366110,4,79,-5,-10,-30,-22,0,1,0.531213082
14.367850,-5,-87,-3,27,31,10,4,24,0.531213082
14.367856,-36,-15,2,2,-22,62,3,-14,0.531213082
14.390976,-28,2,-2,-4,15,-9,-3,-9,0.531213082
14.390992,25,-5,-1,-5,-27,-6,7,-37,0.531213082
14.390996,68,38,3,1,13,-3,-2,87,0.531213082
14.390998,-48,19,-1,-11,-24,-8,8,-11,0.531213082
14.411082,-6,-24,-7,-8,-6,33,-1,6,0.531213082
14.411105,-15,-7,6,10,0,12,-13,-6,0.531213082
14.414545,-6,-27,-9,4,-21,-8,4,-22,0.531213082
14.414557,0,-7,-8,-14,3,-9,-3,-15,0.531213082
14.425083,13,17,7,0,-25,-14,4,33,0.531213082
14.425108,2,10,-2,-4,-3,-18,-12,-8,0.531213082
14.432219,-4,-50,-6,-7,11,8,14,-23,0.531213082
14.432243,10,20,-2,4,7,-6,-4,6,0.531213082
14.448917,-17,10,-5,-4,-15,0,6,-35,0.531213082
14.448950,21,-8,5,15,24,20,9,-7,0.531213082
14.452090,7,26,4,1,-5,-26,-19,-6,0.531213082
14.452127,12,35,-1,-6,-15,-4,1,15,0.531213082
14.470713,0,-45,0,2,-12,12,-8,-23,0.531213082
14.470748,-7,-20,-3,-1,37,20,3,2,0.531213082
14.472113,20,64,2,-12,-74,-3,11,58,0.531213082
14.472125,-22,-85,-10,19,51,43,2,-16,0.531213082
14.485087,14,16,-5,-7,-9,-23,-15,22,0.531213082
14.485187,-9,7,-1,-3,23,8,12,-27,0.531213082
14.491803,-33,-26,-1,-2,-45,-23,-22,-70,0.531213082
14.491822,41,27,-2,-15,21,17,-7,21,0.531213082
14.508368,-13,2,-1,0,29,-12,2,9,0.531213082
14.508389,-20,-31,-7,-3,-45,16,10,-5,0.531213082
14.510502,0,52,1,-3,28,11,6,-12,0.531213082
14.510512,-9,-30,1,-8,-17,-11,-2,3,0.531213082
14.531624,27,-1,4,12,20,-4,-7,0,0.531213082
14.531631,2,56,4,-19,-55,-16,-7,-6,0.531213082
14.531989,-30,-54,-8,21,50,-36,-18,45,0.531213082
14.532026,5,25,4,-18,-4,4,7,-37,0.531213082
14.546158,8,-10,-5,6,-13,4,7,24,0.531213082
14.546175,18,15,6,0,15,-6,-5,19,0.531213082
14.552148,-14,31,1,-12,-15,6,4,-38,0.531213082
14.552169,14,-6,-5,9,8,-21,-4,12,0.531213082
14.568143,-6,-12,-5,-3,18,28,3,-6,0.531213082
14.568167,-18,-6,2,9,11,-24,-6,-2,0.531213082
14.569709,7,-5,3,2,6,1,6,-18,0.531213082
14.569724,20,3,6,7,-9,-6,2,85,0.531213082
14.590881,19,47,-2,-17,3,7,-12,-27,0.532010771
14.590915,-24,-41,-3,5,-25,25,-6,12,0.532010771
14.593301,19,-23,-4,6,35,-13,1,6,0.532010771
14.593320,-53,-42,-4,7,16,8,16,-15,0.532010771
14.605274,32,19,1,-4,10,-20,-4,9,0.532010771
14.605297,-8,7,1,4,-6,24,-2,-26,0.532010771
14.612305,-12,-8,4,-3,-55,-9,3,25,0.532010771
14.612337,-10,30,-2,1,-8,-18,-20,-37,0.532010771
14.628286,-17,2,10,-6,29,2,16,7,0.532010771
14.628306,3,-50,-12,-4,-6,27,-7,10,0.532010771
14.631859,-12,63,2,-8,0,-59,6,-11,0.532010771
14.631870,13,-55,-4,4,-49,-12,-5,-9,0.532010771
14.650861,-30,7,-1,-1,28,16,-7,12,0.532010771
14.650884,5,-6,-4,5,-21,-38,2,31,0.532010771
14.652919,12,41,-2,-16,28,62,11,2,0.532010771
14.652930,53,85,6,3,12,-15,-13,9,0.532010771
14.665379,-48,-52,-5,0,-36,-3,6,-27,0.532010771
14.665412,-5,-22,-1,0,26,-5,-4,-14,0.532010771
14.671925,22,-13,-3,-6,-17,11,5,5,0.532010771
14.671946,-7,-12,2,2,6,1,-1,0,0.532010771
14.688230,30,1,-5,-6,-63,2,-3,-33,0.532010771
14.688274,-1,8,-1,1,13,-9,-3,13,0.532010771
14.689768,-29,-24,-4,-9,20,-12,2,-9,0.532010771
14.689794,-12,9,0,-8,11,18,3,-14,0.532010771
14.710815,16,20,-1,7,-33,-19,2,-23,0.532010771
14.710841,-18,-14,-1,-8,61,21,-18,-34,0.532010771
14.712288,-24,-49,-5,2,-8,11,-1,-32,0.532010771
14.712303,-20,-7,-3,4,6,-5,-3,-9,0.532010771
14.724318,-14,-4,-5,-6,-28,-3,3,8,0.532010771
14.724345,37,39,0,11,47,25,5,-14,0.532010771
14.733239,-16,-41,2,3,0,2,-4,-16,0.532010771
14.733263,23,6,1,0,8,10,0,-9,0.532010771
14.748343,-12,24,3,-11,-14,-20,-8,21,0.532010771
14.748350,3,-19,-3,-5,19,-16,2,-17,0.532010771
14.749589,-2,15,2,9,-5,35,-12,9,0.532010771
14.749596,0,20,-2,-2,-27,0,20,6,0.532010771
14.770775,7,10,1,-7,4,-7,-1,-2,0.532010771
14.770793,8,9,4,11,-11,-12,-7,1,0.532010771
14.773939,-8,-4,-3,-2,-14,10,0,-74,0.532010771
14.773953,26,26,0,-7,3,17,10,-7,0.532010771
14.784778,-29,-10,-6,10,28,-4,-34,32,0.532010771
14.784810,11,81,7,-6,-4,-24,6,5,0.532010771
14.795235,50,-79,-9,-15,-38,-6,-11,-12,0.532010771
14.795245,-76,0,-5,15,2,8,-2,-32,0.532010771
14.808215,47,14,3,-2,13,12,24,8,0.532010771
14.808240,-4,-18,-7,-11,-26,17,-8,17,0.532010771
14.810570,36,58,1,-1,6,-24,-9,18,0.532010771
14.810579,-20,-17,-6,-5,1,-9,-10,-6,0.532010771
14.830815,-7,-3,0,-2,3,-5,2,4,0.532010771
14.830832,-18,-24,-4,-3,-5,9,4,-15,0.532010771
14.832095,-4,31,4,-3,-5,4,5,23,0.532010771
14.832109,18,-19,-3,3,34,-11,-7,-2,0.532010771
14.844408,-7,54,10,6,36,-3,3,11,0.539176406
14.844428,-2,-110,-16,2,-28,4,-4,8,0.539176406
14.860766,-28,1,1,-4,17,-25,1,-33,0.539176406
14.860788,-24,7,-1,-15,-18,-15,0,-30,0.539176406
14.868501,39,-1,8,30,44,2,-12,24,0.539176406
14.868526,0,35,8,-1,-5,5,-6,-46,0.539176406
14.870306,20,-33,-8,-6,-3,4,12,18,0.539176406
14.870316,-32,-6,-2,-3,2,10,-9,-27,0.539176406
14.892210,-4,19,-2,-8,-40,-11,2,-15,0.539176406
14.892222,-2,-79,-6,-1,4,-35,8,-5,0.539176406
14.892304,20,32,2,12,11,13,-4,32,0.539176406
14.892312,3,22,0,-8,-22,-11,-1,11,0.539176406
14.907318,5,-17,-4,4,-9,3,-4,-6,0.539176406
14.907331,1,39,1,-2,2,-11,0,26,0.539176406
14.916216,-9,-3,-9,-8,12,36,-5,2,0.539176406
14.916225,6,-1,6,9,-23,-66,10,35,0.539176406
14.928764,-44,-71,-13,-14,10,18,-2,-16,0.539176406
14.928796,8,15,2,10,11,7,-8,-4,0.539176406
14.931535,-8,16,4,-1,-34,-5,7,14,0.539176406
14.931542,25,-22,2,4,9,29,2,8,0.539176406
14.951169,5,-14,-1,2,-32,-2,-4,10,0.539176406
14.951202,12,52,9,-7,-11,-13,21,15,0.539176406
14.954183,-55,-65,-12,-4,-79,-1,-71,31,0.539176406
14.954194,-32,-43,-13,1,47,5,42,-10,0.539176406
14.964376,21,-7,-6,-9,-20,-21,-7,-24,0.539176406
14.964393,6,-3,-1,-9,9,13,-5,11,0.539176406
14.975409,8,54,9,6,-4,-10,14,-5,0.539176406
14.975421,30,59,7,4,-2,15,-18,-7,0.539176406
14.989088,-26,-71,-6,-5,1,4,-2,-4,0.539176406
14.989306,-13,46,1,-4,-11,-14,8,-15,0.539176406
14.989705,7,-27,-8,-9,29,-8,-2,-22,0.539176406
14.989727,-29,-23,-1,0,-10,5,-7,9,0.539176406
15.011078,-11,34,1,1,13,-2,9,-2,0.539176406
15.011104,33,5,4,1,-11,-1,-10,0,0.539176406
15.013121,7,31,8,10,14,-4,8,3,0.539176406
15.013135,36,31,-3,-3,31,25,10,29,0.539176406
15.024495,-28,-54,1,-2,-42,-7,-5,-31,0.539176406
15.024514,-25,5,-4,-1,-26,-5,7,66,0.539176406
15.035353,-5,-30,-2,12,32,46,11,-13,0.539176406
15.035388,10,33,7,0,12,-36,-13,-3,0.539176406
15.049019,23,49,4,2,-13,-8,-1,-42,0.539176406
15.049037,-8,-29,-6,-3,-10,16,-4,-8,0.539176406
15.049683,-20,32,6,-1,-4,-20,14,7,0.539176406
15.049690,29,7,0,-18,-22,4,-4,89,0.539176406
15.070980,7,-36,3,12,53,-5,-22,-7,0.539176406
15.071007,1,-17,-7,-10,-3,5,4,-4,0.539176406
15.073122,-28,-24,-6,-6,3,-11,0,-18,0.539176406
15.073145,-8,35,12,0,-9,4,-9,-40,0.539176406
15.084487,34,-25,-13,-9,-2,-5,3,20,0.539176406
15.084519,-16,9,4,-4,5,-9,-2,1,0.539176406
15.095074,17,27,4,1,18,-6,-1,3,0.539176406
15.095081,24,0,-11,1,-46,-22,-18,-18,0.539176406
15.109325,-43,14,-7,-24,-10,22,25,-17,0.540194919
15.109336,19,51,-1,5,54,16,-17,14,0.540194919
15.109692,-6,-57,-12,-10,-55,-5,12,-9,0.540194919
15.109699,6,-2,3,6,9,-5,-34,-8,0.540194919
15.140912,8,62,5,0,6,-9,7,11,0.540194919
15.140926,-2,-7,-3,-2,5,-7,3,-23,0.540194919
15.140929,5,33,3,4,26,13,0,1,0.540194919
15.140932,-19,-15,-2,-19,-31,-62,6,52,0.540194919
15.144782,32,10,-1,16,-6,17,-14,44,0.540194919
15.144801,-13,-33,-7,-8,20,14,7,-31,0.540194919
15.155688,32,15,5,3,-16,11,-1,44,0.540194919
15.155702,-33,-43,1,-1,2,29,11,-35,0.540194919
15.168864,-17,34,7,-8,-5,-4,-10,-26,0.540194919
15.168915,3,-20,-1,0,-20,-23,-4,-14,0.540194919
15.171991,3,5,-6,1,26,4,1,-6,0.540194919
15.172003,-7,-5,-1,-11,-20,5,-15,-72,0.540194919
15.190693,-51,-75,-9,6,52,2,16,25,0.540194919
15.190715,-2,60,4,7,-64,47,9,-1,0.540194919
15.192267,-12,-41,-3,-9,-15,-89,-8,-6,0.540194919
15.192295,6,32,-2,5,29,-3,-5,-4,0.540194919
15.220799,20,33,3,-6,-19,31,-5,-3,0.540194919
15.220807,-22,-42,-5,-4,34,10,-4,-3,0.540194919
15.222216,-4,69,-2,-8,0,13,5,-19,0.540194919
15.222239,18,-102,-8,17,-21,-1,7,1,0.540194919
15.228687,41,10,-1,7,-17,-12,-3,21,0.540194919
15.228719,-5,-2,0,-8,13,-17,3,9,0.540194919
15.231185,-33,42,7,0,-4,5,-4,-1,0.540194919
15.231192,32,-25,-10,-9,-15,5,-2,-10,0.540194919
15.251290,-47,6,5,1,6,19,0,-9,0.540194919
15.251298,22,9,1,8,-6,-16,2,42,0.540194919
15.252047,15,-41,-5,-19,-36,-7,-6,-8,0.540194919
15.252055,-39,-6,-5,9,21,65,-6,-23,0.540194919
15.273423,26,-26,0,2,-28,-56,18,-36,0.540194919
15.273456,-39,32,0,0,-33,5,-7,2,0.540194919
15.275597,-1,-53,-2,6,9,-12,-3,13,0.540194919
15.275609,2,13,0,-10,8,31,0,-6,0.540194919
15.288714,4,-23,-11,-8,-11,6,9,-4,0.540194919
15.288748,16,-7,3,9,27,-23,-27,-14,0.540194919
15.291613,-23,15,3,-2,-6,15,7,66,0.540194919
15.291627,17,-7,4,6,-5,-10,13,2,0.540194919
15.312688,16,26,6,4,21,0,-9,11,0.540194919
15.312700,15,11,0,11,-12,-16,7,0,0.540194919
15.312704,-49,-60,-7,-2,18,12,-7,-39,0.540194919
15.312707,31,29,6,7,30,-17,3,21,0.540194919
15.333298,-11,-15,-9,-17,-23,1,-13,-20,0.540194919
15.333315,5,-1,-7,-5,58,14,-4,-30,0.540194919
15.335927,13,34,5,5,-14,-5,8,7,0.540194919
15.335937,-18,17,-1,3,48,12,12,9,0.540194919
15.347547,6,-14,-7,6,9,-8,1,-10,0.540194919
15.347564,-12,-32,-1,-5,-34,-4,-4,-4,0.540194919
15.354617,10,14,-1,1,11,2,-4,-19,0.529775452
15.354641,-13,45,2,-3,-16,-13,7,34,0.529775452
15.371145,-4,0,-3,-9,-10,-9,-6,-2,0.529775452
15.371180,-13,-13,3,2,4,-7,3,-5,0.529775452
15.374097,26,-21,-5,-5,1,2,-1,-1,0.529775452
15.374113,-30,-43,1,5,-16,1,-5,-27,0.529775452
15.393132,-2,32,5,15,3,1,-6,14,0.529775452
15.393145,-2,-1,-1,-7,-13,-27,1,-12,0.529775452
15.394688,10,25,2,7,-27,47,10,-17,0.529775452
15.394724,27,11,-3,-8,-40,-40,-15,-5,0.529775452
15.408340,-25,20,4,3,2,4,4,12,0.529775452
15.408360,4,-94,-9,5,13,17,-10,46,0.529775452
15.416646,3,24,0,-10,-3,-13,-1,-6,0.529775452
15.416661,4,21,-5,-7,-10,7,7,-2,0.529775452
15.430694,2,-14,2,-6,-14,-4,2,-32,0.529775452
15.430718,-20,-12,-2,4,-11,-7,2,-26,0.529775452
15.432260,-5,10,-1,1,22,1,-17,-32,0.529775452
15.432275,5,-29,-1,0,-2,5,0,-3,0.529775452
15.454544,5,7,-1,-1,0,5,-3,-13,0.529775452
15.454551,26,37,4,-1,-6,3,2,-10,0.529775452
15.454555,15,-27,-4,-8,10,-31,-5,-4,0.529775452
15.454602,-60,48,2,-11,8,23,2,-8,0.529775452
15.470292,43,-74,-5,-4,-7,-11,-2,7,0.529775452
15.470299,-25,-5,-1,0,-9,-10,2,-17,0.529775452
15.481725,17,5,4,7,6,-27,1,31,0.529775452
15.481742,-8,9,-4,-6,-30,7,-20,-10,0.529775452
15.490765,10,65,-3,-7,5,1,7,15,0.529775452
15.490956,-26,-18,-3,-7,2,2,2,32,0.529775452
15.492929,-7,-5,1,3,9,-1,1,-13,0.529775452
15.492950,4,-12,1,-3,8,-11,-2,8,0.529775452
15.513625,-13,34,5,-1,-22,3,-4,20,0.529775452
15.513644,26,59,1,9,24,-6,-3,-25,0.529775452
15.515519,-43,-50,-13,0,24,4,-19,-57,0.529775452
15.515531,25,8,1,4,5,19,6,21,0.529775452
15.527784,-3,-45,-7,-15,-35,-33,-10,9,0.529775452
15.527815,-15,43,4,-3,10,-60,9,0,0.529775452
15.534444,5,15,7,12,-33,43,-7,38,0.529775452
15.534525,6,-10,-8,-5,44,-56,9,-14,0.529775452
15.550940,13,33,11,10,1,9,6,-10,0.529775452
15.550967,13,-19,-7,-5,-13,11,-5,5,0.529775452
15.552035,-4,-1,-1,1,-9,-13,3,1,0.529775452
15.552050,-13,-16,2,3,16,8,0,3,0.529775452
15.573509,-37,32,1,-1,5,6,-4,16,0.529775452
15.573535,24,-86,-12,-13,-7,-2,-5,-8,0.529775452
15.575888,7,22,-1,6,29,12,7,2,0.529775452
15.575905,-1,-4,-5,-5,-26,9,0,-9,0.529775452
15.588176,-16,-8,-2,0,39,-8,-11,-16,0.529775452
15.588207,8,-5,3,0,-33,22,12,-4,0.529775452
15.594329,19,1,-5,-4,14,-6,3,3,0.529775452
15.594358,-19,-3,0,-5,-49,-1,1,-13,0.529775452
15.610650,22,22,2,14,47,8,-5,8,0.531821488
15.610665,-13,24,0,5,-5,4,0,49,0.531821488
15.612175,8,-58,8,-3,-30,-7,-3,-1,0.531821488
15.612182,53,13,-9,-1,-3,-8,-3,29,0.531821488
15.633347,-84,-17,1,5,4,6,2,7,0.531821488
15.633379,-31,6,-1,-10,11,10,3,-23,0.531821488
15.635892,41,12,-5,-2,-1,-6,-5,-13,0.531821488
15.635908,-24,-10,6,-1,-8,-9,11,-2,0.531821488
15.647574,15,6,-5,-12,3,42,4,-44,0.531821488
15.647600,20,4,1,5,10,-6,-4,-17,0.531821488
15.656855,-54,13,0,-3,-15,23,-5,-1,0.531821488
15.656871,11,-12,-5,0,31,9,0,1,0.531821488
15.672737,-4,-56,-10,5,-18,-12,-11,-10,0.531821488
15.672752,2,62,9,0,-1,12,6,-2,0.531821488
15.672756,-6,-8,-9,-12,-13,-19,-3,12,0.531821488
15.672759,-6,-54,-4,1,-6,7,10,-4,0.531821488
15.693183,16,20,4,-2,-3,8,6,4,0.531821488
15.693208,17,-4,-6,-3,-7,-5,-6,-8,0.531821488
15.694680,15,52,10,6,13,-9,-1,52,0.531821488
15.694695,-52,-1,-3,-2,-7,-1,-10,-10,0.531821488
15.707077,-20,-15,-2,-3,-2,-8,0,9,0.531821488
15.707106,49,-11,2,1,-29,-26,-5,2,0.531821488
15.717641,13,4,1,1,11,21,-7,-8,0.531821488
15.717658,-25,-17,2,1,-9,0,-6,13,0.531821488
15.730721,27,-23,1,-1,7,-8,2,50,0.531821488
15.730741,-37,5,-7,-6,-3,1,-10,-15,0.531821488
15.733002,-7,15,-5,2,0,1,5,-11,0.531821488
15.733014,25,1,4,5,10,-1,-5,-4,0.531821488
15.753443,39,36,1,-5,-19,-4,-1,2,0.531821488
15.753490,-50,0,0,3,13,6,-4,-32,0.531821488
15.754676,-18,-19,-3,-2,-6,-7,13,4,0.531821488
15.754700,27,15,-1,12,22,-14,-33,-15,0.531821488
15.766966,6,26,4,-8,17,25,4,4,0.531821488
15.766989,11,-65,-4,-2,24,23,-2,-40,0.531821488
15.777302,-36,-14,-5,-3,-19,-65,13,-66,0.531821488
15.777317,9,29,-1,-11,-3,-5,-3,-1,0.531821488
15.790779,-16,-4,-3,2,-10,-17,-2,-1,0.531821488
15.790804,22,37,7,4,-14,11,2,24,0.531821488
15.793040,-45,-12,4,3,10,-8,-8,-19,0.531821488
15.793051,19,-31,-16,-10,-26,49,6,1,0.531821488
15.813383,1,-32,2,2,-14,-86,-2,12,0.531821488
15.813428,-9,6,-6,-16,-30,-6,-11,1,0.531821488
15.814580,41,15,-2,17,28,8,8,20,0.531821488
15.814587,-42,25,5,-3,-15,-12,-5,21,0.531821488
15.828096,9,14,-1,1,11,15,1,12,0.531821488
15.828109,-22,-1,-1,-8,-5,-7,-2,-1,0.531821488
15.837292,31,12,3,2,-18,-3,-4,57,0.531821488
15.837306,13,4,-1,3,15,-2,1,-14,0.531821488
15.850839,6,1,-2,-3,-3,12,-2,-25,0.531821488
15.850872,-6,-12,-5,3,15,-4,-2,12,0.531821488
15.853162,-16,65,-3,-7,-7,1,-11,-22,0.531821488
15.853176,-46,-82,-9,-6,12,12,2,-10,0.531821488
15.874974,64,-12,-10,-25,-34,2,7,-24,0.522434048
15.874992,29,5,12,23,18,9,-9,42,0.522434048
15.874995,1,-3,5,-5,34,19,-1,-4,0.522434048
15.874998,15,50,6,1,-17,-13,11,-4,0.522434048
15.887339,-35,-35,-5,3,-5,-3,-5,-19,0.522434048
15.887367,-9,5,-3,-3,11,-2,3,-16,0.522434048
15.896168,8,-13,-3,-5,-36,5,0,-7,0.522434048
15.896197,10,33,5,0,40,-11,-6,18,0.522434048
15.911227,-23,-2,-4,-1,21,33,4,0,0.522434048
15.911255,-2,-34,-8,1,34,15,12,-4,0.522434048
15.913287,-15,24,-6,-6,-9,-11,-21,2,0.522434048
15.913296,-36,-57,-6,-13,0,18,13,46,0.522434048
15.933374,37,33,-2,-8,-14,-11,-14,-6,0.522434048
15.933400,16,37,7,13,45,8,9,43,0.522434048
15.935754,-15,-60,-2,-13,-3,24,6,-4,0.522434048
15.935766,47,38,2,11,-7,-5,4,-11,0.522434048
15.946853,-9,4,0,5,17,-5,-3,15,0.522434048
15.946871,-39,-7,-5,-20,-43,-9,-4,-15,0.522434048
15.957174,6,2,-9,-2,14,0,3,-21,0.522434048
15.957191,-3,29,1,8,-7,-24,-8,-14,0.522434048
15.970579,-10,-9,0,8,7,12,0,-4,0.522434048
15.970614,-8,11,1,0,-15,3,16,-19,0.522434048
15.972171,2,15,-1,-2,4,-14,0,14,0.522434048
15.972183,-3,-30,-2,7,48,-4,1,-70,0.522434048
15.993122,-13,28,4,-7,-53,12,-11,10,0.522434048
15.993185,17,-17,-12,-22,13,14,-1,-20,0.522434048
15.995416,-5,-47,0,10,-6,-45,-7,10,0.522434048
15.995423,-15,25,1,1,-2,-7,4,68,0.522434048
16.007392,-4,-10,1,0,-1,-6,0,-7,0.522434048
16.007413,34,21,2,6,-17,5,3,31,0.522434048
16.016457,-2,39,-2,-14,10,17,8,-9,0.522434048
16.016465,-18,-13,2,0,-9,-1,-1,-20,0.522434048
16.032412,14,-36,-3,11,18,0,2,7,0.522434048
16.032429,0,4,-1,-5,-9,-12,-18,-7,0.522434048
16.032436,13,-12,-4,-3,-13,7,-1,-7,0.522434048
16.032481,23,35,10,-4,-50,37,4,25,0.522434048
16.053514,-36,-31,-2,11,59,-9,9,7,0.522434048
16.053536,-8,21,1,1,0,25,-5,-35,0.522434048
16.055455,19,-54,1,6,8,-2,-4,-10,0.522434048
16.055467,-3,20,-2,-6,-93,-24,-8,-8,0.522434048
16.067453,6,36,4,5,44,80,21,-7,0.522434048
16.067483,-6,-87,-7,0,-7,-85,-7,4,0.522434048
16.076269,-10,37,4,10,14,27,5,86,0.522434048
16.076277,-21,-19,1,3,7,-4,-11,-50,0.522434048
16.091051,-7,31,0,-2,-31,-71,-3,4,0.522434048
16.093427,-6,19,2,2,3,6,-2,-2,0.522434048
16.093445,-22,1,-2,-6,-10,9,8,-46,0.522434048
16.093451,22,-9,-8,1,17,-13,-6,-10,0.522434048
16.113347,4,-14,1,0,-4,1,-13,1,0.522434048
16.113374,11,39,5,3,-29,16,4,3,0.522434048
16.116362,-12,-17,-4,-3,17,-11,-2,-25,0.522434048
16.116371,34,38,-2,-8,25,17,-1,8,0.522434048
16.136156,-13,-2,-5,-3,-20,-3,-8,1,0.527652800
16.136184,-4,26,-1,-1,12,-10,-2,4,0.527652800
16.139090,10,-6,5,3,-31,5,2,3,0.527652800
16.139105,27,-11,-6,3,26,-2,-9,18,0.527652800
16.151176,0,-23,-6,-4,-32,-7,-2,-11,0.527652800
16.151208,-8,31,10,5,19,1,1,0,0.527652800
16.153659,0,5,-5,-10,30,-21,-10,-26,0.527652800
16.153670,-19,1,3,-2,-15,27,3,-12,0.527652800
16.173316,10,-26,-2,-6,21,3,5,1,0.527652800
16.173335,-90,-2,-3,2,-1,3,-15,-15,0.527652800
16.174755,63,-71,-5,0,-21,49,-7,-46,0.527652800
16.174773,4,-19,0,6,18,-13,-2,6,0.527652800
16.195924,-15,25,-1,-5,-9,2,-4,-15,0.527652800
16.195957,39,28,3,-1,-1,1,2,-17,0.527652800
16.199265,-12,11,1,0,9,5,4,33,0.527652800
16.199274,8,26,0,-4,-17,-14,3,21,0.527652800
16.210726,22,15,-4,4,22,8,-4,-15,0.527652800
16.210751,-16,-56,-2,-4,-31,16,6,-11,0.527652800
16.214108,-18,25,4,-2,-15,-16,1,-4,0.527652800
16.214123,21,-40,-8,5,34,-21,-1,-2,0.527652800
16.233268,-15,38,4,5,-5,-6,0,4,0.527652800
16.233284,26,-81,-12,-16,-18,-9,-6,17,0.527652800
16.234558,-30,11,-3,6,17,10,-2,6,0.527652800
16.234565,-4,11,2,-3,-32,-26,-1,7,0.527652800
16.255790,-7,13,1,2,31,17,-2,-6,0.527652800
16.255811,3,1,-5,-3,30,-6,0,0,0.527652800
16.257885,17,26,7,5,-19,-3,-1,13,0.527652800
16.257898,-22,19,-9,-5,11,13,8,-24,0.527652800
16.271030,-41,-39,1,1,-32,-35,-32,0,0.527652800
16.271058,22,42,3,0,-3,10,9,14,0.527652800
16.273501,15,-44,-2,-1,-2,-21,-5,-34,0.527652800
16.273517,-12,11,3,10,30,16,16,20,0.527652800
16.300825,4,-45,-7,-10,-1,-2,-9,-4,0.527652800
16.300850,-12,4,-1,3,-3,-1,2,71,0.527652800
16.302130,-37,50,-2,-5,-21,0,-10,-20,0.527652800
16.302148,-55,-72,-4,-1,22,1,-3,-18,0.527652800
16.316274,25,15,4,5,-3,-6,11,0,0.527652800
16.316353,10,11,8,13,4,1,-8,-19,0.527652800
16.318945,5,14,0,3,-4,0,7,12,0.527652800
16.318951,15,25,5,-6,-23,-4,-16,7,0.527652800
16.330412,-37,-26,-5,-7,-7,13,6,-71,0.527652800
16.330436,-1,-15,-8,5,35,5,-7,-21,0.527652800
16.337099,-12,11,7,7,-8,-4,22,0,0.527652800
16.337121,5,-32,-14,-9,-89,5,-34,-10,0.527652800
16.353537,26,18,-2,5,2,4,15,52,0.527652800
16.353561,24,-18,-4,-7,-3,3,3,-15,0.527652800
16.355568,-4,22,1,2,37,-4,-3,19,0.527652800
16.355584,1,-6,3,3,12,2,9,-15,0.527652800
16.375704,-14,9,-2,-9,-23,-22,0,3,0.527652800
16.375721,0,37,-1,-3,-25,-7,-4,-42,0.527652800
16.377241,-15,-104,-13,-4,7,5,-9,38,0.513195332
16.377288,11,4,1,-5,6,-7,-1,-6,0.513195332
16.390538,19,6,4,1,-6,6,4,2,0.513195332
16.390555,-52,24,7,11,-17,-10,0,-2,0.513195332
16.396962,25,-5,-10,-18,18,6,-14,-52,0.513195332
16.396995,-5,-8,3,12,29,19,10,0,0.513195332
16.413871,-51,27,5,-17,-14,-15,4,10,0.513195332
16.413903,47,-23,-9,4,-2,-6,0,4,0.513195332
16.417280,16,89,8,1,2,22,5,-6,0.513195332
16.417290,-5,-87,-10,-9,3,-75,-5,2,0.513195332
16.437141,-13,28,1,-1,15,51,-2,6,0.513195332
16.437149,8,9,5,3,-7,-18,18,35,0.513195332
16.441778,4,13,3,7,8,-1,2,9,0.513195332
16.441801,-10,31,7,1,-24,-3,4,-35,0.513195332
16.450299,17,-21,-2,4,23,4,-3,11,0.513195332
16.450339,15,2,2,-4,7,1,-3,2,0.513195332
16.456941,-4,-3,1,0,1,-1,-1,-3,0.513195332
16.456966,-42,-35,-3,-1,4,10,3,-51,0.513195332
16.473149,29,-15,-4,-10,-40,-30,-13,9,0.513195332
16.473176,-11,9,-3,4,30,37,7,-70,0.513195332
16.475407,-14,60,3,-12,-27,-25,-7,21,0.513195332
16.475421,-14,6,-5,-5,22,9,-1,29,0.513195332
16.495931,12,-28,-6,4,-5,-4,-2,-13,0.513195332
16.495956,-6,3,-4,-8,25,-16,2,1,0.513195332
16.498238,22,11,3,-6,-12,19,2,-26,0.513195332
16.498250,15,20,-2,15,23,3,4,70,0.513195332
16.510050,14,52,2,4,11,-11,-4,-13,0.513195332
16.510075,13,-94,2,-9,-22,8,9,21,0.513195332
16.524504,-26,-34,-3,3,-4,-15,-8,5,0.513195332
16.524538,-3,-11,-2,-7,-8,8,-4,1,0.513195332
16.533457,-1,17,2,2,5,-16,3,17,0.513195332
16.533479,14,7,-2,3,-21,16,-10,59,0.513195332
16.535415,23,-47,-10,-4,21,46,3,-5,0.513195332
16.535452,25,11,1,-3,4,22,1,0,0.513195332
16.555961,-35,-4,-3,-10,-13,-47,-5,-5,0.513195332
16.555982,-36,-2,-5,-2,-4,-8,-6,-33,0.513195332
16.558297,17,-12,-1,4,-2,-2,-2,7,0.513195332
16.558314,3,37,6,1,2,5,-3,0,0.513195332
16.570390,8,-6,-2,4,26,5,1,-5,0.513195332
16.570421,-46,-16,-2,-4,-70,0,-9,-16,0.513195332
16.576941,-18,-19,-3,1,7,-17,13,-35,0.513195332
16.576965,19,2,-2,-1,-9,-10,-10,-11,0.513195332
16.593106,5,-14,-2,-11,37,11,3,0,0.513195332
16.593122,0,16,-1,0,12,-6,4,5,0.513195332
16.594762,2,23,-5,-3,-21,-2,-37,-24,0.513195332
16.594783,-19,10,1,-3,-22,-3,11,-2,0.513195332
16.615591,50,-24,-6,0,-3,10,-2,-7,0.513195332
16.615615,17,55,5,4,5,-3,-2,-8,0.513195332
16.617314,-2,-24,6,6,-1,-17,18,21,0.513195332
16.617330,6,53,4,0,35,20,-8,9,0.513195332
16.629286,-65,-99,-13,-2,-13,16,6,0,0.513195332
16.629309,35,24,-2,-2,14,-9,-8,2,0.513195332
16.638623,-16,12,-1,-1,-48,-8,2,20,0.520698973
16.638634,-3,-18,-10,-15,-8,-13,-4,30,0.520698973
16.654783,0,-10,-3,6,42,2,-1,-28,0.520698973
16.654792,-13,-2,3,-1,-16,5,-1,62,0.520698973
16.654796,9,-9,-2,1,32,2,0,10,0.520698973
16.654798,11,20,2,-6,-21,0,-3,-73,0.520698973
16.675572,-28,5,-2,-5,-47,12,-2,5,0.520698973
16.675590,15,4,3,-3,23,-13,-2,-14,0.520698973
16.677916,19,-17,-10,-5,-13,-4,-13,-11,0.520698973
16.677930,17,11,4,4,7,0,-1,6,0.520698973
16.689478,10,20,2,-1,3,-4,-3,-4,0.520698973
16.689502,-28,-25,-7,-10,-14,11,16,-10,0.520698973
16.699855,-12,52,2,14,-20,-25,-21,-40,0.520698973
16.699861,-20,-7,-2,-10,1,14,-2,-6,0.520698973
16.712632,36,-13,2,9,-5,19,8,7,0.520698973
16.712665,0,6,2,-2,-3,-9,-3,-2,0.520698973
16.723705,-34,-9,-1,-2,-6,6,9,6,0.520698973
16.723723,8,-12,0,4,-2,-18,3,4,0.520698973
16.736085,-11,20,-1,-7,-34,-14,-7,-1,0.520698973
16.736108,7,74,8,7,37,11,-2,-46,0.520698973
16.737068,-21,-111,-10,10,50,-5,1,12,0.520698973
16.737075,8,-32,-6,-3,15,14,1,-1,0.520698973
16.749179,21,33,4,-1,-8,0,4,9,0.520698973
16.749192,-9,-9,-3,0,-24,11,4,-12,0.520698973
16.759815,-16,25,3,-8,2,-42,1,9,0.520698973
16.759823,19,5,3,2,5,7,2,10,0.520698973
16.773315,-34,-9,-2,5,40,-1,1,9,0.520698973
16.773342,-10,-21,-6,2,-5,40,-14,-36,0.520698973
16.775887,-2,25,4,-2,-2,4,-7,53,0.520698973
16.775900,-15,9,-4,-4,-29,-3,6,-9,0.520698973
16.803249,3,-79,-10,3,-7,-20,-1,7,0.520698973
16.803263,32,25,0,-1,22,-2,-7,12,0.520698973
16.805522,-42,-18,-2,0,-8,16,5,-34,0.520698973
16.805538,-39,17,9,9,-2,-15,-3,-2,0.520698973
16.809306,34,37,6,1,3,21,-2,5,0.520698973
16.809326,-7,-27,-9,-13,0,-38,-6,16,0.520698973
16.819596,20,1,-1,2,-5,23,2,-8,0.520698973
16.819611,27,10,1,0,4,-14,2,23,0.520698973
16.833461,-9,-15,-3,-1,10,0,-2,-20,0.520698973
16.833493,-6,-14,0,-7,-34,-11,-9,29,0.520698973
16.835751,-6,35,6,-3,9,-4,-1,2,0.520698973
16.835766,21,-37,-4,17,74,8,4,-5,0.520698973
16.856065,0,13,-1,-4,-48,21,8,8,0.520698973
16.856086,-62,-94,-2,-7,-29,-25,-7,4,0.520698973
16.858129,38,-5,-2,7,39,34,29,-4,0.520698973
16.858141,-9,36,-2,-6,-21,-29,-29,14,0.520698973
16.869715,0,1,-1,-1,-14,-8,-2,-2,0.520698973
16.869742,9,13,-3,6,10,12,16,36,0.520698973
16.878403,-21,1,3,-1,-5,-14,-10,-7,0.520698973
16.878426,10,-12,-5,-2,13,14,12,-23,0.520698973
16.893377,55,25,2,-8,-36,-13,-3,6,0.519707501
16.893390,-72,-9,1,7,1,-2,-4,-18,0.519707501
16.894742,22,-10,1,-2,1,-4,3,16,0.519707501
16.894757,-17,13,-6,-8,-10,37,0,-40,0.519707501
16.916493,7,22,1,-4,-3,-58,6,34,0.519707501
16.916524,0,-22,-5,-1,17,17,-2,-9,0.519707501
16.919786,20,12,-3,-10,-13,1,1,-1,0.519707501
16.919795,-29,-11,2,1,-40,-12,-7,-16,0.519707501
16.929701,-30,94,8,-9,-56,18,-25,-30,0.519707501
16.929727,-28,-47,-5,13,50,14,49,12,0.519707501
16.940651,68,-12,-8,-6,-17,0,-20,-5,0.519707501
16.940664,14,31,-2,-2,-7,-4,1,16,0.519707501
16.953172,-38,-86,-6,0,-6,-18,-3,-27,0.519707501
16.953180,20,47,4,-4,1,-14,-6,-4,0.519707501
16.954584,-19,5,0,-4,5,11,-15,-2,0.519707501
16.954618,-5,10,0,-8,-14,-12,7,5,0.519707501
16.975763,3,12,2,15,48,25,-8,38,0.519707501
16.975786,17,3,2,1,-24,-2,-13,-5,0.519707501
16.977381,13,-20,-4,4,14,-5,12,-6,0.519707501
16.977397,-57,-35,1,-5,-6,-8,-9,25,0.519707501
16.989717,-23,-6,2,2,-7,-16,7,-4,0.519707501
16.989847,83,17,-7,-23,-14,27,-9,-24,0.519707501
16.999727,-34,30,-1,4,-4,-88,8,-1,0.519707501
16.999737,-3,-20,-4,4,9,9,0,-17,0.519707501
17.013372,4,30,0,-5,15,6,4,-11,0.519707501
17.013406,6,-32,-1,-1,7,-20,-8,14,0.519707501
17.015387,-11,-3,-2,-6,-9,19,-4,-4,0.519707501
17.015394,20,7,4,11,-16,-5,2,14,0.519707501
17.036213,-8,-4,2,5,20,-6,-1,-6,0.519707501
17.036244,5,-11,3,4,0,-2,-8,-9,0.519707501
17.038542,-69,-9,-2,-1,-14,-2,2,-7,0.519707501
17.038593,109,44,5,11,18,5,9,4,0.519707501
17.049348,-43,-45,-17,-3,4,24,9,-32,0.519707501
17.049383,9,27,-1,8,-29,-22,-22,-4,0.519707501
17.060107,-5,6,3,-1,28,25,3,2,0.519707501
17.060123,-5,12,5,-8,-9,-9,-8,-13,0.519707501
17.073249,-1,33,3,12,33,2,-1,22,0.519707501
17.073271,15,-20,6,-2,-33,0,12,7,0.519707501
17.075657,-16,-4,-4,-7,-2,-10,-4,-31,0.519707501
17.075671,8,-12,-11,2,20,-19,-11,57,0.519707501
17.095752,14,8,-2,-14,-32,25,7,-13,0.519707501
17.095786,-10,6,-4,-1,12,14,-8,-11,0.519707501
17.097089,13,20,4,-5,-28,0,-3,14,0.519707501
17.097096,-48,7,2,-2,7,18,1,-30,0.519707501
17.118336,-11,-34,-3,-4,5,-6,-8,-7,0.519707501
17.118368,-17,41,-5,0,-2,1,-2,5,0.519707501
17.120434,27,-61,-4,-4,-5,7,1,-1,0.519707501
17.120442,-12,-12,-2,-2,-8,-5,-2,4,0.519707501
17.133955,-10,-5,-1,4,6,1,-6,-5,0.519707501
17.133987,5,6,-2,-6,0,-5,0,5,0.519707501
17.136716,-11,0,3,-7,-19,-5,-2,-12,0.519707501
17.136732,31,-1,2,11,42,-2,-15,22,0.519707501
17.163496,-3,2,3,-7,-7,-5,10,11,0.522343917
17.163517,1,4,-4,-2,3,-13,-11,-11,0.522343917
17.165507,-17,3,-4,4,39,-7,-7,-19,0.522343917
17.165517,14,-29,-7,-16,-46,24,2,0,0.522343917
17.178558,-4,-2,2,2,-6,-15,-1,-34,0.522343917
17.178586,46,20,7,7,39,-15,-5,76,0.522343917
17.180671,6,33,2,-13,-6,17,-2,-6,0.522343917
17.180677,-40,-18,-2,-4,-19,-2,8,-22,0.522343917
17.194253,3,7,-7,-5,4,-14,-2,-8,0.522343917
17.194289,-15,-29,-5,1,9,-2,4,-45,0.522343917
17.196607,31,39,2,-4,-54,4,-4,24,0.522343917
17.196621,-23,-43,-1,-2,-1,-22,2,0,0.522343917
17.216211,23,25,3,4,3,9,-2,9,0.522343917
17.216244,-28,-41,0,-2,2,12,0,-9,0.522343917
17.219098,17,20,-4,8,9,-26,-3,4,0.522343917
17.219109,0,-45,-8,-21,-4,6,1,-13,0.522343917
17.238177,34,-8,9,-6,-15,3,2,10,0.522343917
17.238208,7,25,-2,5,-16,-20,2,-12,0.522343917
17.239769,-66,-26,-6,-2,6,26,-3,2,0.522343917
17.239799,2,5,-5,5,3,-18,17,3,0.522343917
17.252601,7,25,-3,1,13,-10,-13,8,0.522343917
17.252635,3,26,2,-11,0,43,2,-9,0.522343917
17.259297,-1,-27,0,4,-2,-10,5,6,0.522343917
17.259316,8,33,5,0,-7,0,-2,-3,0.522343917
17.275817,-32,-59,-7,6,-9,9,1,13,0.522343917
17.275838,-49,43,0,0,5,-20,-4,-82,0.522343917
17.277231,64,-50,-4,4,2,23,1,21,0.522343917
17.277249,20,22,2,-1,2,11,5,5,0.522343917
17.298095,13,17,3,-1,4,-8,-4,-21,0.522343917
17.298111,-13,-14,-2,-2,-8,-1,-1,-7,0.522343917
17.299519,-15,5,-4,-6,-6,-10,-11,-8,0.522343917
17.299526,-34,-23,-2,4,6,-3,7,-14,0.522343917
17.313094,26,35,0,-4,-10,7,1,-3,0.522343917
17.313113,-32,-39,-4,4,-8,-26,-3,16,0.522343917
17.319391,12,40,1,2,34,28,2,6,0.522343917
17.319406,19,-1,2,-11,-1,-1,2,-1,0.522343917
17.336256,-38,16,-1,3,-18,-29,-24,-2,0.522343917
17.336279,2,-53,-1,2,12,10,16,1,0.522343917
17.338164,9,14,4,-7,-32,-22,4,8,0.522343917
17.338182,-13,11,-1,3,-2,54,-1,-12,0.522343917
17.360466,1,14,-1,-4,5,-3,2,6,0.522343917
17.360475,33,18,4,-6,21,-1,-3,-18,0.522343917
17.360480,-32,-13,-2,2,-8,-9,-2,-2,0.522343917
17.360484,0,-3,1,1,-7,6,-2,-3,0.522343917
17.372693,-9,-28,-5,-4,6,6,10,8,0.522343917
17.372720,19,10,-2,2,-5,-10,-14,-42,0.522343917
17.379761,-1,-12,-4,-2,-8,15,9,-23,0.522343917
17.379793,5,8,6,4,9,-40,-24,27,0.522343917
17.396254,-11,-43,-10,6,14,43,13,28,0.522343917
17.396276,9,33,-6,-10,52,-20,-4,8,0.522343917
17.397219,16,1,3,7,-2,8,-3,1,0.522343917
17.397240,18,31,3,4,-10,-21,-3,44,0.522343917
17.418687,10,8,2,0,8,-17,-6,-23,0.522434048
17.418717,-3,-3,6,5,-14,31,18,19,0.522434048
17.421225,15,32,3,8,-25,-17,-36,17,0.522434048
17.421235,-10,-11,-7,5,13,5,11,-23,0.522434048
17.432907,5,-6,3,3,25,6,1,-9,0.522434048
17.432940,-16,32,5,4,-34,-5,1,73,0.522434048
17.439671,-3,-13,-5,-5,10,-12,5,-8,0.522434048
17.439698,-24,-11,-2,1,-12,-4,-4,-23,0.522434048
17.457347,8,-4,-3,3,-2,-1,-5,-1,0.522434048
17.457447,5,7,-1,1,-5,-8,-14,2,0.522434048
17.457505,-5,7,1,-24,13,7,15,-8,0.522434048
17.457511,-32,20,-7,6,17,-31,-13,-8,0.522434048
17.478275,-1,-8,-5,0,-9,-15,0,0,0.522434048
17.478301,-40,-29,0,-1,8,13,-3,4,0.522434048
17.479875,39,-4,-2,0,44,9,3,68,0.522434048
17.479980,11,19,4,-8,-4,12,7,-4,0.522434048
17.492653,4,19,-2,-6,-7,7,-12,-37,0.522434048
17.492678,9,-20,-4,-2,-13,-18,-2,3,0.522434048
17.499358,-42,-49,-5,7,-7,6,16,-67,0.522434048
17.499380,16,24,0,-3,-11,-7,-20,9,0.522434048
17.515826,-10,-31,0,14,3,-2,7,3,0.522434048
17.515856,-8,-5,3,-3,-6,18,2,-8,0.522434048
17.517412,9,20,-2,-10,-2,3,10,40,0.522434048
17.517435,38,-22,-2,3,0,4,5,46,0.522434048
17.538160,-8,25,3,-5,-13,-3,1,6,0.522434048
17.538182,-18,-13,-3,-4,0,-4,-7,-20,0.522434048
17.539883,-9,12,3,-2,-2,-8,0,-15,0.522434048
17.539932,15,2,4,-5,-40,-21,-6,-18,0.522434048
17.552712,-11,36,-3,-6,57,16,11,22,0.522434048
17.552743,11,-28,-9,-2,-24,7,1,5,0.522434048
17.559224,-5,-15,-5,6,-4,-2,-5,-15,0.522434048
17.559242,24,15,1,1,22,-10,-4,-10,0.522434048
17.575788,15,-5,-1,-5,-101,27,-4,-19,0.522434048
17.575805,4,48,4,-4,50,-12,-2,-4,0.522434048
17.577726,-35,-58,-5,13,34,6,10,-11,0.522434048
17.577743,-16,-11,0,1,-33,-22,-38,45,0.522434048
17.598145,10,2,-1,2,16,18,15,-23,0.522434048
17.598170,-8,-1,0,-3,-27,-56,3,56,0.522434048
17.599617,21,42,8,5,-20,5,-9,52,0.522434048
17.599646,-42,-19,5,13,15,10,21,-30,0.522434048
17.611907,2,-38,-8,-7,0,-16,-12,-8,0.522434048
17.611928,23,-51,-5,-6,-25,23,-4,6,0.522434048
17.622788,-17,22,-3,-9,14,-12,-5,-16,0.522434048
17.622813,-7,-15,-5,1,9,4,7,-24,0.522434048
17.635786,7,3,2,1,24,-15,-10,11,0.522434048
17.635804,16,10,-3,-3,6,9,1,-22,0.522434048
17.638706,16,42,7,-4,-29,-11,-9,-14,0.522434048
17.638718,-67,-84,-8,-5,5,12,11,23,0.522434048
17.658129,7,21,7,-5,1,6,7,11,0.525525638
17.658146,-24,26,1,7,22,4,-3,-19,0.525525638
17.659653,-15,-78,-5,-2,-12,-29,-8,-8,0.525525638
17.659673,7,19,-8,-13,41,43,-3,-5,0.525525638
17.671852,42,26,7,13,0,10,9,14,0.525525638
17.671868,-39,-24,-3,-9,-19,-54,-40,-14,0.525525638
17.681950,10,16,-1,-10,-2,11,14,-58,0.525525638
17.681966,-15,-15,-6,-8,-41,-14,1,-4,0.525525638
17.696184,-9,11,2,1,36,30,-11,1,0.525525638
17.696216,35,-16,-1,-4,11,23,13,-3,0.525525638
17.699242,25,26,0,4,-6,2,0,38,0.525525638
17.699251,-7,27,7,-1,-15,-7,-11,-15,0.525525638
17.718257,3,-10,-8,-3,-12,-3,-5,15,0.525525638
17.718290,14,28,-3,1,-8,8,-1,-3,0.525525638
17.719591,-10,-22,-6,0,7,-2,-1,-8,0.525525638
17.719599,-10,2,0,-6,-43,5,5,-15,0.525525638
17.731848,6,1,1,5,36,-13,4,10,0.525525638
17.731864,-6,15,-4,3,-14,-3,-12,-11,0.525525638
17.742177,-18,13,0,-8,-50,-18,-10,-14,0.525525638
17.742190,21,8,-2,2,43,23,16,3,0.525525638
17.755837,-34,-24,-3,-4,-15,-17,-3,-62,0.525525638
17.755867,23,-9,4,10,13,22,27,38,0.525525638
17.758761,12,22,-6,-8,-14,-19,-31,-5,0.525525638
17.758773,33,16,0,1,-29,-12,-4,-10,0.525525638
17.779505,-27,-2,2,-4,36,-6,2,-5,0.525525638
17.779514,19,-31,-5,-7,5,-11,-2,8,0.525525638
17.779597,-34,-42,0,0,10,19,5,-26,0.525525638
17.779605,10,-29,2,-2,-12,-7,3,-18,0.525525638
17.800850,1,26,1,3,-27,-17,-18,-23,0.525525638
17.800882,-2,4,-3,-8,10,7,3,9,0.525525638
17.802998,-16,6,2,6,-23,10,-5,-3,0.525525638
17.803006,11,6,-4,-6,2,5,0,-5,0.525525638
17.815933,5,10,4,-1,4,-49,8,81,0.525525638
17.815958,-47,9,-5,0,-32,-2,-4,-32,0.525525638
17.817735,15,4,-2,-5,-3,-11,2,37,0.525525638
17.817742,15,-13,-5,16,36,24,7,-2,0.525525638
17.838581,31,2,-7,-18,-42,-1,6,5,0.525525638
17.838620,-34,36,-1,5,6,-3,-3,-15,0.525525638
17.841709,25,29,-3,7,23,5,6,-4,0.525525638
17.841723,-16,5,3,-5,-13,-12,-20,7,0.525525638
17.851966,-23,-37,-6,-4,-9,4,8,-27,0.525525638
17.851987,13,13,3,-10,-50,-16,-8,-27,0.525525638
17.863104,10,-4,2,1,31,39,10,-2,0.525525638
17.863114,28,-11,-3,-1,14,-28,2,2,0.525525638
17.875704,1,-3,-11,0,7,6,-11,-22,0.525525638
17.875721,14,-23,6,3,-1,1,8,85,0.525525638
17.877152,-19,-20,2,3,-4,6,3,1,0.525525638
17.877167,20,12,-3,-7,16,3,-1,-9,0.525525638
17.898768,-9,6,-2,-8,9,-11,-10,-44,0.525525638
17.898801,-3,44,-4,-11,-46,-8,8,-14,0.525525638
17.901132,27,-15,1,3,12,-5,-9,15,0.525525638
17.901141,-32,21,3,2,-14,-1,7,-14,0.525525638
17.912227,20,9,2,15,13,48,8,7,0.525525638
17.912252,-30,-10,-3,0,19,13,-2,-25,0.525525638
17.922267,-23,-33,-6,-4,-20,-19,0,-1,0.526260230
17.922281,-5,6,0,-9,13,3,-5,-37,0.526260230
17.936461,8,11,0,-4,-62,10,-4,11,0.526260230
17.936470,30,33,2,15,124,28,-3,44,0.526260230
17.937047,-10,-53,0,4,-24,5,13,15,0.526260230
17.937054,-4,29,3,4,-1,-8,-2,8,0.526260230
17.958192,-29,-46,-2,-7,-9,-12,-11,-13,0.526260230
17.958211,30,25,2,-4,1,2,-2,-19,0.526260230
17.961132,-4,61,0,-5,2,-15,-1,-31,0.526260230
17.961142,-23,-61,-5,-10,45,5,-2,72,0.526260230
17.972123,39,12,12,-4,3,-13,2,17,0.526260230
17.972149,-23,-44,-7,-6,-46,-6,7,-6,0.526260230
17.982253,28,67,4,12,45,18,-17,-4,0.526260230
17.982261,-8,-62,-9,0,-26,-7,5,-10,0.526260230
17.995933,-42,21,0,-1,-10,-20,-20,6,0.526260230
17.995960,-3,-27,-4,6,24,0,6,-8,0.526260230
17.998807,6,28,1,-9,2,37,10,-5,0.526260230
17.998818,-2,0,1,1,-3,-11,9,-13,0.526260230
18.018284,3,15,2,-3,-25,12,-16,-47,0.526260230
18.018314,23,-52,0,-1,-20,-50,12,-9,0.526260230
18.021253,-35,-44,-6,-2,6,-10,-8,-13,0.526260230
18.021261,2,20,4,3,-13,5,8,-13,0.526260230
18.040686,-11,20,-2,1,23,-16,2,-2,0.526260230
18.040711,-15,-24,-6,-12,-9,11,-4,-16,0.526260230
18.043201,-4,25,11,1,-16,13,6,10,0.526260230
18.043234,7,39,-7,-3,-19,-49,-7,-5,0.526260230
18.055734,24,-51,-6,13,-17,-4,5,30,0.526260230
18.055753,46,32,2,-2,27,19,-9,39,0.526260230
18.057780,-47,-31,-5,2,1,-11,-1,5,0.526260230
18.057794,-9,33,3,-10,-14,6,-7,-10,0.526260230
18.078352,-7,7,-3,-13,46,5,0,-7,0.526260230
18.078380,4,22,2,5,-2,25,-20,-17,0.526260230
18.079872,2,-66,-16,-11,-1,-15,1,-10,0.526260230
18.079894,2,-6,0,9,-8,-12,-12,-1,0.526260230
18.100779,-26,16,2,0,25,19,13,18,0.526260230
18.100812,10,-30,-5,-9,-8,-11,-8,-33,0.526260230
18.102569,17,73,2,2,26,54,14,47,0.526260230
18.102576,6,-29,-1,0,-1,-20,-2,60,0.526260230
18.115669,-6,-13,-5,-4,0,-5,6,8,0.526260230
18.115701,4,16,1,0,-16,-2,-2,-7,0.526260230
18.117475,-17,9,4,2,-14,-7,-6,-21,0.526260230
18.117482,25,11,-6,-8,18,18,-6,-28,0.526260230
18.138575,-9,-12,-2,-2,-74,-26,-2,19,0.526260230
18.138588,-48,2,2,8,49,2,12,2,0.526260230
18.139772,-7,-35,-5,-9,28,-15,-15,-62,0.526260230
18.139799,-21,2,-2,1,-23,28,28,6,0.526260230
18.160812,31,-2,-1,-8,-31,-29,-28,5,0.526260230
18.160833,13,14,-4,11,-27,0,7,-4,0.526260230
18.162454,13,-43,-7,0,-31,-19,-6,-22,0.526260230
18.162464,-30,14,1,4,38,18,2,-26,0.526260230
18.175050,12,32,1,-6,21,5,-8,-29,0.538491389
18.175075,-28,1,3,-2,-10,-7,17,8,0.538491389
18.181928,44,22,-8,-11,3,-13,-2,20,0.538491389
18.181949,-38,-13,0,3,-17,58,8,-7,0.538491389
18.198205,17,-41,-1,5,23,-72,3,3,0.538491389
18.198229,5,-2,-2,-11,-19,-8,-5,10,0.538491389
18.200573,-13,35,6,3,26,-5,1,-15,0.538491389
18.200587,7,-20,6,-1,-6,-12,-10,-13,0.538491389
18.220925,19,7,0,4,8,26,8,0,0.538491389
18.220948,-34,-7,-1,1,-7,-6,-7,-6,0.538491389
18.222148,20,-14,-3,2,11,-20,1,14,0.538491389
18.222177,2,26,-1,-11,6,8,-3,-2,0.538491389
18.234992,-6,-1,-1,3,11,38,19,7,0.538491389
18.235031,16,-70,-15,1,-23,-32,-29,-4,0.538491389
18.241916,-25,33,13,8,18,15,-14,13,0.538491389
18.241934,32,25,-1,-7,-8,-22,-10,6,0.538491389
18.258220,-52,-59,-12,0,34,7,6,-13,0.538491389
18.258242,-33,3,-1,-15,17,17,8,-10,0.538491389
18.260419,22,-51,-1,2,-15,-4,-2,-34,0.538491389
18.260437,-23,-2,-1,-1,-14,-12,-12,-38,0.538491389
18.281744,-13,6,3,1,-13,6,-1,50,0.538491389
18.281753,53,54,5,-2,-3,0,-6,-12,0.538491389
18.282068,-36,22,-3,3,-11,-5,5,8,0.538491389
18.282075,3,-46,-7,1,2,-4,-2,30,0.538491389
18.294950,26,29,-7,-11,-30,1,-5,-39,0.538491389
18.294969,-57,-28,0,5,12,-20,-2,-4,0.538491389
18.302244,-2,9,-6,5,-34,0,5,23,0.538491389
18.302273,-2,43,5,-9,34,26,15,-2,0.538491389
18.318682,4,-62,6,9,29,-5,-25,8,0.538491389
18.318712,4,33,6,12,0,-4,2,6,0.538491389
18.320994,-14,-33,0,-9,-14,13,0,-6,0.538491389
18.321000,-34,19,4,3,-18,30,6,15,0.538491389
18.340868,25,24,0,-1,8,18,8,-17,0.538491389
18.340893,0,29,-3,-18,-10,-4,-20,-10,0.538491389
18.342741,12,-9,-3,5,-4,-12,9,2,0.538491389
18.342752,16,-58,-6,5,-3,7,0,35,0.538491389
18.354679,-21,35,6,5,-1,-12,-10,11,0.538491389
18.354709,5,-8,-3,1,-5,14,6,34,0.538491389
18.361941,21,67,3,-4,-16,-5,6,63,0.538491389
18.361963,-12,-27,-6,1,13,-19,-1,-16,0.538491389
18.378014,-7,-16,-4,-2,-50,-12,0,11,0.538491389
18.378044,19,14,3,3,45,16,0,-13,0.538491389
18.380620,-39,-16,2,1,53,-11,-9,-17,0.538491389
18.380636,32,38,3,3,-20,0,-6,-12,0.538491389
18.400562,3,-34,-6,-10,13,-21,0,-6,0.538491389
18.400598,-26,28,5,13,-14,27,10,-4,0.538491389
18.403495,1,-56,-5,-20,-12,-6,-14,-12,0.538491389
18.403502,0,-15,6,8,4,-17,-3,-8,0.538491389
18.414753,6,48,1,-12,-15,13,4,-11,0.538491389
18.414786,-3,-33,-9,8,38,-6,7,-13,0.538491389
18.422331,-5,13,-1,2,6,-8,4,6,0.538491389
18.422356,-12,-9,-6,-5,-39,22,-8,-21,0.538491389
18.439049,-3,0,2,-4,7,-6,0,42,0.534092862
18.439062,-6,11,1,-11,-23,29,4,19,0.534092862
18.439065,13,-17,-6,-7,-11,-5,5,8,0.534092862
18.439068,-4,14,1,1,8,3,-11,4,0.534092862
18.459796,-11,-14,-6,-2,17,-6,8,-35,0.534092862
18.459821,34,10,3,4,-2,9,-6,28,0.534092862
18.467986,-20,-36,0,5,-9,2,-5,-8,0.534092862
18.468011,13,3,-6,-4,-4,-19,1,-26,0.534092862
18.474417,-25,-30,-6,6,-3,10,-1,-24,0.534092862
18.474439,23,0,3,-5,-3,-18,-7,-11,0.534092862
18.482029,-27,3,-7,3,8,-1,4,-1,0.534092862
18.482061,6,5,10,-7,-42,-41,4,5,0.534092862
18.497571,3,8,0,6,17,25,-6,11,0.534092862
18.497634,-7,-11,-2,-7,-13,-16,6,-9,0.534092862
18.499865,8,6,6,-1,-17,13,0,3,0.534092862
18.499885,16,24,-2,-12,-17,-10,8,-5,0.534092862
18.520089,13,1,-8,-10,-18,3,2,52,0.534092862
18.520113,1,30,3,3,-8,-2,5,-6,0.534092862
18.520725,12,-5,-2,-2,2,-27,-10,-18,0.534092862
18.520746,-23,10,-4,5,6,-2,-9,-6,0.534092862
18.534650,0,0,1,-6,-28,-17,5,-10,0.534092862
18.534682,3,-6,-2,-3,8,4,0,-43,0.534092862
18.541830,3,56,4,0,-6,-2,-7,-6,0.534092862
18.541884,-21,-32,-11,3,24,13,5,10,0.534092862
18.557600,-39,-8,-3,1,6,21,-8,-66,0.534092862
18.557622,45,-43,1,6,-14,5,-1,-5,0.534092862
18.558875,2,14,6,-8,-24,3,-1,-6,0.534092862
18.558887,2,-20,-3,11,31,-4,-5,-13,0.534092862
18.580000,-11,-4,-2,0,1,13,6,-22,0.534092862
18.580035,-4,0,-3,-2,-8,-11,-7,9,0.534092862
18.580531,13,-11,1,-5,-3,7,10,0,0.534092862
18.580538,41,79,2,0,30,-29,-34,-8,0.534092862
18.596521,-100,-59,-2,3,22,25,12,8,0.534092862
18.596528,57,12,1,-12,17,-1,-5,-20,0.534092862
18.602206,12,16,1,16,-7,8,5,18,0.534092862
18.602224,-30,-19,-6,-6,9,-43,-10,3,0.534092862
18.617713,44,50,1,1,18,-4,-2,4,0.534092862
18.617735,-37,-17,-2,-4,-14,-10,-5,9,0.534092862
18.619893,4,-23,-3,-2,7,11,10,-21,0.534092862
18.619908,-20,6,6,2,-15,3,1,-19,0.534092862
18.640321,44,10,2,-3,-34,-27,-8,44,0.534092862
18.640375,23,30,1,-2,-8,13,19,-20,0.534092862
18.642743,-48,-55,-11,-4,6,10,-18,-19,0.534092862
18.642758,-6,-4,-5,-9,-29,34,28,-9,0.534092862
18.662975,30,36,3,8,-3,7,-29,75,0.534092862
18.663004,-4,-4,-9,0,-2,2,2,4,0.534092862
18.663601,5,43,12,-1,-2,-10,-4,4,0.534092862
18.663623,30,1,1,-10,14,6,-6,6,0.534092862
18.677575,-23,-24,-6,3,-26,15,11,-68,0.534092862
18.677606,7,12,5,2,1,-19,-8,5,0.534092862
18.678335,2,-6,-6,1,18,-2,-4,7,0.534092862
18.678356,-35,-28,3,1,-3,5,6,14,0.534092862
18.700310,-4,18,5,7,25,1,14,-8,0.533227577
18.700336,-21,12,-7,-4,-84,-20,-12,-4,0.533227577
18.702399,2,-46,-12,-5,15,20,-13,10,0.533227577
18.702406,48,-62,-12,-9,17,-7,10,-4,0.533227577
18.714495,-8,1,2,2,0,-10,6,-22,0.533227577
18.714517,-14,29,1,3,25,-5,-3,34,0.533227577
18.721739,50,-12,-1,10,-1,6,-1,1,0.533227577
18.721758,-28,43,6,-8,-35,0,5,7,0.533227577
18.737151,11,-1,-8,-11,0,-13,-4,3,0.533227577
18.737174,-23,-28,-6,-3,15,7,0,-9,0.533227577
18.745383,32,37,8,10,-5,-16,4,-7,0.533227577
18.745413,15,18,4,7,13,17,7,12,0.533227577
18.760141,-47,-41,5,0,-9,-41,-29,3,0.533227577
18.760165,-3,5,-16,-6,-9,7,-3,-40,0.533227577
18.762857,-60,-86,-19,-14,26,-2,0,-9,0.533227577
18.762871,28,30,-1,6,-6,-3,-2,-11,0.533227577
18.774559,-2,8,4,-8,-18,1,7,5,0.533227577
18.774578,-16,-10,2,0,28,40,-3,-48,0.533227577
18.782249,20,47,10,-2,-38,-52,12,2,0.533227577
18.782281,-13,-13,-2,-3,-5,5,-10,5,0.533227577
18.800363,3,7,-1,6,-30,-10,-1,-56,0.533227577
18.800370,-2,-24,1,-8,12,-29,4,39,0.533227577
18.800373,6,28,0,14,50,13,-1,-20,0.533227577
18.800375,-18,24,5,7,-7,22,-4,-7,0.533227577
18.820251,5,-47,-8,-9,15,-1,5,55,0.533227577
18.820296,-2,-29,3,-3,-13,-3,-11,-8,0.533227577
18.820763,-6,36,3,-3,-8,10,21,5,0.533227577
18.823919,10,8,-4,-8,-1,-21,-8,10,0.533227577
18.834373,8,-41,-7,-3,5,12,14,10,0.533227577
18.834381,-41,1,1,4,3,-13,-20,8,0.533227577
18.841834,20,12,0,-5,-16,-6,-12,6,0.533227577
18.841853,4,32,2,0,22,-12,-7,-5,0.533227577
18.857601,19,-2,-2,4,38,33,12,5,0.533227577
18.857624,20,-28,3,11,2,-3,20,33,0.533227577
18.859144,-33,18,-1,-5,-13,2,-2,-23,0.533227577
18.859158,-15,14,-4,-21,-44,-28,-10,-7,0.533227577
18.880178,37,-64,0,23,9,-7,7,79,0.533227577
18.880213,-19,11,-9,-2,16,17,-25,-17,0.533227577
18.880682,0,-5,-4,-14,1,2,-1,-4,0.533227577
18.880720,-5,-33,6,6,9,14,13,15,0.533227577
18.894230,20,60,10,-8,-30,25,-10,-30,0.533227577
18.894254,-37,5,1,-2,-14,-37,2,-1,0.533227577
18.902175,15,-14,-7,1,7,31,4,3,0.533227577
18.902203,4,-35,-3,0,26,-2,-8,34,0.533227577
18.917850,6,40,2,-3,1,-1,-6,-31,0.533227577
18.917883,22,18,2,-10,-33,7,9,16,0.533227577
18.920626,-42,-30,-2,2,-16,0,12,0,0.533227577
18.920634,5,2,-5,-1,19,-16,-27,-71,0.533227577
18.940937,-19,-11,-2,2,-50,-20,-14,-12,0.528040372
18.940949,6,-25,-9,2,-2,-10,15,-3,0.528040372
18.940952,7,31,-2,-5,4,1,8,7,0.528040372
18.940955,20,20,-4,4,0,7,-3,-16,0.528040372
18.963109,-15,1,1,-4,5,-11,10,85,0.528040372
18.963133,-24,2,3,-5,1,3,-1,-52,0.528040372
18.966377,11,12,-1,3,3,1,-12,-16,0.528040372
18.966391,-44,-2,-1,8,6,-9,3,13,0.528040372
18.977852,-19,48,-4,-10,22,63,-5,-28,0.528040372
18.977884,26,-36,9,16,26,5,15,24,0.528040372
18.980123,10,6,3,2,-15,-1,-5,11,0.528040372
18.980134,12,-4,3,-1,-24,1,6,1,0.528040372
19.000276,-8,0,0,2,11,-17,0,-35,0.528040372
19.000400,-4,49,2,12,51,15,-6,56,0.528040372
19.003356,-13,-61,-4,-16,-18,-5,0,-28,0.528040372
19.003366,1,-44,4,14,-3,0,4,20,0.528040372
19.023086,25,59,-4,-9,-22,-17,-1,-11,0.528040372
19.023111,19,-9,-3,-3,22,16,-1,-2,0.528040372
19.023725,-14,21,-1,4,-9,-22,-4,5,0.528040372
19.023753,-14,-4,-2,-2,1,13,3,13,0.528040372
19.037785,16,21,1,-2,20,-9,6,39,0.528040372
19.037808,-15,-22,-6,-11,-36,-12,-7,-13,0.528040372
19.038352,3,18,3,7,22,9,-3,2,0.528040372
19.038452,28,19,-2,-9,-8,1,-1,-25,0.528040372
19.060587,1,-30,1,-2,18,-11,-1,44,0.528040372
19.060619,5,10,-1,3,2,-6,-5,-20,0.528040372
19.063228,8,2,9,7,3,-5,-1,11,0.528040372
19.063234,2,-32,-12,-8,28,27,3,-13,0.528040372
19.082470,-2,23,3,-1,-4,1,-5,-34,0.528040372
19.082477,10,27,-4,-6,-24,-33,4,32,0.528040372
19.083058,-27,-19,-3,10,2,-6,-17,-7,0.528040372
19.083065,17,40,0,-3,-9,-55,6,-6,0.528040372
19.097496,-34,-39,-11,-13,1,10,1,-54,0.528040372
19.097514,9,14,1,1,-29,-3,-13,-32,0.528040372
19.098313,-17,14,0,0,6,19,7,-2,0.528040372
19.098324,-5,18,-2,1,-7,8,-3,-1,0.528040372
19.120278,20,30,-3,-2,-7,-12,-4,-11,0.528040372
19.120305,-19,-88,-7,-8,-4,-1,1,-13,0.528040372
19.123466,22,6,2,-3,3,1,-2,7,0.528040372
19.123482,-18,-25,0,5,1,18,0,11,0.528040372
19.144210,-19,-3,0,4,8,-11,-4,-35,0.528040372
19.144231,36,33,4,-4,-33,-2,0,52,0.528040372
19.144237,20,-38,-13,-9,24,23,-1,15,0.528040372
19.144243,-9,-29,-3,1,14,-2,-5,6,0.528040372
19.157579,-46,34,4,11,15,-19,8,-60,0.528040372
19.157599,-1,-43,-2,-10,-7,16,4,-21,0.528040372
19.159518,37,11,-5,0,-11,6,-24,23,0.528040372
19.159531,-66,-13,-2,7,-5,-19,6,-2,0.528040372
19.180005,16,23,-3,-3,5,26,1,17,0.528040372
19.180029,-25,-83,-4,6,6,-71,-8,-17,0.528040372
19.180654,16,63,1,-7,-4,20,0,-6,0.528040372
19.180674,13,1,0,-2,5,18,-1,-12,0.528040372
19.202766,-10,-18,-4,0,3,-4,0,18,0.529843048
19.202782,3,25,2,1,-5,19,-2,-8,0.529843048
19.205479,9,17,0,-12,-24,-25,2,-6,0.529843048
19.205491,-18,-15,-1,-1,-19,-5,-2,-1,0.529843048
19.218103,5,-24,-1,2,27,6,-2,0,0.529843048
19.218135,28,38,-3,-8,-3,10,-11,-57,0.529843048
19.220907,-48,-31,4,-3,-29,-16,1,-10,0.529843048
19.220917,17,11,1,4,67,0,-13,8,0.529843048
19.240155,-5,-20,0,9,-28,-2,8,-10,0.529843048
19.240180,-9,18,2,-9,19,41,7,-16,0.529843048
19.240835,-22,-1,10,-4,-6,-7,16,7,0.529843048
19.240851,68,44,4,1,-19,-8,-2,6,0.529843048
19.263080,-31,-24,-11,-5,-4,-17,-21,-32,0.529843048
19.263112,-50,-8,-5,0,32,32,9,17,0.529843048
19.266334,21,-22,-7,2,-2,-12,9,-5,0.529843048
19.266345,23,46,3,-4,-29,24,10,52,0.529843048
19.277596,14,-39,-3,-6,-38,-64,-12,7,0.529843048
19.277629,5,18,2,12,35,19,8,24,0.529843048
19.279772,-28,-14,-1,-1,-8,-6,-5,-7,0.529843048
19.279778,-19,-18,-2,1,5,2,-3,-17,0.529843048
19.299862,35,30,1,-3,-15,3,-3,19,0.529843048
19.299897,-33,12,1,-4,-31,-10,-5,-5,0.529843048
19.300541,-6,-33,-9,0,11,-5,-3,-7,0.529843048
19.300577,1,-19,0,19,-5,-4,-4,-11,0.529843048
19.322776,1,36,9,-12,-46,0,1,-14,0.529843048
19.322805,-1,-65,-3,18,37,2,5,1,0.529843048
19.324518,11,28,8,0,-33,-17,-12,-14,0.529843048
19.324533,-22,-16,-18,-18,-42,17,1,4,0.529843048
19.338073,12,35,0,0,60,47,16,-8,0.529843048
19.338099,-50,-34,-5,2,4,-1,-26,-45,0.529843048
19.340803,33,20,-5,-6,-26,-3,-4,-5,0.529843048
19.340817,-4,-19,-2,-10,0,-19,-1,-16,0.529843048
19.360028,1,50,5,5,-2,4,-3,17,0.529843048
19.360043,38,43,-4,-9,-15,-7,2,7,0.529843048
19.360620,-22,-36,-6,3,24,-18,8,11,0.529843048
19.360636,10,-3,4,-2,0,25,-7,-7,0.529843048
19.383169,23,0,1,2,11,6,-3,4,0.529843048
19.383191,6,20,5,10,1,-10,1,14,0.529843048
19.385902,-11,-2,0,-10,1,-2,-8,-27,0.529843048
19.385908,13,17,0,-5,18,-6,13,0,0.529843048
19.397520,6,-29,-2,11,17,1,-4,-8,0.529843048
19.397553,-27,5,0,-19,-63,-9,5,56,0.529843048
19.400566,15,-22,-3,-2,35,22,10,24,0.529843048
19.400576,-7,-5,3,4,-24,-6,-4,-19,0.529843048
19.420152,11,19,2,3,56,-11,-5,-4,0.529843048
19.420173,-69,-92,-17,-2,12,14,-3,45,0.529843048
19.422885,22,36,0,4,-7,0,11,-1,0.529843048
19.422904,-12,-1,6,-3,-19,-1,14,78,0.529843048
19.442561,15,-35,-3,-11,-27,-9,-17,54,0.529843048
19.442574,20,54,5,6,1,-12,-2,-24,0.529843048
19.443089,-12,20,2,-2,-4,-5,-7,3,0.529843048
19.443098,17,-16,-2,6,24,10,10,-8,0.529843048
19.457249,-33,-73,-7,-3,2,8,-11,-9,0.529149021
19.457275,-5,-16,-2,-10,3,5,3,-4,0.529149021
19.465436,13,-4,-1,2,2,9,-5,-7,0.529149021
19.465459,-14,15,-1,-4,-8,-13,-2,-24,0.529149021
19.480400,-4,30,6,1,-2,-13,1,1,0.529149021
19.480432,30,-18,-15,-17,-97,1,-19,-17,0.529149021
19.483488,19,-23,-4,0,37,3,24,8,0.529149021
19.483497,-14,-5,-4,-9,3,15,-14,18,0.529149021
19.503707,-34,-21,-2,-5,-21,-50,-6,0,0.529149021
19.503786,62,39,4,2,-4,-11,6,-11,0.529149021
19.503792,28,36,7,0,6,-16,1,13,0.529149021
19.503798,17,1,0,6,37,25,-47,69,0.529149021
19.517541,-17,-10,-6,-7,-10,4,7,-24,0.529149021
19.517566,26,33,5,-1,8,-9,-5,57,0.529149021
19.518624,-26,-13,2,0,-20,1,-12,-14,0.529149021
19.518630,2,29,-1,-1,10,-8,11,-32,0.529149021
19.540036,-22,-22,-2,-6,-9,7,1,-8,0.529149021
19.540065,13,22,3,7,22,3,4,51,0.529149021
19.541752,17,29,-5,0,-3,6,4,-5,0.529149021
19.541821,-37,-84,-3,-1,-14,-12,3,-2,0.529149021
19.562714,-14,-8,-3,-2,-23,13,-5,0,0.529149021
19.562746,-34,7,3,-2,36,-9,15,-51,0.529149021
19.565249,19,4,-1,-4,-74,15,-12,14,0.529149021
19.565259,-1,17,-2,-10,2,-44,9,-18,0.529149021
19.576947,22,12,-1,8,7,11,-2,-2,0.529149021
19.577002,-9,33,8,-16,22,7,11,-24,0.529149021
19.585272,-8,-33,-5,2,0,-2,-17,45,0.529149021
19.585294,-68,-9,-1,-7,-54,4,-3,-35,0.529149021
19.600090,31,24,2,16,60,-16,2,6,0.529149021
19.600125,8,-65,-8,4,-11,5,-1,-20,0.529149021
19.600634,-30,9,2,1,14,-10,-1,-3,0.529149021
19.600655,29,-15,-10,-2,-24,-1,-1,-22,0.529149021
19.622898,-3,24,4,-10,-18,-2,4,10,0.529149021
19.622931,-18,14,2,5,4,7,-9,-19,0.529149021
19.625490,12,-13,-2,1,15,-4,3,-16,0.529149021
19.625508,21,3,-1,4,0,0,-3,-3,0.529149021
19.637173,-37,-19,0,2,-24,8,5,-15,0.529149021
19.637203,-35,33,0,-17,26,-5,2,-37,0.529149021
19.645123,69,-45,2,19,-11,6,-9,50,0.529149021
19.645151,31,48,-5,-8,-10,-1,9,39,0.529149021
19.659889,-10,-72,-13,-11,3,3,-12,9,0.529149021
19.659896,-1,-7,-4,1,-14,-7,6,-21,0.529149021
19.660632,-47,22,2,-5,16,-5,0,-18,0.529149021
19.660664,12,27,7,6,19,2,-3,-17,0.529149021
19.683084,40,10,-3,0,6,-4,4,11,0.529149021
19.683116,-8,-18,2,3,-12,13,-3,8,0.529149021
19.685494,-22,16,1,-3,2,-4,-2,-30,0.529149021
19.685502,6,-23,0,2,9,1,4,-4,0.529149021
19.697316,-14,3,-1,-4,-11,-3,5,10,0.529149021
19.697349,28,5,-2,-7,23,-20,-19,61,0.529149021
19.705162,-14,72,14,11,-6,51,11,-17,0.526449514
19.705180,-34,-92,-6,11,-22,-67,-2,-24,0.526449514
19.721722,-7,1,-15,-14,-15,-1,1,62,0.526449514
19.721737,25,-63,-12,5,-2,-3,-6,-8,0.526449514
19.721743,9,-6,2,-11,-23,-21,-1,5,0.526449514
19.721749,1,32,7,6,31,25,-2,10,0.526449514
19.742456,5,25,11,1,-33,10,2,-21,0.526449514
19.742480,-5,29,6,13,-6,-10,8,2,0.526449514
19.744951,-21,-22,-13,-14,3,-7,-12,-50,0.526449514
19.744960,-41,-28,-6,4,19,15,-9,9,0.526449514
19.757018,21,-12,-3,-1,15,-4,-3,-24,0.526449514
19.757049,-2,10,4,-1,6,13,0,-8,0.526449514
19.765210,5,14,-2,2,12,-13,-1,-23,0.526449514
19.765240,-4,37,0,-13,-3,8,3,-8,0.526449514
19.780165,8,-20,1,3,-6,-1,0,0,0.526449514
19.780196,-16,-8,-2,-6,-11,-1,-2,2,0.526449514
19.782719,0,5,3,3,-19,-10,0,3,0.526449514
19.782729,20,11,1,-2,3,2,2,57,0.526449514
19.803036,1,29,8,-5,61,26,14,-1,0.526449514
19.803058,0,1,-8,4,-30,-14,-12,-21,0.526449514
19.803641,-25,-42,-8,4,24,28,3,0,0.526449514
19.803663,-4,14,5,-1,4,4,13,14,0.526449514
19.817091,-8,8,4,-5,-12,-1,-1,-15,0.526449514
19.817119,14,5,6,6,1,-3,0,19,0.526449514
19.825056,-16,14,1,-3,11,-7,-5,2,0.526449514
19.825081,-10,-2,-7,-1,-30,8,-6,-30,0.526449514
19.840091,-7,2,-1,4,-29,-4,0,10,0.526449514
19.840114,17,9,-4,-17,13,7,-1,-20,0.526449514
19.842629,11,27,1,5,7,-12,7,68,0.526449514
19.842645,28,11,5,-8,2,-3,0,-54,0.526449514
19.863614,-26,-23,-4,5,27,32,-3,-2,0.526449514
19.863632,32,23,4,7,16,-28,-6,1,0.526449514
19.863639,-23,-53,-6,-16,-15,7,-11,-23,0.526449514
19.863644,10,35,0,9,23,0,12,-27,0.526449514
19.878574,12,-1,-4,-1,-17,0,-3,-6,0.526449514
19.878587,-25,-9,0,2,-4,9,2,-1,0.526449514
19.885154,9,7,4,2,-2,-10,-2,-4,0.526449514
19.885178,-8,-7,-10,-18,24,10,-4,4,0.526449514
19.900372,-13,-36,3,21,-13,-33,-33,-15,0.526449514
19.900403,-6,22,1,5,16,18,12,5,0.526449514
19.902858,-5,-48,-6,-7,-4,9,-3,-25,0.526449514
19.902864,32,3,-1,-8,-24,-27,-8,8,0.526449514
19.925087,-5,14,-1,-1,7,-8,6,-2,0.526449514
19.925100,16,2,-2,-3,-26,14,-9,-24,0.526449514
19.925103,-34,-11,-10,0,13,11,2,-55,0.526449514
19.925106,4,9,4,0,-10,7,-3,-2,0.526449514
19.945808,20,14,-1,-3,18,0,1,65,0.526449514
19.945833,4,32,0,-1,-34,-18,-5,-38,0.526449514
19.946458,-38,-45,-4,-1,28,23,-2,-15,0.526449514
19.946471,-7,27,3,-7,-18,-72,-11,-10,0.526449514
19.959945,-26,-53,-5,8,10,-2,12,-10,0.526449514
19.959964,-18,-35,-3,-2,5,3,-3,0,0.526449514
19.960942,16,11,-2,1,-2,-17,-2,28,0.517458661
19.960960,7,20,-2,6,18,21,-1,-8,0.517458661
19.982649,16,15,3,-17,-37,-2,8,-15,0.517458661
19.982681,-5,5,-1,-9,12,-2,-27,18,0.517458661
19.985098,15,-18,-8,-10,-19,-21,-6,-2,0.517458661
19.985104,-27,-39,5,11,0,17,-2,4,0.517458661
20.005485,10,33,-2,1,-2,0,6,-13,0.517458661
20.005549,11,-23,2,-2,10,14,6,-1,0.517458661
20.012437,17,76,4,-8,-17,-27,-3,15,0.517458661
20.012456,14,-25,-5,7,42,47,-1,56,0.517458661
20.019924,-22,-26,-2,0,-17,-4,-15,-17,0.517458661
20.019957,-43,-46,-6,-3,2,-5,10,5,0.517458661
