timestamp,emg1,emg2,emg3,emg4,emg5,emg6,emg7,emg8,label
10.010140,46,-19,10,-4,-16,28,-1,3,1.202949003
10.010214,-36,10,-10,-3,37,35,22,-15,1.202949003
10.029809,89,-6,10,1,-11,25,-9,14,1.202949003
10.029820,-14,12,-5,-12,-41,17,16,5,1.202949003
10.031423,4,47,6,7,17,-14,-7,-15,1.202949003
10.031470,-30,-35,-4,1,-26,-23,-24,-6,1.202949003
10.044786,22,16,0,-4,4,1,11,-58,1.202949003
10.044805,18,38,10,5,-4,6,-4,63,1.202949003
10.050989,-33,-18,-6,-2,-22,15,13,-28,1.202949003
10.051015,9,16,-2,-1,35,-63,-26,-9,1.202949003
10.067367,-46,1,1,-10,-48,83,6,-36,1.202949003
10.067386,7,22,9,31,48,6,31,2,1.202949003
10.068976,7,-37,-13,1,40,31,2,42,1.202949003
10.068988,-41,-17,-4,-23,-29,21,-35,-27,1.202949003
10.090095,-13,-95,-23,-11,16,-89,37,9,1.202949003
10.090128,19,95,13,-7,-60,25,-20,40,1.202949003
10.092256,13,49,6,-4,-23,-2,23,0,1.202949003
10.092267,3,22,2,11,-1,-27,-31,-2,1.202949003
10.104433,51,26,8,9,26,23,-7,12,1.202949003
10.104457,0,27,8,-6,-34,4,-7,-15,1.202949003
10.111854,-5,-5,1,-4,15,-24,5,36,1.202949003
10.111896,11,-21,-6,4,-41,7,14,1,1.202949003
10.127621,12,23,0,-12,-7,-26,-36,10,1.202949003
10.127645,8,7,-9,-8,22,-6,10,23,1.202949003
10.128868,-72,27,0,26,8,21,22,-29,1.202949003
10.128887,48,-56,-4,-14,-15,-20,8,-6,1.202949003
10.150001,-6,-43,6,30,85,26,9,32,1.202949003
10.150028,-30,30,1,-3,39,-23,12,-32,1.202949003
10.152429,6,-89,-11,-15,-69,-27,-29,-24,1.202949003
10.152441,25,27,8,-1,-6,3,36,23,1.202949003
10.164565,-24,59,-6,-7,-40,20,-46,-10,1.202949003
10.164597,49,12,-4,-31,-78,9,19,2,1.202949003
10.171053,2,45,13,16,72,-2,-25,-11,1.202949003
10.171112,3,-52,-4,7,-4,-12,-2,3,1.202949003
10.187349,-70,-10,1,-6,25,-17,-28,26,1.202949003
10.187363,15,61,2,-1,-2,85,4,-52,1.202949003
10.188926,10,-94,-5,-8,-42,-49,0,10,1.202949003
10.188942,33,7,-2,1,1,21,1,80,1.202949003
10.210043,-7,-7,-5,7,38,11,17,-3,1.202949003
10.210066,-41,-44,7,-11,-31,-36,-40,-8,1.202949003
10.211962,-16,31,2,25,119,21,23,-56,1.202949003
10.211973,-2,20,4,3,-55,-3,-27,-4,1.202949003
10.224158,38,45,-2,4,-47,3,59,-12,1.202949003
10.224178,-64,-47,-1,-9,-17,-13,10,-5,1.202949003
10.233544,23,-14,1,-13,16,47,-6,-22,1.210024512
10.233559,-9,36,-2,3,15,-5,16,-20,1.210024512
10.248333,0,14,-3,-2,37,-24,-30,-19,1.210024512
10.248347,-17,-25,-12,3,-66,16,-35,-25,1.210024512
10.248995,36,36,-6,-18,39,-35,21,-4,1.210024512
10.249014,12,-3,-3,2,9,27,20,22,1.210024512
10.270171,1,11,1,0,-60,12,-5,-57,1.210024512
10.270196,52,47,2,3,69,-21,28,47,1.210024512
10.272057,-53,-107,-4,15,12,6,-23,-6,1.210024512
10.272070,3,18,-6,2,10,-6,-13,-66,1.210024512
10.283751,-2,-17,-8,-8,24,-2,19,27,1.210024512
10.283771,1,-68,-8,-12,-53,4,17,7,1.210024512
10.294737,42,64,2,2,2,7,-32,-2,1.210024512
10.294747,-49,2,-3,9,-40,-23,0,-50,1.210024512
10.307384,8,80,12,-10,-16,4,0,16,1.210024512
10.307400,-84,-70,-9,16,44,28,5,-65,1.210024512
10.309686,42,44,1,-3,-6,-50,4,26,1.210024512
10.309698,32,16,7,5,19,9,-38,9,1.210024512
10.330113,-90,-24,0,11,-24,4,-11,0,1.210024512
10.330139,31,68,9,-7,5,-38,19,46,1.210024512
10.331611,-8,-35,-17,-14,8,-23,-25,-5,1.210024512
10.331634,9,-19,-5,0,45,5,9,9,1.210024512
10.343385,23,-7,-5,-10,-42,-21,17,4,1.210024512
10.343397,50,-12,-3,-14,-46,3,-9,-16,1.210024512
10.353526,-48,-2,3,4,46,9,-33,-17,1.210024512
10.353543,38,0,-3,-3,9,-16,-4,19,1.210024512
10.367510,43,27,2,-12,-16,-3,21,51,1.210024512
10.367532,-80,-122,-10,23,40,28,-39,-25,1.210024512
10.369775,10,43,-11,-16,-25,26,24,-15,1.210024512
10.369786,-14,27,-4,6,7,-1,-14,27,1.210024512
10.389827,40,0,3,-13,-56,0,-5,-21,1.210024512
10.389857,0,35,3,-6,1,-29,4,29,1.210024512
10.391246,-37,-59,3,6,9,78,40,-16,1.210024512
10.391255,30,51,11,1,-68,-22,-25,-12,1.210024512
10.405223,29,-20,-8,11,26,7,-4,30,1.210024512
10.405236,32,32,0,15,12,-13,12,9,1.210024512
10.413656,0,23,1,-19,-77,5,2,1,1.210024512
10.413666,-29,-56,-5,-16,1,-4,3,-27,1.210024512
10.427703,18,-16,1,12,57,25,-5,9,1.210024512
10.427726,-29,-28,-7,-3,14,-28,17,-28,1.210024512
10.430126,37,103,9,-5,-92,22,3,35,1.210024512
10.430136,-55,-45,-15,-18,59,-3,8,-27,1.210024512
10.451749,20,19,7,30,77,-9,-8,-3,1.210024512
10.451762,-16,-84,-8,5,-11,4,5,-77,1.210024512
10.451765,41,44,9,4,-87,-9,34,89,1.210024512
10.452108,-2,-17,6,-6,-40,-37,-1,-13,1.210024512
10.463907,-35,35,-1,-13,-28,20,5,-47,1.210024512
10.463930,65,85,3,4,40,-9,-12,8,1.210024512
10.472867,-84,-15,-1,3,-10,-21,13,-18,1.210024512
10.472879,12,-11,5,30,45,28,-4,1,1.210024512
10.487480,-16,-31,-4,-10,26,14,2,4,1.188626738
10.487504,23,-13,2,-9,-47,-58,-3,7,1.188626738
10.488976,23,-28,-1,-10,14,4,-3,41,1.188626738
10.489000,-59,17,-3,-13,-43,-10,3,45,1.188626738
10.510129,10,3,4,14,51,63,17,0,1.188626738
10.510146,15,27,-4,-13,-10,21,-26,22,1.188626738
10.512643,31,-61,-4,33,-35,15,38,-39,1.188626738
10.512684,6,31,1,4,17,21,-49,-16,1.188626738
10.523754,2,1,4,-6,-59,-38,-26,3,1.188626738
10.523778,-24,-26,-3,-6,-8,-15,-21,27,1.188626738
10.534364,-25,5,-1,-15,-11,-5,24,-30,1.188626738
10.534377,-6,-37,2,2,23,-8,-3,49,1.188626738
10.547458,9,-68,-24,-28,-54,-5,-9,-17,1.188626738
10.547503,5,53,15,12,13,49,23,77,1.188626738
10.548970,-45,47,-1,-14,-17,-37,-17,-44,1.188626738
10.549006,30,-1,-8,20,59,15,4,-12,1.188626738
10.570140,-37,-9,6,-4,25,-13,-15,10,1.188626738
10.570156,14,25,-5,-8,-5,43,35,-25,1.188626738
10.572448,-2,60,-4,-16,-43,-49,4,-13,1.188626738
10.572459,-63,-84,-1,-8,-3,-34,-36,-39,1.188626738
10.583924,12,54,11,25,127,95,41,23,1.188626738
10.583944,4,-43,-16,-18,-43,-87,-32,-74,1.188626738
10.593718,3,-22,-10,-11,-6,31,-14,55,1.188626738
10.593733,50,118,-7,-22,-27,27,-15,-67,1.188626738
10.607788,7,-75,-12,-19,-128,-77,0,-17,1.188626738
10.607805,-26,29,13,23,54,9,-30,9,1.188626738
10.608707,49,-95,-7,8,60,9,0,-10,1.188626738
10.608715,36,26,4,-1,-5,-17,11,10,1.188626738
10.629952,-59,-33,-7,-13,-26,-15,-14,-66,1.188626738
10.629967,7,37,8,15,75,19,26,40,1.188626738
10.633696,-17,25,6,19,10,-22,-25,-41,1.188626738
10.633710,37,-95,-2,7,-2,50,32,53,1.188626738
10.643828,-17,87,12,13,27,32,66,-26,1.188626738
10.643859,-60,-91,-15,-15,-22,9,-60,-17,1.188626738
10.654228,8,9,-5,-23,2,2,-2,7,1.188626738
10.654237,-29,-11,-3,6,3,13,4,-36,1.188626738
10.667599,20,19,0,3,-47,-15,-2,6,1.188626738
10.667616,-2,80,-5,-6,18,7,-12,-19,1.188626738
10.669808,45,-40,2,0,32,23,-23,-15,1.188626738
10.669826,-73,48,-5,-1,-3,-14,20,-13,1.188626738
10.690187,-6,19,3,1,-22,-13,-12,-6,1.188626738
10.690211,68,61,9,1,23,-6,-21,-5,1.188626738
10.692001,-54,-89,-11,-8,-4,-13,-4,-15,1.188626738
10.692012,-12,40,7,13,-5,-19,6,15,1.188626738
10.703620,47,57,10,11,55,-1,9,27,1.188626738
10.703637,0,-86,-5,-22,-75,-18,0,-7,1.188626738
10.714558,5,40,7,21,75,12,-6,-12,1.188626738
10.714572,-7,44,4,-5,-100,-64,55,-2,1.188626738
10.727998,-36,-79,-20,-17,43,33,-36,23,1.188626738
10.728029,10,68,3,-8,-44,8,14,16,1.188626738
10.730150,34,-60,-5,13,11,-11,0,24,1.188626738
10.730160,-15,44,4,-14,-26,3,-4,-14,1.188626738
10.750135,53,-8,7,-3,-21,-8,-23,-41,1.218429489
10.750161,11,44,-8,8,19,-18,19,-1,1.218429489
10.751529,-11,-8,-3,-20,-80,7,15,-9,1.218429489
10.751546,-37,-7,9,27,106,10,-51,-42,1.218429489
10.772746,17,48,-3,12,-57,-38,3,-54,1.218429489
10.772778,-25,-123,-5,5,-17,24,-1,-12,1.218429489
10.775571,18,77,6,-5,15,22,14,-19,1.218429489
10.775582,37,-9,-10,-14,-40,-57,16,22,1.218429489
10.794707,-55,-55,1,-16,7,-29,-33,12,1.218429489
10.794718,-43,17,-6,13,-3,14,20,12,1.218429489
10.796345,-27,-17,-7,-20,-11,34,-2,-6,1.218429489
10.796361,46,23,-3,-6,-7,-36,8,1,1.218429489
10.809693,-13,-40,-5,29,8,-88,-24,21,1.218429489
10.809705,-6,-68,-1,-23,-51,72,18,-24,1.218429489
10.811304,67,24,2,-3,92,-29,-27,-21,1.218429489
10.811343,-19,-39,-1,-9,-14,73,-16,-1,1.218429489
10.832615,-4,-7,-6,-1,-70,-18,22,19,1.218429489
10.832634,-3,22,-1,-1,4,-41,-13,21,1.218429489
10.835118,-30,-31,-7,2,-13,2,-2,19,1.218429489
10.835139,33,25,5,-3,-1,5,-11,12,1.218429489
10.847931,-27,63,4,-11,-6,12,1,-1,1.218429489
10.847976,-30,-98,-6,13,23,2,25,-82,1.218429489
10.851003,-64,34,-11,-5,26,-1,-12,26,1.218429489
10.851016,40,12,9,-10,-19,12,11,13,1.218429489
10.870127,37,28,4,-13,-14,15,0,31,1.218429489
10.870137,-14,34,-4,14,51,-19,23,1,1.218429489
10.871358,-42,-23,1,15,6,71,17,14,1.218429489
10.871373,-30,-44,-4,16,-65,-80,-2,-4,1.218429489
10.892640,-56,7,4,1,98,70,-4,-6,1.218429489
10.892664,63,13,-2,-23,-95,-61,11,63,1.218429489
10.894772,3,24,6,14,-17,19,1,-82,1.218429489
10.894784,16,-42,-3,-5,60,47,21,40,1.218429489
10.906638,5,-12,-6,-3,9,15,7,-2,1.218429489
10.906655,-4,75,7,1,29,-9,-10,-19,1.218429489
10.913744,21,15,12,2,-44,-28,-12,5,1.218429489
10.913768,40,33,-2,-19,-38,3,-7,-5,1.218429489
10.930316,-33,0,1,23,29,-27,1,10,1.218429489
10.930359,0,-74,4,16,42,67,-16,-22,1.218429489
10.933012,52,123,16,13,33,-31,21,30,1.218429489
10.933033,15,-37,-2,11,4,7,19,39,1.218429489
10.952449,39,-24,2,-22,-37,30,-44,0,1.218429489
10.952466,23,89,2,4,-8,-32,7,50,1.218429489
10.953920,-45,-37,1,-3,-16,24,22,-9,1.218429489
10.953943,-49,-75,-12,-6,-29,-9,-9,-26,1.218429489
10.966853,24,51,6,-13,-12,-11,15,16,1.218429489
10.966871,-28,-79,-5,26,34,47,-15,-1,1.218429489
10.973838,13,-21,-8,-11,24,-15,-4,9,1.218429489
10.973862,9,19,2,-2,17,-4,7,-19,1.218429489
10.997304,-28,-28,-14,-16,-79,-3,-17,-19,1.218361888
10.997345,15,72,9,8,22,-26,-3,2,1.218361888
10.998975,13,-81,-8,-9,-28,-5,-6,9,1.218361888
10.999004,-60,11,-4,-3,33,25,24,-38,1.218361888
11.012222,67,13,0,12,-59,-47,3,-12,1.218361888
11.012234,-60,-27,-6,2,11,29,-48,-40,1.218361888
11.013783,-19,8,0,-19,-10,29,26,12,1.218361888
11.013822,12,-55,-1,-2,33,-38,-31,-11,1.218361888
11.026610,17,-15,-3,1,-14,27,41,73,1.218361888
11.026663,10,-31,-10,-2,4,10,5,21,1.218361888
11.033543,16,56,-4,-11,21,-22,-33,-6,1.218361888
11.033570,-4,69,6,19,-34,16,17,-41,1.218361888
11.050073,-51,-37,-10,-14,-21,-16,-12,-21,1.218361888
11.050099,29,31,8,2,-13,-5,7,7,1.218361888
11.052007,-2,22,-13,1,-78,4,-17,-3,1.218361888
11.052020,17,-46,3,13,75,36,31,-9,1.218361888
11.074045,-88,32,2,12,7,-23,-3,-18,1.218361888
11.074057,57,64,4,-43,-27,8,4,-3,1.218361888
11.074060,-78,-37,4,14,31,-40,16,-16,1.218361888
11.074062,-14,73,1,-1,-9,49,-5,0,1.218361888
11.094927,56,-22,-3,8,33,10,8,36,1.218361888
11.094944,19,-2,1,-6,-17,67,32,66,1.218361888
11.096663,3,-8,-5,-8,-14,-88,2,-2,1.218361888
11.096680,-21,-23,4,-10,46,79,-79,39,1.218361888
11.110210,-14,-47,-2,13,90,46,19,-23,1.218361888
11.110241,13,0,-13,-18,-12,-26,-2,-4,1.218361888
11.112609,32,-3,3,3,-35,-3,-12,-3,1.218361888
11.112620,-39,86,4,6,2,-6,19,22,1.218361888
11.132729,37,-1,-3,-5,-31,-32,-45,62,1.218361888
11.132761,-12,-82,-9,7,25,-56,-6,-33,1.218361888
11.135218,-42,39,2,-28,-42,-4,-9,-12,1.218361888
11.135231,-48,-31,-3,3,-40,-12,17,-9,1.218361888
11.147087,62,-34,-8,-15,12,8,-26,-43,1.218361888
11.147110,-32,-15,2,12,21,-27,6,11,1.218361888
11.153719,2,19,-2,-6,40,-28,37,26,1.218361888
11.153780,21,-1,-4,4,-7,2,-11,-12,1.218361888
11.169869,15,-13,-5,-11,-11,-33,14,4,1.218361888
11.169885,-9,29,2,1,-21,16,-5,-24,1.218361888
11.171410,7,-22,0,-1,-17,1,7,24,1.218361888
11.171430,-7,49,-2,-10,-44,7,-25,-38,1.218361888
11.199969,71,-27,1,7,33,35,19,14,1.218361888
11.199987,-28,8,0,-15,-40,-26,-24,-64,1.218361888
11.201476,39,-15,9,25,6,36,-1,43,1.218361888
11.201493,43,-56,-14,-21,16,-56,20,1,1.218361888
11.206599,-32,48,8,19,65,55,20,4,1.218361888
11.206616,-27,-5,-5,-30,-46,14,-50,-43,1.218361888
11.221370,-7,2,10,17,65,30,-10,10,1.218361888
11.221395,-24,-70,-12,18,-5,-47,-10,4,1.218361888
11.229733,-10,53,0,7,-56,-34,37,-16,1.218361888
11.229752,14,-51,-4,0,-27,78,19,40,1.218361888
11.231460,6,26,-1,-5,-33,-59,-2,-32,1.218361888
11.231472,33,23,2,0,13,31,-32,62,1.218361888
11.252358,-31,-32,-8,-11,-24,-33,-30,-43,1.215950810
11.252378,-19,40,11,19,-15,10,20,-37,1.215950810
11.254465,2,51,-10,-14,11,40,-3,-19,1.215950810
11.254477,-6,-77,2,1,0,-10,18,5,1.215950810
11.266333,-19,-3,4,-6,-31,1,-24,-9,1.215950810
11.266354,-36,65,3,8,-3,-11,-14,8,1.215950810
11.277122,-30,-68,-5,23,81,11,4,-72,1.215950810
11.277138,18,26,-4,-10,1,-20,-8,9,1.215950810
11.290077,-13,24,3,16,35,27,6,-11,1.215950810
11.290100,28,14,14,0,-26,-23,2,-10,1.215950810
11.292548,-2,36,-5,2,14,42,13,-34,1.215950810
11.292561,10,3,-4,-1,-19,-21,-4,-15,1.215950810
11.312850,-37,9,8,23,91,64,1,-2,1.215950810
11.312878,25,49,-4,5,24,-42,42,19,1.215950810
11.315916,17,-97,-6,-11,-45,52,-29,12,1.215950810
11.315930,-16,-11,-4,-4,-12,8,10,-15,1.215950810
11.326164,36,-35,-9,-25,18,14,-13,16,1.215950810
11.326213,-12,7,1,-1,38,-20,-6,20,1.215950810
11.336350,-2,60,2,-2,-18,-9,9,66,1.215950810
11.336363,28,32,6,3,9,16,-18,10,1.215950810
11.350017,-37,2,5,-3,-16,-28,6,-15,1.215950810
11.350039,5,-8,-9,5,8,21,1,51,1.215950810
11.352685,5,20,6,2,-17,-23,0,4,1.215950810
11.352698,7,-22,-3,-17,-4,8,6,-19,1.215950810
11.372308,27,35,8,-9,-8,-25,4,92,1.215950810
11.372325,25,-33,-2,-1,-17,-17,2,-13,1.215950810
11.373865,-3,-27,0,-4,-36,48,15,14,1.215950810
11.373905,-25,50,-4,-23,-14,-9,-30,-6,1.215950810
11.387371,-14,-69,-15,-11,-38,-69,8,-49,1.215950810
11.387387,33,-34,-4,-2,74,-31,13,2,1.215950810
11.396517,-63,11,2,-9,-36,-68,-11,60,1.215950810
11.396526,30,-37,-11,-17,15,58,23,-2,1.215950810
11.410158,16,49,12,16,69,40,5,-8,1.215950810
11.410188,14,-14,-1,0,16,18,-14,32,1.215950810
11.412502,36,10,-9,-2,-3,-24,-18,-51,1.215950810
11.412513,-63,-19,2,9,-17,-14,3,11,1.215950810
11.434468,-16,14,-3,-7,7,16,-3,0,1.215950810
11.434482,18,21,7,3,-53,-35,-3,1,1.215950810
11.434485,-17,-77,-8,16,29,8,-12,-53,1.215950810
11.434488,-18,54,9,-9,-60,-33,5,36,1.215950810
11.446384,16,-31,-5,37,56,64,4,30,1.215950810
11.446415,-28,51,-2,-14,-35,-2,-5,-17,1.215950810
11.455064,18,-40,-2,-6,-12,37,-4,-7,1.215950810
11.455083,34,-1,-5,-2,36,-75,-11,-75,1.215950810
11.469892,-4,86,8,-19,-51,64,-6,-22,1.215950810
11.469922,10,2,-1,16,-15,-22,18,-1,1.215950810
11.471408,-50,-51,-17,-12,25,-15,-1,16,1.215950810
11.471430,86,-21,0,11,35,21,-2,-51,1.215950810
11.492777,-1,63,2,-29,-100,-9,3,-30,1.215950810
11.492801,-12,0,0,16,96,56,-17,-6,1.215950810
11.495109,-9,50,-1,-7,-17,-7,-11,0,1.215950810
11.495124,0,-82,-2,-7,-55,-31,14,-9,1.215950810
11.506179,-17,32,1,0,23,8,-33,-49,1.216270786
11.506203,-23,-65,-6,-12,-6,18,-22,32,1.216270786
11.516766,25,-16,2,14,18,-21,12,0,1.216270786
11.516820,-18,42,-1,3,22,21,-14,32,1.216270786
11.529822,17,5,2,1,-41,-69,2,1,1.216270786
11.529866,-3,-27,-5,1,-22,0,2,-29,1.216270786
11.531352,51,11,7,-14,-9,88,-17,19,1.216270786
11.531400,-19,-18,3,1,-90,-73,37,10,1.216270786
11.552368,-1,-115,-17,6,61,-3,16,3,1.216270786
11.552386,-31,21,1,-31,-5,2,-47,-56,1.216270786
11.554590,5,-45,5,27,45,-6,8,-9,1.216270786
11.554602,36,15,2,-28,-22,47,20,26,1.216270786
11.566183,23,53,9,14,45,35,-19,20,1.216270786
11.566203,-6,-16,-7,4,-15,-57,-25,-57,1.216270786
11.575825,-61,26,-3,-9,-9,-14,26,-11,1.216270786
11.575834,-20,72,8,2,-14,4,-20,-9,1.216270786
11.589767,-64,-74,-12,16,41,-35,-2,-16,1.216270786
11.589781,22,13,3,-11,-33,28,21,16,1.216270786
11.591311,41,-22,-2,-3,-12,-23,-21,14,1.216270786
11.591323,-23,53,-2,12,45,9,8,-2,1.216270786
11.612617,35,-84,-7,-13,-128,24,5,-16,1.216270786
11.612649,-7,30,6,6,22,-46,27,21,1.216270786
11.614444,-4,12,-4,-19,11,-34,1,21,1.216270786
11.614461,28,28,5,28,-75,-5,-47,-40,1.216270786
11.626533,3,-33,-8,-6,38,9,19,21,1.216270786
11.626564,-18,4,6,1,-47,-23,-14,18,1.216270786
11.635755,-24,-18,-2,10,63,32,37,-72,1.216270786
11.635766,4,90,13,-7,37,45,9,-68,1.216270786
11.649798,-41,-32,-1,-5,-3,-34,-38,-40,1.216270786
11.649819,-5,-45,-7,12,-21,30,22,17,1.216270786
11.651998,60,77,9,-10,-71,-70,-36,14,1.216270786
11.652011,-67,-40,-8,7,26,35,-10,23,1.216270786
11.672720,38,43,-3,-11,7,-29,10,21,1.216270786
11.672743,-33,35,7,12,-44,26,-21,10,1.216270786
11.675216,-40,-1,2,4,8,6,-1,-10,1.216270786
11.675227,33,42,-10,-7,20,22,-1,68,1.216270786
11.695033,42,-51,-3,-12,-73,-18,8,20,1.216270786
11.695058,-14,-19,-10,5,34,9,-2,-14,1.216270786
11.697334,34,69,3,-9,11,12,9,10,1.216270786
11.697345,-9,-63,-8,7,9,-28,20,6,1.216270786
11.710021,-20,24,3,13,-39,-7,-34,-2,1.216270786
11.710045,26,45,-4,-11,64,12,9,-20,1.216270786
11.712240,20,-47,-14,-5,-46,44,-4,-7,1.216270786
11.712258,13,-103,-12,3,40,-8,16,-1,1.216270786
11.732465,-11,31,12,-17,8,34,20,13,1.216270786
11.732484,59,10,-5,-7,-16,-57,14,-52,1.216270786
11.734274,-38,49,10,14,-4,7,-17,32,1.216270786
11.734293,-12,-30,-12,-14,43,29,-8,-22,1.216270786
11.754730,-18,-15,-6,-10,-27,-8,11,-3,1.216270786
11.754751,-51,-32,6,28,44,25,-30,45,1.216270786
11.756321,4,66,10,13,-7,-2,35,-32,1.216270786
11.756350,13,-18,2,-16,-18,-1,-5,-2,1.216270786
11.769788,15,-11,-8,2,-93,-12,-3,2,1.224247631
11.769805,-45,-51,-12,-27,17,-32,-15,-30,1.224247631
11.771928,36,34,1,1,27,58,1,-51,1.224247631
11.771946,-41,6,6,2,-23,22,13,5,1.224247631
11.792295,-25,82,-1,-6,18,-26,-15,-12,1.224247631
11.792305,32,7,0,10,-24,10,7,17,1.224247631
11.793779,13,-37,-7,-8,2,-64,-19,24,1.224247631
11.793815,-2,-19,-4,2,18,8,9,-18,1.224247631
11.814965,38,2,9,-6,18,30,16,-34,1.224247631
11.814990,-54,-6,-13,-26,-28,-33,9,59,1.224247631
11.817113,48,64,15,20,25,1,-17,3,1.224247631
11.817126,-3,-55,-4,20,27,39,-6,72,1.224247631
11.829996,80,60,6,5,41,-48,-5,-12,1.224247631
11.830027,-20,-17,2,-8,-24,54,4,-3,1.224247631
11.836063,10,-51,1,-1,-33,-13,3,-12,1.224247631
11.836081,-4,16,-8,0,33,33,14,-3,1.224247631
11.852397,-22,83,13,17,-38,13,-3,-11,1.224247631
11.852415,10,-39,-2,-14,14,-14,0,-42,1.224247631
11.854382,-20,-40,-14,-17,-20,15,-2,37,1.224247631
11.854393,-37,26,-1,-1,0,-112,-35,-63,1.224247631
11.875068,0,47,8,14,45,31,4,27,1.224247631
11.875091,29,-52,-11,-19,70,86,6,-26,1.224247631
11.876216,-28,-49,0,7,23,17,31,22,1.224247631
11.876234,-42,-26,-10,-14,-42,-28,-77,-66,1.224247631
11.889280,-11,-31,-7,13,48,28,15,21,1.224247631
11.889294,33,78,13,4,7,-25,7,28,1.224247631
11.896158,25,32,-5,5,-14,-6,-17,-1,1.224247631
11.896181,59,-24,8,-13,-67,-20,5,51,1.224247631
11.912993,-78,-128,-31,-5,4,64,19,7,1.224247631
11.913025,49,61,2,8,-32,14,-3,1,1.224247631
11.915871,-82,-65,-13,-5,-1,-24,2,0,1.224247631
11.915883,29,72,15,8,-11,6,17,19,1.224247631
11.951327,5,26,-3,-9,21,-52,-13,64,1.224247631
11.951418,-26,-67,-4,6,-60,5,11,-9,1.224247631
11.952699,24,46,3,-15,-10,8,2,-15,1.224247631
11.952721,-40,11,-13,-33,-56,-28,34,46,1.224247631
11.953461,27,79,19,17,51,-2,-67,0,1.224247631
11.953472,-44,-80,-12,-1,-32,-9,22,-34,1.224247631
11.957457,-8,-40,2,5,-34,-1,-7,-2,1.224247631
11.957473,8,20,0,1,46,20,-12,-34,1.224247631
11.972601,41,52,2,-13,-72,-11,56,76,1.224247631
11.972625,-41,-30,-10,-28,-7,-14,-11,-4,1.224247631
11.974588,3,35,-1,-7,-56,-10,-22,0,1.224247631
11.974600,-3,-32,1,7,-46,5,19,-24,1.224247631
11.994710,80,28,10,-23,-78,-23,18,24,1.224247631
11.994763,-28,1,-5,39,117,64,0,-41,1.224247631
11.996232,28,-14,1,-5,-16,8,-15,65,1.224247631
11.996265,8,26,6,16,25,9,14,1,1.224247631
12.009011,29,4,-4,-10,-5,8,2,-39,1.224247631
12.009022,7,38,3,-5,-14,-13,-1,11,1.224247631
12.016101,-11,-63,-6,13,29,1,7,-20,1.224247631
12.016160,22,21,5,7,17,2,-6,-12,1.224247631
12.032501,-84,0,2,3,31,3,-6,-36,1.237587439
12.032526,83,-17,-3,-11,-33,-34,-6,12,1.237587439
12.034658,-50,-53,-11,16,41,20,-5,-38,1.237587439
12.034670,24,-9,1,9,26,-32,20,18,1.237587439
12.054032,-28,13,-1,-10,38,-3,-4,-23,1.237587439
12.054060,49,57,8,22,-13,58,32,41,1.237587439
12.064101,-80,1,3,8,-1,-103,-3,-69,1.237587439
12.064111,7,27,4,14,41,17,3,18,1.237587439
12.069433,-12,-55,1,-12,52,9,-7,27,1.237587439
12.069451,-28,-42,-3,-12,-88,-38,2,60,1.237587439
12.076449,50,27,2,-2,32,19,-1,5,1.237587439
12.076480,9,26,2,8,25,41,1,-2,1.237587439
12.092807,-42,16,-1,-4,15,-23,-2,-31,1.237587439
12.092838,56,-3,8,4,14,8,-18,-14,1.237587439
12.095476,-56,66,-1,-12,45,-12,10,15,1.237587439
12.095486,36,-20,-1,0,-67,-36,-16,31,1.237587439
12.115374,-10,-12,-4,11,29,62,-5,-29,1.237587439
12.115399,-13,24,7,1,-1,-59,-49,-23,1.237587439
12.117804,18,1,-5,0,21,8,20,4,1.237587439
12.117816,12,65,-6,7,-3,78,-50,-19,1.237587439
12.129523,-39,-117,-14,-6,8,-41,36,-26,1.237587439
12.129547,-27,32,5,16,53,5,-16,9,1.237587439
12.136082,-47,-36,-4,-13,-28,-14,-3,-4,1.237587439
12.136102,0,-7,3,9,47,4,-9,64,1.237587439
12.152304,49,23,9,8,-17,-20,26,44,1.237587439
12.152323,-7,49,-10,-15,-2,-2,-41,-35,1.237587439
12.153962,37,-7,3,-4,-59,12,0,-34,1.237587439
12.153985,-28,-23,-3,-16,-5,-3,15,-36,1.237587439
12.175337,-27,-27,-9,-10,7,7,-13,-11,1.237587439
12.175368,54,56,4,11,6,-10,21,12,1.237587439
12.178100,-34,30,0,-13,-82,-17,-4,-11,1.237587439
12.178110,-43,11,4,-5,21,85,19,-22,1.237587439
12.188899,35,-9,-8,-3,-17,-23,3,7,1.237587439
12.188931,-28,-13,2,-18,-33,55,61,-17,1.237587439
12.199514,8,-96,-8,12,64,85,-8,-4,1.237587439
12.199532,4,-12,-5,-4,73,-51,6,17,1.237587439
12.213991,2,35,8,18,-26,10,-5,-10,1.237587439
12.214008,-15,-17,2,-4,16,9,1,-15,1.237587439
12.218507,67,47,0,-23,-47,-50,-16,6,1.237587439
12.218525,-13,-7,0,-9,29,-9,-5,-11,1.237587439
12.234976,37,14,5,16,-36,-3,-8,53,1.237587439
12.234993,-29,-81,-11,-12,2,8,-6,-6,1.237587439
12.236492,34,23,3,10,6,9,3,79,1.237587439
12.236510,11,-40,0,-6,-39,-23,-14,9,1.237587439
12.248623,-48,37,1,-11,5,-12,-10,-49,1.237587439
12.248649,-9,-1,-17,-9,-1,21,10,24,1.237587439
12.259396,6,-17,-2,20,-40,0,24,-10,1.237587439
12.259407,-6,-12,-8,-17,36,-49,-57,-24,1.237587439
12.272701,4,5,-2,0,-13,-1,-17,9,1.237587439
12.272725,-9,61,12,19,39,-2,13,-1,1.237587439
12.275285,-33,-42,-15,-13,23,9,-17,-27,1.216883697
12.275296,2,54,3,6,0,30,32,4,1.216883697
12.294938,-7,-74,-8,10,-16,12,-11,-22,1.216883697
12.294979,3,60,11,-23,-42,-38,-22,-26,1.216883697
12.296333,93,45,3,7,51,18,-1,16,1.216883697
12.296348,-37,-20,1,-3,-5,12,0,25,1.216883697
12.308453,-4,52,3,-6,1,-4,3,56,1.216883697
12.308469,14,-52,-8,4,-5,-4,16,7,1.216883697
12.318740,-54,15,2,-12,1,-13,-10,-26,1.216883697
12.318753,67,-22,-3,-2,-16,7,21,50,1.216883697
12.332873,-18,27,5,-3,-13,0,-6,-67,1.216883697
12.332919,29,-83,0,20,76,16,-5,69,1.216883697
12.334927,1,-16,3,5,44,-9,23,22,1.216883697
12.334941,-28,-54,-10,-14,-86,10,-29,-37,1.216883697
12.354720,-13,15,-2,12,-1,-14,40,-32,1.216883697
12.354734,46,43,4,17,28,-50,-17,8,1.216883697
12.356365,-31,-42,5,4,41,37,3,5,1.216883697
12.356387,-12,-9,-8,13,-31,14,-4,-21,1.216883697
12.369501,31,-1,-10,-23,-24,-1,2,-47,1.216883697
12.369512,1,23,1,-1,-48,6,2,-28,1.216883697
12.385649,-42,41,-1,-10,-27,-16,-1,6,1.216883697
12.385660,15,13,8,-2,-14,-47,24,58,1.216883697
12.392253,-18,-99,-7,9,-63,50,-53,-22,1.216883697
12.392270,-49,21,7,-2,10,-20,19,1,1.216883697
12.394220,45,-9,-5,-1,-19,31,1,-16,1.216883697
12.394238,-10,6,0,-24,-78,-9,-16,5,1.216883697
12.418219,-27,65,0,15,16,-2,13,-28,1.216883697
12.418237,52,-34,5,22,43,-25,8,91,1.216883697
12.418244,80,115,11,-1,44,90,-56,3,1.216883697
12.418249,-23,-85,-9,-5,-38,-90,46,-16,1.216883697
12.429002,-9,-22,-1,10,74,-8,25,16,1.216883697
12.429034,-64,-52,-10,-10,-63,30,18,-96,1.216883697
12.439176,-22,-30,-10,-9,-49,-50,-39,-8,1.216883697
12.439190,92,88,-13,-3,58,37,-9,-7,1.216883697
12.452393,-51,-40,-6,-23,9,8,20,6,1.216883697
12.452410,-24,-22,-3,-4,-13,-6,-9,-54,1.216883697
12.454607,4,-95,-4,-17,6,-38,26,30,1.216883697
12.454620,-12,8,1,10,-55,27,-41,-52,1.216883697
12.475020,-1,-9,0,13,60,-20,6,-11,1.216883697
12.475044,-14,42,-4,-24,-23,-11,-6,-45,1.216883697
12.477655,-26,32,5,23,62,41,-21,-41,1.216883697
12.477664,-60,-33,2,7,28,-5,26,18,1.216883697
12.488743,10,-9,-3,-12,-44,5,-16,24,1.216883697
12.488767,60,66,1,-3,-30,54,10,70,1.216883697
12.498496,-36,-43,-8,-23,-13,-80,38,0,1.216883697
12.498512,-3,30,16,22,21,10,12,-58,1.216883697
12.513196,44,-71,-12,-24,-25,-9,-35,10,1.216883697
12.513209,-29,-4,-1,27,58,2,-29,-19,1.216883697
12.513836,-15,22,7,2,-48,48,80,-18,1.216883697
12.513885,-4,50,2,-18,-7,10,-42,10,1.216883697
12.534937,-19,-49,-9,3,-29,-28,13,0,1.222909142
12.534954,26,21,1,-22,-48,-2,18,5,1.222909142
12.537061,11,25,-1,-2,4,-29,-14,-8,1.222909142
12.537073,0,1,1,1,24,22,18,-57,1.222909142
12.548651,-26,42,3,-11,-21,-13,-21,-5,1.222909142
12.548673,-2,12,0,13,-17,2,-7,-29,1.222909142
12.558903,-38,-56,-8,1,35,1,-11,7,1.222909142
12.558913,1,45,10,-4,-5,4,30,7,1.222909142
12.572450,61,-30,-5,-11,-10,-32,-41,-33,1.222909142
12.572477,-31,20,6,25,37,-30,47,-21,1.222909142
12.578795,15,-15,0,5,52,35,-12,-19,1.222909142
12.578821,33,54,3,4,73,6,-7,7,1.222909142
12.594907,-75,-52,-7,3,-45,-1,10,-8,1.222909142
12.594926,3,8,-5,-8,-59,-3,-14,5,1.222909142
12.596667,45,-65,-4,-9,16,4,-43,55,1.222909142
12.596696,-3,70,6,18,14,8,36,3,1.222909142
12.608416,4,-4,-11,-35,-21,1,-47,5,1.222909142
12.608434,28,28,4,33,45,15,-23,27,1.222909142
12.618643,-39,15,-5,-10,-38,-9,22,-17,1.222909142
12.618655,39,25,-2,3,12,4,-2,38,1.222909142
12.632742,72,-2,3,5,14,-4,28,14,1.222909142
12.632774,-79,-47,-11,-25,-16,10,-4,-60,1.222909142
12.634848,-24,-11,1,-4,-23,-24,-2,-3,1.222909142
12.634861,3,-31,-6,2,-16,37,-13,-23,1.222909142
12.654838,8,86,10,13,40,-7,17,-3,1.222909142
12.654856,-32,18,-3,-14,2,9,23,-20,1.222909142
12.656440,31,-3,-10,-16,-81,2,-12,-8,1.222909142
12.656463,-68,-48,5,-9,-54,-84,-31,-1,1.222909142
12.677470,-80,9,-1,11,78,47,11,24,1.222909142
12.677487,14,32,4,-6,6,25,-23,30,1.222909142
12.679332,37,32,-9,9,-66,-27,-73,-72,1.222909142
12.679344,-61,-19,0,-13,32,1,15,0,1.222909142
12.692493,11,-61,-2,0,-28,37,22,-12,1.222909142
12.694398,-23,-43,-3,-1,36,-16,-10,15,1.222909142
12.694409,6,51,15,32,1,7,5,23,1.222909142
12.694411,16,-2,-5,-12,-13,18,-19,-2,1.222909142
12.716108,14,53,3,17,-5,-27,20,-18,1.222909142
12.716122,-10,-5,-2,-4,34,11,-2,18,1.222909142
12.716661,1,40,2,-9,38,-3,27,60,1.222909142
12.716683,18,-57,-2,18,-20,-3,-1,-39,1.222909142
12.737683,-5,2,-2,-3,-38,1,-5,-9,1.222909142
12.737717,55,22,1,-6,-19,-6,-6,24,1.222909142
12.740102,-4,-11,-7,2,-36,-20,-4,-9,1.222909142
12.740114,15,-32,-5,-12,50,7,8,10,1.222909142
12.752300,-2,45,3,8,-22,-5,-12,17,1.222909142
12.752330,12,-19,-8,-33,-81,-8,16,-20,1.222909142
12.754317,-8,33,8,18,116,-7,-58,-21,1.222909142
12.754343,-37,-40,-6,-2,-37,13,49,67,1.222909142
12.774099,17,64,-4,-32,-68,-53,4,2,1.222909142
12.774122,26,-38,4,29,100,108,-48,14,1.222909142
12.783082,-28,4,1,-11,-30,-35,53,-18,1.222909142
12.783110,-5,-36,-10,-5,16,1,-19,-10,1.222909142
12.797226,27,63,15,10,25,8,-19,10,1.212588817
12.797245,31,6,-2,1,-73,-36,15,-79,1.212588817
12.798924,-33,49,-1,-6,55,54,-21,20,1.212588817
12.798953,4,-2,-12,-19,8,-49,-30,-22,1.212588817
12.811918,-14,-56,-4,0,-29,0,8,5,1.212588817
12.811957,16,3,2,6,-4,-16,31,28,1.212588817
12.818455,21,30,4,3,-25,-6,-45,-6,1.212588817
12.818476,-8,34,1,-3,-2,-17,0,-3,1.212588817
12.834839,18,-80,-5,5,43,44,-6,-3,1.212588817
12.834857,-72,16,0,-41,-80,16,-3,-53,1.212588817
12.836460,78,24,5,53,76,-65,17,60,1.212588817
12.836474,1,49,9,0,15,52,11,28,1.212588817
12.857439,-1,-2,7,13,65,-39,18,3,1.212588817
12.857484,8,-24,-5,-8,-20,83,19,34,1.212588817
12.858849,-46,-30,-11,-41,-128,-17,-29,-30,1.212588817
12.858864,-39,36,-10,18,24,15,-20,-76,1.212588817
12.871731,11,-35,-2,6,31,-4,-10,27,1.212588817
12.871745,28,-9,5,-2,2,-38,2,23,1.212588817
12.878662,-24,17,9,2,-16,25,18,-22,1.212588817
12.878678,39,5,5,4,-7,-16,-2,18,1.212588817
12.895267,-27,50,-5,-18,-33,22,-8,-73,1.212588817
12.895292,-22,-13,-11,-3,9,-39,-17,1,1.212588817
12.897502,14,-26,0,-24,-65,4,10,-8,1.212588817
12.897512,-5,84,13,26,80,97,46,10,1.212588817
12.918376,-7,-84,-17,-20,-76,-89,-41,30,1.212588817
12.918388,-27,-21,-8,21,36,-12,3,59,1.212588817
12.918887,28,-84,-10,-9,60,63,42,-17,1.212588817
12.918901,-6,13,6,-14,-54,-15,5,-6,1.212588817
12.939849,57,65,5,1,3,26,-4,38,1.212588817
12.939866,-18,51,10,-4,14,-45,-26,-12,1.212588817
12.941346,-13,12,-2,-7,-35,-7,10,14,1.212588817
12.941368,-23,-44,-9,4,-22,-26,-16,-30,1.212588817
12.955032,49,1,4,7,24,22,7,-13,1.212588817
12.955049,16,-19,-1,-3,-16,-22,-20,-9,1.212588817
12.956368,-25,4,2,6,3,16,23,9,1.212588817
12.956452,-28,-41,-2,-12,-10,-71,27,-15,1.212588817
12.977232,69,117,24,20,-4,98,-66,-51,1.212588817
12.977249,-48,-72,-20,15,97,-32,28,-3,1.212588817
12.979182,18,24,-5,-9,-60,-45,19,12,1.212588817
12.979194,35,-3,1,-12,3,-23,-6,15,1.212588817
12.991891,-32,-4,-2,-1,16,11,12,-6,1.212588817
12.991915,4,29,13,-7,-22,7,-10,57,1.212588817
12.998556,-18,71,2,3,9,5,0,-38,1.212588817
12.998615,9,-77,-15,-9,-9,26,-14,17,1.212588817
13.015360,-2,19,4,6,20,9,21,-23,1.212588817
13.015395,0,43,4,-3,-38,15,-16,-20,1.212588817
13.016524,-16,8,-7,-5,-13,-38,5,-14,1.212588817
13.016618,-45,30,-1,-14,13,38,0,2,1.212588817
13.037568,-6,-93,-5,-1,-20,-12,5,17,1.212588817
13.037592,51,-17,-4,-12,-13,-23,27,-3,1.212588817
13.039780,-40,1,-4,-3,61,10,-67,-41,1.212588817
13.039791,28,17,5,28,30,15,42,-67,1.212588817
13.051647,-15,40,-6,-1,-28,-15,8,6,1.217893194
13.051665,6,46,6,-7,-16,13,-5,-76,1.217893194
13.058881,39,-67,7,7,29,2,6,21,1.217893194
13.058898,22,-44,-7,-5,0,17,-11,0,1.217893194
13.075078,-35,10,-8,-28,-12,-8,-18,-1,1.217893194
13.075089,18,-6,-3,-4,37,5,9,-4,1.217893194
13.076265,20,13,6,1,-42,34,23,25,1.217893194
13.076301,-77,-25,0,9,-35,9,-38,-42,1.217893194
13.097625,16,-32,-2,-10,-21,-55,-20,-6,1.217893194
13.097643,-45,-11,3,11,-11,12,-5,14,1.217893194
13.100424,-50,-25,-7,-8,-26,-16,-31,-3,1.217893194
13.100437,53,18,-6,-4,-26,-49,39,6,1.217893194
13.112015,5,-38,-9,24,96,56,-8,-2,1.217893194
13.112032,11,6,-7,-28,-11,37,-14,-14,1.217893194
13.118593,0,-29,-5,6,-68,-67,1,9,1.217893194
13.118610,28,-8,-2,-4,34,31,11,-38,1.217893194
13.135011,-87,22,1,-11,26,-45,6,-11,1.217893194
13.135034,55,-48,-2,6,3,7,7,32,1.217893194
13.136794,-3,30,10,4,-11,29,7,17,1.217893194
13.136806,-23,-20,-7,-20,-23,-21,-20,-33,1.217893194
13.157556,52,91,13,28,8,23,26,-5,1.217893194
13.157581,-57,-37,-2,9,-25,-38,-44,20,1.217893194
13.160323,28,3,-6,-3,-9,29,8,-8,1.217893194
13.160334,32,-17,-3,-1,-9,-18,1,37,1.217893194
13.171266,-53,62,7,0,14,20,3,3,1.217893194
13.171296,-3,-28,5,9,-21,13,-42,-2,1.217893194
13.182231,22,-2,-1,-6,-42,-16,27,10,1.217893194
13.182247,-44,72,8,20,33,31,-12,79,1.217893194
13.195281,-4,-79,-5,-6,25,31,14,23,1.217893194
13.195311,0,3,-4,-11,-18,-63,3,-4,1.217893194
13.197503,-7,-61,-6,-5,-4,34,-33,-49,1.217893194
13.197517,30,40,5,9,83,34,47,20,1.217893194
13.217797,-5,-7,-4,-19,-31,6,-25,-7,1.217893194
13.217814,27,81,2,13,56,-2,11,27,1.217893194
13.231840,-2,-4,1,-4,-32,2,2,-37,1.217893194
13.231865,92,-33,4,9,-20,0,-33,49,1.217893194
13.232395,-56,-46,-10,-5,1,-12,17,5,1.217893194
13.232414,65,103,8,1,-1,20,8,-27,1.217893194
13.241486,-57,-45,-12,-5,36,1,9,23,1.217893194
13.241504,20,9,2,-13,-103,-46,5,-1,1.217893194
13.255038,10,7,2,17,86,14,12,19,1.217893194
13.255063,-31,-12,5,-11,-51,-46,-44,-30,1.217893194
13.257173,60,88,11,24,69,-10,15,8,1.217893194
13.257184,-37,-97,-10,-22,-74,56,17,9,1.217893194
13.277261,14,31,4,17,36,49,-19,7,1.217893194
13.277302,-56,-43,-7,2,-34,-67,21,23,1.217893194
13.278831,30,57,9,1,-7,52,3,2,1.217893194
13.278869,91,-6,-7,2,10,-7,-38,11,1.217893194
13.291001,57,37,-8,-20,-41,-31,14,-27,1.217893194
13.291077,-15,-5,-4,-3,10,31,2,1,1.217893194
13.300915,-56,4,0,-3,34,-2,-5,9,1.210398563
13.300928,5,53,6,5,-17,-31,7,2,1.210398563
13.322530,-23,-11,1,-6,-31,-12,-9,-72,1.210398563
13.322541,27,-13,4,6,17,-10,0,8,1.210398563
13.323844,-7,31,-4,-36,-55,-11,-14,-24,1.210398563
13.323860,-100,-28,-5,17,57,15,26,-13,1.210398563
13.338032,-38,-37,-16,-7,-118,-35,-26,12,1.210398563
13.338046,5,-15,-3,-14,81,74,9,52,1.210398563
13.338968,19,49,3,15,49,-5,9,0,1.210398563
13.338987,10,4,1,-9,-11,-15,-46,-1,1.210398563
13.351030,-12,-17,-7,-3,-10,1,29,1,1.210398563
13.351055,-6,25,-2,3,-23,-27,-14,-37,1.210398563
13.361436,34,-30,-3,2,16,110,17,8,1.210398563
13.361446,-12,-10,0,-18,-69,-102,-29,-4,1.210398563
13.375084,-47,19,4,-1,15,-82,12,23,1.210398563
13.375108,20,-77,0,7,-23,78,16,-16,1.210398563
13.377201,-25,-29,-2,7,49,-12,-27,-5,1.210398563
13.377212,31,50,2,-4,-47,-46,-3,-4,1.210398563
13.398029,23,61,8,2,25,-3,-6,4,1.210398563
13.398073,-24,1,-6,-8,-23,-13,3,-13,1.210398563
13.400607,-7,-19,2,10,-19,-28,4,14,1.210398563
13.400620,-9,7,2,-4,2,28,7,9,1.210398563
13.411364,-8,-21,-2,-2,-6,11,-3,-4,1.210398563
13.411388,26,56,-1,6,31,-1,5,-5,1.210398563
13.421236,-1,-13,-6,2,-1,-6,8,-2,1.210398563
13.421255,21,1,10,6,19,20,-3,6,1.210398563
13.434812,-62,-99,-11,-3,-41,59,23,-18,1.210398563
13.434830,-5,-7,-10,1,87,-74,-38,-40,1.210398563
13.436369,64,75,2,-19,-9,61,43,31,1.210398563
13.436382,-79,-55,-13,-19,-66,-7,17,24,1.210398563
13.457222,27,18,9,32,14,39,2,-12,1.210398563
13.458548,2,29,9,-1,17,-16,28,13,1.210398563
13.458946,-38,-20,-9,-3,3,-39,-25,-21,1.210398563
13.459096,18,32,5,12,43,22,5,-3,1.210398563
13.471126,14,-3,1,-10,-23,4,3,6,1.210398563
13.471147,-1,31,-5,-10,-35,5,-4,-5,1.210398563
13.480345,1,37,14,-4,-82,-11,11,13,1.210398563
13.480353,-27,-29,-28,-13,115,8,-30,-28,1.210398563
13.495622,51,20,-9,-15,-15,-87,-6,72,1.210398563
13.495633,-21,-13,2,3,21,28,-53,-36,1.210398563
13.496241,33,36,14,18,-8,-8,30,21,1.210398563
13.496249,1,-16,1,5,-29,13,7,-5,1.210398563
13.517530,8,40,0,0,28,23,2,-8,1.210398563
13.517555,-34,-13,1,6,-20,11,6,5,1.210398563
13.519767,-48,-27,-13,-27,-1,3,14,-31,1.210398563
13.519813,34,31,9,26,-14,-55,6,29,1.210398563
13.531423,16,85,10,-2,75,8,-33,-13,1.210398563
13.531456,21,-69,-7,-2,-41,2,-1,22,1.210398563
13.541904,-69,-108,-18,-9,-59,-12,-4,-30,1.210398563
13.541912,40,34,-1,9,93,34,-17,-44,1.210398563
13.557135,-11,4,7,3,-8,17,17,-6,1.208618422
13.557145,43,-5,-5,-3,-42,-2,11,9,1.208618422
13.557149,-73,-4,-4,10,28,-24,-13,-5,1.208618422
13.557151,38,4,7,-10,-46,25,-14,22,1.208618422
13.578056,-58,-20,-8,-9,12,-40,-10,-7,1.208618422
13.578090,42,51,14,4,2,83,11,-37,1.208618422
13.578949,54,40,1,-11,64,-16,-20,27,1.208618422
13.578960,-32,-11,-9,14,-36,10,37,-5,1.208618422
13.599984,48,1,-6,-21,-41,-26,-11,-4,1.208618422
13.600004,-45,90,6,-4,-11,26,40,14,1.208618422
13.601812,8,-67,-10,-16,-35,-36,-13,-7,1.208618422
13.601824,3,1,1,-6,3,1,-12,9,1.208618422
13.615353,15,-41,-4,12,19,25,11,8,1.208618422
13.615379,2,5,-1,-10,-16,-27,-6,21,1.208618422
13.617531,21,69,8,5,55,15,-5,0,1.208618422
13.617546,-63,-72,-5,2,-81,16,-14,-93,1.208618422
13.637262,41,-41,0,-11,-33,-65,-16,12,1.208618422
13.637275,37,7,-1,-3,82,-35,-7,15,1.208618422
13.638868,-50,-12,-11,20,20,-43,13,-4,1.208618422
13.638913,-21,27,-17,-22,91,26,39,-31,1.208618422
13.660139,9,12,-1,-5,-58,-59,16,-8,1.208618422
13.660164,31,-51,2,4,-7,-7,-11,3,1.208618422
13.661750,12,23,0,3,8,12,-12,12,1.208618422
13.661762,23,67,8,-11,-23,-23,-1,27,1.208618422
13.674729,-15,-3,0,-5,13,49,9,0,1.208618422
13.674747,27,22,-1,24,9,0,-3,61,1.208618422
13.676616,-5,-25,-4,-4,-10,-1,0,-43,1.208618422
13.676634,-32,-4,2,-4,35,-33,-24,-14,1.208618422
13.699423,-11,-36,-4,15,-16,72,30,-36,1.208618422
13.699440,7,40,8,-6,-15,5,-63,-21,1.208618422
13.699443,-65,-40,12,35,31,-3,-20,-24,1.208618422
13.699446,-73,-22,-32,-26,-55,-64,37,-3,1.208618422
13.728090,71,86,13,-13,17,-46,-64,41,1.208618422
13.728145,-12,-65,-20,-9,-19,-22,10,-33,1.208618422
13.730582,51,95,18,2,32,21,-6,13,1.208618422
13.730598,16,-6,10,16,-20,14,-9,1,1.208618422
13.734300,-6,-72,-10,2,-8,17,8,2,1.208618422
13.734318,-6,14,9,12,-53,16,30,-16,1.208618422
13.748592,26,28,1,-9,-32,-8,-6,45,1.208618422
13.748618,10,-60,-4,-10,2,0,-11,8,1.208618422
13.757732,-114,33,13,20,-25,-11,6,-60,1.208618422
13.757756,75,3,-17,-21,22,1,-15,36,1.208618422
13.759857,-4,-20,-10,4,-9,12,43,-14,1.208618422
13.759877,38,47,9,7,-53,46,-21,-54,1.208618422
13.780022,-48,-13,-7,-14,29,-3,44,-7,1.208618422
13.780048,-52,-14,-3,16,55,8,-22,-34,1.208618422
13.781673,-25,-34,-13,-12,1,-12,-42,-13,1.208618422
13.781707,56,38,11,-1,22,83,10,42,1.208618422
13.794330,16,31,1,12,-6,9,-2,-11,1.208618422
13.794356,-58,37,0,-10,-49,-20,5,-65,1.208618422
13.801103,12,-73,-4,-14,-44,5,-9,17,1.208618422
13.801122,11,90,9,13,58,-12,-6,25,1.208618422
13.817535,-61,-100,-11,-1,5,61,24,-12,1.212174204
13.817554,50,81,-2,-25,8,-46,-18,-31,1.212174204
13.819637,-12,-13,2,13,22,-6,-9,25,1.212174204
13.819649,-5,-54,-20,-30,-26,13,-17,-12,1.212174204
13.839913,57,67,8,16,28,-23,-22,14,1.212174204
13.839924,-21,-65,-5,-9,32,-33,30,64,1.212174204
13.841230,64,39,-1,0,-27,-32,-9,19,1.212174204
13.841240,-30,-52,4,9,-53,49,31,42,1.212174204
13.855055,51,21,-6,-27,-34,-68,-91,-11,1.212174204
13.855069,-22,10,1,18,-15,21,26,-29,1.212174204
13.861224,-5,-18,0,-3,4,-2,-3,-8,1.212174204
13.861244,-22,67,3,-13,-31,-56,10,1,1.212174204
13.877676,24,-61,-1,8,59,25,1,18,1.212174204
13.877708,-23,-36,3,2,-7,14,20,-2,1.212174204
13.880048,18,65,8,3,-10,-11,11,-5,1.212174204
13.880059,-61,36,5,1,77,0,-32,-92,1.212174204
13.901660,52,26,1,-16,16,57,22,80,1.212174204
13.901680,-53,-52,4,14,45,-23,-16,-21,1.212174204
13.901683,58,19,-2,-16,-76,49,11,4,1.212174204
13.901685,-41,-42,1,16,-30,9,-8,36,1.212174204
13.914438,-13,17,-6,9,-17,-3,1,-41,1.212174204
13.914456,-49,3,-12,-11,41,24,28,-38,1.212174204
13.921489,27,-17,5,31,-37,43,-22,3,1.212174204
13.921513,42,4,7,-14,20,-57,-5,-3,1.212174204
13.937541,-64,-75,-9,0,-4,12,0,-1,1.212174204
13.937558,19,33,6,3,-73,30,6,-5,1.212174204
13.941054,60,-24,-5,-4,28,5,-7,5,1.212174204
13.941065,-18,38,-3,3,-21,10,-29,2,1.212174204
13.960905,5,12,5,13,24,-1,30,51,1.212174204
13.960945,18,-1,-2,-1,-43,10,-8,1,1.212174204
13.963545,-24,-23,-1,-5,71,4,15,43,1.212174204
13.963554,58,19,5,-7,0,-5,18,30,1.212174204
13.974191,-8,34,3,5,-22,8,-4,-6,1.212174204
13.974208,-15,10,9,8,8,2,23,18,1.212174204
13.981342,18,10,-10,-9,-36,-14,-28,-21,1.212174204
13.981375,-57,-70,0,1,45,-70,13,-44,1.212174204
13.997898,-19,32,0,2,-43,19,19,2,1.212174204
13.997928,70,67,-4,0,24,33,2,40,1.212174204
14.000798,-69,-46,-6,-19,12,-3,13,-54,1.212174204
14.000810,59,-70,-1,19,1,1,-7,7,1.212174204
14.020020,-5,-18,-6,-14,10,-31,-21,-56,1.212174204
14.020038,34,20,9,14,23,-7,-6,34,1.212174204
14.022509,-38,26,-1,-23,-4,-12,9,-13,1.212174204
14.022555,57,81,-4,3,-41,34,-7,5,1.212174204
14.034347,-21,-30,2,20,25,24,61,29,1.212174204
14.034371,-12,-40,-17,-18,-1,-33,-27,-42,1.212174204
14.041294,-20,15,4,4,-16,-30,11,-49,1.212174204
14.043156,60,-6,1,12,26,63,-13,46,1.212174204
14.057715,-39,23,-2,-8,-9,-20,-38,-41,1.212174204
14.057746,-7,-11,3,-18,-50,4,9,-19,1.212174204
14.058876,3,-9,-6,8,11,-78,5,29,1.212174204
14.058893,-33,51,1,-4,-30,-15,-11,-89,1.212174204
14.080216,46,-30,-13,-4,32,11,-9,40,1.220299767
14.080247,18,29,1,-1,-82,-11,2,48,1.220299767
14.082799,-70,-75,-14,-16,77,22,-1,-34,1.220299767
14.082812,-12,34,7,4,-14,-32,-17,-6,1.220299767
14.093656,15,-58,3,18,62,22,-36,92,1.220299767
14.093680,-69,-89,-6,-7,25,-40,9,1,1.220299767
14.102843,72,31,-7,0,-28,16,11,19,1.220299767
14.102854,-56,40,5,-17,-24,10,12,18,1.220299767
14.117380,115,27,-2,-2,9,1,-7,-99,1.220299767
14.117396,-58,22,5,-3,-67,-11,-19,33,1.220299767
14.118743,8,-13,1,19,20,21,7,-8,1.220299767
14.118792,2,-20,-13,-21,-26,-10,-8,-3,1.220299767
14.140004,-72,21,-4,9,-4,-39,-6,-41,1.220299767
14.140039,54,0,-8,-3,96,49,38,16,1.220299767
14.142225,-30,82,12,8,13,15,-4,3,1.220299767
14.142234,14,21,3,6,18,55,1,29,1.220299767
14.153869,40,49,-3,-36,-10,-75,9,16,1.220299767
14.153893,1,-22,23,13,-56,2,-16,63,1.220299767
14.168522,-28,-24,-4,19,87,29,35,5,1.220299767
14.168539,47,-24,-1,3,10,-37,-46,86,1.220299767
14.179948,-2,12,3,-20,-24,17,20,-5,1.220299767
14.179958,8,-2,1,7,16,-69,-16,-38,1.220299767
14.179962,94,19,6,-8,15,81,-6,15,1.220299767
14.179964,-103,-47,-10,-4,-53,23,21,-89,1.220299767
14.200072,83,41,7,21,26,-57,5,26,1.220299767
14.200142,-18,-52,-12,3,-7,1,11,-44,1.220299767
14.202823,-8,-71,-1,-2,16,14,-56,19,1.220299767
14.202838,25,3,-7,-7,19,-40,-2,-28,1.220299767
14.213606,-53,-14,2,-12,-36,57,27,0,1.220299767
14.213653,31,10,-8,-9,9,-43,-72,-17,1.220299767
14.225205,34,109,5,-15,-70,-12,9,14,1.220299767
14.225214,-49,-124,-27,-16,-41,-63,20,0,1.220299767
14.237685,49,38,23,32,50,62,-23,89,1.220299767
14.237702,-21,-16,0,-1,7,42,22,5,1.220299767
14.239858,-37,0,-4,-4,6,-36,5,-43,1.220299767
14.239876,41,52,6,7,36,5,-27,82,1.220299767
14.259720,-15,-52,-7,-14,-44,30,21,-41,1.220299767
14.259735,1,-74,-13,-4,-17,14,4,-13,1.220299767
14.261344,17,47,8,2,-8,-15,8,4,1.220299767
14.261389,-5,-64,-3,-4,31,34,-4,-9,1.220299767
14.273854,-17,3,-8,-15,-47,-51,31,-22,1.220299767
14.273871,17,84,8,12,53,24,-7,-4,1.220299767
14.284235,-32,-39,-5,0,-5,0,16,-24,1.220299767
14.284248,20,-75,6,9,42,-7,-11,-1,1.220299767
14.297641,18,42,0,-7,-19,3,0,-42,1.220299767
14.297673,-14,-12,-8,-3,44,-3,-45,15,1.220299767
14.300392,48,6,-5,2,-20,7,18,2,1.220299767
14.300406,-38,57,8,0,-75,5,-2,-8,1.220299767
14.319941,-24,-107,-23,-20,32,-43,-27,-14,1.220299767
14.319954,-48,32,4,24,-94,10,40,-38,1.220299767
14.321259,13,46,9,19,62,23,-8,6,1.212913297
14.321272,63,-53,2,24,10,59,6,30,1.212913297
14.335422,-49,28,10,0,-6,-58,-7,35,1.212913297
14.335434,4,0,-1,1,54,32,-2,-20,1.212913297
14.343806,18,6,-3,-8,-50,-37,-16,12,1.212913297
14.343823,-32,52,3,-4,0,-8,19,-32,1.212913297
14.357262,-6,-8,-5,6,-10,28,-7,-7,1.212913297
14.357279,21,76,-1,-16,-37,-15,8,3,1.212913297
14.358797,7,-47,-2,0,29,-14,-5,-2,1.212913297
14.358816,1,16,-4,-6,-15,-6,42,14,1.212913297
14.382142,-46,-87,-24,-19,-6,6,-66,-30,1.212913297
14.382164,-2,79,14,11,67,66,-12,20,1.212913297
14.382170,-7,6,0,-9,-66,-93,11,-22,1.212913297
14.382176,-32,4,6,0,61,15,-14,-10,1.212913297
14.394042,30,45,4,7,-21,49,46,22,1.212913297
14.394084,-11,-33,-8,-14,-31,9,6,-6,1.212913297
14.403787,14,16,4,-3,-8,8,-17,0,1.212913297
14.403799,-63,-46,2,-4,15,-38,17,2,1.212913297
14.418749,-57,-13,-5,-7,-54,-7,-26,47,1.212913297
14.418767,38,-41,-6,-22,48,52,54,73,1.212913297
14.420620,-11,57,11,7,-19,21,71,18,1.212913297
14.420632,30,-5,0,19,68,-52,-16,-15,1.212913297
14.440005,34,28,4,10,-38,25,15,-14,1.212913297
14.440022,-9,-10,-1,-10,-7,-29,-12,-26,1.212913297
14.442825,-25,1,-4,-5,-11,13,-18,66,1.212913297
14.442837,34,58,1,-2,-16,16,23,-28,1.212913297
14.453604,-10,50,3,-4,-19,22,-5,-18,1.212913297
14.453621,48,-85,-7,-3,2,10,-1,3,1.212913297
14.464122,-21,44,1,3,-26,-24,9,-52,1.212913297
14.464130,21,14,-5,6,34,3,-17,-9,1.212913297
14.477273,-6,53,-3,-5,8,-9,-6,12,1.212913297
14.477292,-27,-31,-1,4,5,-30,-13,-22,1.212913297
14.478847,14,-5,-3,-7,-35,14,-22,-12,1.212913297
14.478862,16,3,0,1,-7,8,-6,17,1.212913297
14.507542,11,11,6,14,46,29,1,-10,1.212913297
14.507559,2,60,11,-13,-67,-61,-7,-26,1.212913297
14.513551,-102,-86,-22,-34,-49,-30,16,36,1.212913297
14.513570,-83,-49,-3,27,74,11,-83,-32,1.212913297
14.522204,51,-122,-7,-11,-61,-54,51,37,1.212913297
14.522218,-20,28,3,11,-29,23,35,-23,1.212913297
14.523707,51,-20,3,19,54,-46,-53,-2,1.212913297
14.523756,-2,64,0,-23,-29,-11,3,6,1.212913297
14.538650,-31,10,-4,-6,44,5,-23,-21,1.212913297
14.538662,-1,-14,-7,1,-17,3,-9,6,1.212913297
14.538820,-16,-6,1,-5,2,11,-12,-35,1.212913297
14.538828,48,88,10,1,-15,10,22,14,1.212913297
14.559933,-59,-24,5,22,-2,50,-6,-48,1.212913297
14.559949,12,-22,-18,-15,48,-11,36,10,1.212913297
14.562694,12,-35,-8,1,-38,34,-32,0,1.212913297
14.562705,25,26,-2,4,67,-15,37,-60,1.212913297
14.582488,35,28,10,13,2,-1,-50,25,1.206811241
14.582513,-25,-1,2,8,-7,-6,-6,-4,1.206811241
14.584523,15,-39,-7,-11,-20,-15,3,-6,1.206811241
14.584534,5,10,0,2,-14,24,24,-14,1.206811241
14.596824,18,17,15,13,66,-25,-9,3,1.206811241
14.596855,-6,-2,-6,9,-55,-59,-20,-42,1.206811241
14.607123,53,51,15,28,116,111,13,4,1.206811241
14.607131,-84,-29,3,2,-128,-54,32,-29,1.206811241
14.619908,39,-94,-6,-5,-16,5,9,18,1.206811241
14.619931,-41,61,-10,-16,35,52,-24,-11,1.206811241
14.621380,-41,-59,-10,-9,12,-4,-29,-11,1.206811241
14.623405,-11,-14,-2,-6,-12,14,2,24,1.206811241
14.642279,-6,45,2,-10,14,-5,18,-7,1.206811241
14.642302,21,-6,4,0,-38,15,-5,19,1.206811241
14.645295,23,35,7,0,13,-8,12,1,1.206811241
14.645315,-59,-2,-1,0,23,15,-10,-3,1.206811241
14.656898,48,-9,-5,-14,-38,-27,18,31,1.206811241
14.656922,1,26,6,-9,1,6,-36,14,1.206811241
14.659235,-84,89,4,17,33,-13,-29,-68,1.206811241
14.659244,53,-79,-9,-20,-32,-28,33,43,1.206811241
14.679066,5,8,1,19,-29,36,-2,-13,1.206811241
14.679077,-38,-1,2,-3,23,-11,20,4,1.206811241
14.679720,-7,-54,-12,-21,3,-25,-21,0,1.206811241
14.679729,12,-2,-6,0,-103,37,5,-3,1.206811241
14.701655,-34,47,-10,-27,104,4,-5,-96,1.206811241
14.703181,32,-23,7,10,-32,-61,0,16,1.206811241
14.703197,-1,15,0,1,-9,36,22,52,1.206811241
14.703199,68,-31,2,2,-7,-13,-36,26,1.206811241
14.716226,68,33,-3,-20,-44,-31,21,-5,1.206811241
14.716250,-56,48,-1,15,23,-2,-54,-1,1.206811241
14.724225,-42,-37,-13,-10,-39,13,55,-9,1.206811241
14.724249,12,23,-7,-13,-1,8,-44,-77,1.206811241
14.747826,-13,62,4,2,-60,-32,-3,30,1.206811241
14.747843,11,-60,-3,12,53,25,-13,-43,1.206811241
14.750696,7,-33,5,5,-26,-15,17,1,1.206811241
14.750709,53,42,-8,5,74,3,-8,18,1.206811241
14.761954,-43,-4,8,3,-24,42,18,-15,1.206811241
14.761977,40,48,10,3,-28,-73,21,28,1.206811241
14.764100,13,4,-9,-14,60,-7,-49,-20,1.206811241
14.764109,14,-101,-8,5,-19,15,20,43,1.206811241
14.777145,-62,17,-4,-8,2,12,0,46,1.206811241
14.777181,66,-14,-8,28,15,-13,45,7,1.206811241
14.779547,13,-15,-1,3,-22,28,-8,-35,1.206811241
14.779555,-52,59,4,-12,-43,58,-9,-53,1.206811241
14.800727,-9,-16,-9,-3,-8,20,42,28,1.206811241
14.800739,-7,9,-4,-14,3,-26,-56,-6,1.206811241
14.800741,-64,-12,0,3,-70,-20,16,16,1.206811241
14.800744,12,7,-2,5,34,9,0,-15,1.206811241
14.822572,14,-30,-5,-4,-27,-14,-18,-19,1.206811241
14.822597,-2,32,-1,-10,15,14,48,75,1.206811241
14.824795,10,27,0,-19,40,34,-9,-3,1.206811241
14.824811,39,51,8,2,-13,-30,-4,38,1.206811241
14.836018,-66,-81,-11,-8,5,0,-16,-21,1.194386288
14.836081,-22,-10,3,31,56,49,20,-13,1.194386288
14.844562,91,30,2,-2,-30,-56,-16,8,1.194386288
14.844593,37,5,-1,-2,7,-93,26,84,1.194386288
14.859543,17,51,6,-1,30,19,-21,31,1.194386288
14.859573,-93,-68,-8,-9,-34,-27,-8,-40,1.194386288
14.862328,-29,-22,-6,-1,-12,-18,71,-30,1.194386288
14.862339,-29,79,20,2,-12,118,2,-7,1.194386288
14.881732,59,-81,-19,7,19,-104,-53,-56,1.194386288
14.881758,0,2,-3,-7,50,-11,-9,-10,1.194386288
14.882518,23,73,13,18,7,-17,-6,13,1.194386288
14.882537,11,18,-5,-16,18,-8,-27,-2,1.194386288
14.896125,-31,37,1,5,12,10,9,-5,1.194386288
14.896149,25,68,7,11,-20,54,2,-27,1.194386288
14.904349,68,-27,-4,6,0,27,10,14,1.194386288
14.904372,3,20,7,7,63,-11,-28,7,1.194386288
14.919189,-24,27,-1,12,12,-10,52,2,1.194386288
14.919206,37,-39,0,-17,-27,5,-6,-27,1.194386288
14.921328,54,79,9,3,-7,31,3,12,1.194386288
14.921340,-63,12,1,0,-52,-26,-11,1,1.194386288
14.941558,-87,-82,-11,-7,13,6,-29,-47,1.194386288
14.941570,55,1,-7,7,21,57,-3,20,1.194386288
14.942240,-9,69,5,-3,8,1,0,52,1.194386288
14.942274,4,-118,-7,-10,-15,-61,-36,-3,1.194386288
14.955876,-3,-31,4,11,11,41,13,-45,1.194386288
14.955893,-4,3,6,-19,-99,-19,25,55,1.194386288
14.964375,-13,19,4,9,108,49,-14,-29,1.194386288
14.964393,-36,-15,-13,10,-77,-3,12,-3,1.194386288
14.979212,15,36,6,-2,15,-5,5,11,1.194386288
14.979237,-49,21,-2,2,-37,-2,2,-10,1.194386288
14.981729,-3,-9,-6,-9,-67,-13,-26,27,1.194386288
14.981743,-4,22,-1,8,42,-67,26,2,1.194386288
15.001670,-6,-24,7,14,55,41,-16,-51,1.194386288
15.001691,44,-9,3,5,-5,-64,0,18,1.194386288
15.003254,56,8,2,-12,14,-19,-2,-17,1.194386288
15.003266,1,69,-6,-10,24,87,11,59,1.194386288
15.016432,-14,42,0,2,-87,-61,-9,11,1.194386288
15.016451,27,-2,-6,-27,49,34,14,-27,1.194386288
15.024373,-29,-28,-6,5,-48,14,0,16,1.194386288
15.024441,27,28,8,16,36,11,17,-15,1.194386288
15.039945,50,12,-3,-8,-24,3,21,33,1.194386288
15.039969,-14,-2,-2,-9,-49,17,-33,-8,1.194386288
15.040101,-45,-53,-6,5,52,-6,6,-39,1.194386288
15.040116,-1,-16,6,-5,-23,9,6,-1,1.194386288
15.062197,20,23,11,-1,3,-4,-14,35,1.194386288
15.062228,-40,-24,-11,-10,-1,20,7,-31,1.194386288
15.064627,-11,27,5,-12,-38,-55,-7,-5,1.194386288
15.064641,-10,-117,-13,7,65,86,9,-22,1.194386288
15.076084,-55,-32,-2,-12,26,-3,16,-10,1.194386288
15.076100,61,-50,-13,-17,-29,-16,-20,65,1.194386288
15.084292,16,13,0,-6,-11,-47,-6,-26,1.194386288
15.084312,38,57,4,1,-4,22,-3,76,1.194386288
15.099225,10,-8,7,17,80,18,-9,54,1.189780453
15.099258,-82,44,-1,-12,-69,63,11,-27,1.189780453
15.099928,-25,-105,-6,11,76,-9,-3,-13,1.189780453
15.099942,-4,-12,-4,-12,-37,-45,0,-18,1.189780453
15.121947,35,35,-7,-12,-73,25,25,-9,1.189780453
15.121968,28,75,5,35,72,-14,14,-10,1.189780453
15.123993,19,-23,1,-5,-35,14,-19,34,1.189780453
15.124003,-33,-1,-3,-11,42,-16,-13,-59,1.189780453
15.136209,25,9,-3,-14,-38,-11,-30,62,1.189780453
15.138791,14,27,0,-16,-7,-35,-8,-24,1.189780453
15.144427,-41,-123,-15,0,33,2,-19,-18,1.189780453
15.144462,36,17,-1,-1,12,4,50,1,1.189780453
15.160277,-61,22,-7,-12,6,-54,-6,-28,1.189780453
15.160295,-76,-23,1,0,17,62,-49,-15,1.189780453
15.160300,56,58,12,-2,-46,-18,9,39,1.189780453
15.160305,-39,-15,-4,5,-31,-4,-11,-15,1.189780453
15.182036,37,-16,-9,-8,-24,-22,6,-71,1.189780453
15.182068,-35,8,17,17,115,13,-6,32,1.189780453
15.184560,-19,35,-1,19,10,44,9,-24,1.189780453
15.184572,-47,9,0,1,-41,16,-6,-33,1.189780453
15.196388,9,-20,-8,-20,-77,8,31,16,1.189780453
15.196420,22,-21,-2,13,86,11,10,-12,1.189780453
15.204553,-15,62,-3,-4,-17,-4,15,5,1.189780453
15.204588,3,-60,-6,-13,-17,-22,-50,-11,1.189780453
15.219150,-17,32,5,18,20,48,14,-21,1.189780453
15.219168,71,61,1,-17,-46,-104,-26,-19,1.189780453
15.221387,-33,-29,7,27,71,97,42,67,1.189780453
15.221404,-81,-32,-5,-6,-17,-35,20,66,1.189780453
15.241957,48,-42,4,-6,-21,18,-20,-19,1.189780453
15.241981,-12,-1,-7,5,43,43,21,-29,1.189780453
15.244167,-16,53,8,2,-22,-9,0,-42,1.189780453
15.244177,55,-44,-11,-8,15,-6,-3,-17,1.189780453
15.256127,32,74,10,1,16,-1,-14,93,1.189780453
15.256159,-22,-29,-4,-7,-35,18,9,4,1.189780453
15.264438,5,-6,-8,-21,-100,-19,5,-26,1.189780453
15.264468,25,-4,-4,36,110,7,-6,-11,1.189780453
15.279406,-44,-12,-6,-32,-79,-6,-28,-59,1.189780453
15.279430,5,11,5,8,16,-20,25,-9,1.189780453
15.281905,0,-34,-8,-5,-65,73,11,20,1.189780453
15.281927,38,51,2,-15,-40,-39,-16,-17,1.189780453
15.301652,-57,49,3,3,2,-20,22,-17,1.189780453
15.301687,-29,-66,-10,-2,-82,24,-3,91,1.189780453
15.302372,17,21,7,-12,36,-5,32,8,1.189780453
15.302426,8,-8,1,9,-48,-37,-48,-6,1.189780453
15.316083,-5,-61,-18,10,92,61,-10,-43,1.189780453
15.316105,-10,-30,7,-13,-65,-99,-31,8,1.189780453
15.324341,11,-2,-3,-13,-56,-49,12,19,1.189780453
15.324365,63,76,2,8,26,99,16,-29,1.189780453
15.339621,36,25,3,-1,27,-44,-2,70,1.189780453
15.339652,-20,-37,3,29,52,19,11,-35,1.189780453
15.341774,10,1,-12,-2,1,-15,-18,7,1.189780453
15.341785,-14,18,8,-3,-23,-8,21,-3,1.189780453
15.361727,12,-77,-2,9,-21,2,-2,-47,1.200402724
15.361750,102,83,12,-13,-49,-35,-21,-15,1.200402724
15.364092,-114,-105,-14,26,19,11,22,-4,1.200402724
15.364100,4,23,-3,-11,-4,-24,-13,-10,1.200402724
15.378375,14,24,2,9,30,24,-2,26,1.200402724
15.378383,17,33,-5,-40,-75,-7,68,3,1.200402724
15.384231,2,6,8,15,34,3,-82,-74,1.200402724
15.384252,7,22,1,-7,49,-70,9,-5,1.200402724
15.399200,55,33,6,-4,-51,29,13,-30,1.200402724
15.399229,-79,-96,-20,16,-14,28,-42,-36,1.200402724
15.401419,8,42,-1,-25,18,-19,-10,-9,1.200402724
15.401434,-19,43,-4,-2,7,61,44,-7,1.200402724
15.421865,21,37,13,16,24,-30,-16,22,1.200402724
15.421889,15,8,2,-7,5,31,8,-28,1.200402724
15.424277,7,-8,-4,-8,-16,-27,-26,-39,1.200402724
15.424288,50,-3,-1,3,2,12,8,22,1.200402724
15.445206,-90,-42,-4,6,-63,24,-6,27,1.200402724
15.445233,-13,-29,-2,2,23,-32,16,-26,1.200402724
15.445702,50,80,6,11,100,33,-6,22,1.200402724
15.445718,-12,-50,1,-26,-109,-7,35,-37,1.200402724
15.459613,-3,45,-1,4,2,-7,-62,-45,1.200402724
15.459728,-20,-113,-26,15,33,43,-13,-58,1.200402724
15.460194,-64,50,4,-5,-27,-34,-7,-60,1.200402724
15.460219,21,50,-4,-6,3,83,34,3,1.200402724
15.482049,15,39,12,-8,15,-112,-23,-1,1.200402724
15.482082,14,-36,-11,-10,-4,-2,2,57,1.200402724
15.484425,39,-9,-3,5,38,29,0,-17,1.200402724
15.484440,-17,-25,4,5,-10,-21,-24,14,1.200402724
15.505035,36,40,-1,1,-29,67,15,-6,1.200402724
15.505092,30,40,1,-6,-32,-59,22,27,1.200402724
15.505565,34,-29,-10,5,35,-18,-43,-13,1.200402724
15.505581,-19,9,0,12,23,-20,11,32,1.200402724
15.519078,10,27,-4,-3,-3,-13,6,1,1.200402724
15.519091,-18,-12,-4,-14,-107,25,9,-15,1.200402724
15.519700,-23,-82,-6,-6,48,-77,49,37,1.200402724
15.519740,-57,2,-3,-10,-32,-30,-32,-4,1.200402724
15.541730,-40,-75,-16,11,18,28,5,-39,1.200402724
15.541755,41,95,6,-17,46,25,7,49,1.200402724
15.544295,42,14,9,14,-38,51,14,-8,1.200402724
15.544306,-94,-123,-15,-12,-27,13,-29,-16,1.200402724
15.566362,104,-48,-4,-2,-54,13,40,90,1.200402724
15.566377,-61,6,12,7,113,-19,-57,-21,1.200402724
15.566380,45,59,3,0,-72,-7,-3,-23,1.200402724
15.566382,47,24,10,-3,10,-25,3,20,1.200402724
15.581152,-55,-5,-11,0,3,34,-44,-4,1.200402724
15.581171,-21,29,9,11,43,47,4,-29,1.200402724
15.581176,-88,-69,-4,-7,-26,-27,15,24,1.200402724
15.581181,-1,21,-3,1,-23,-37,-40,4,1.200402724
15.601664,-1,-21,-3,-7,56,-9,-8,35,1.219164082
15.601683,16,2,3,-2,-32,10,9,6,1.219164082
15.602899,-20,-2,-3,4,14,-5,-3,-3,1.219164082
15.602910,40,64,5,-8,-39,10,-6,43,1.219164082
15.626800,-14,-69,-4,-2,22,-1,28,-19,1.219164082
15.626810,-49,19,-1,5,2,28,1,-1,1.219164082
15.626813,33,16,-4,-35,-128,6,-10,-11,1.219164082
15.626815,63,53,6,9,127,29,30,-22,1.219164082
15.642359,23,-9,-4,0,-4,41,40,-33,1.219164082
15.642371,-45,-72,-10,10,75,-61,-54,-13,1.219164082
15.642374,-22,8,-3,-23,-52,62,39,-20,1.219164082
15.642376,-19,51,5,-2,32,-30,-18,1,1.219164082
15.661825,5,45,-4,-24,-68,27,10,6,1.219164082
15.661849,75,-19,11,13,54,8,4,71,1.219164082
15.662757,-28,-23,-4,-5,20,-26,-12,-40,1.219164082
15.662773,-17,-64,-11,5,-11,-18,-43,-8,1.219164082
15.684868,9,38,3,-12,-36,-21,8,22,1.219164082
15.684886,55,29,4,15,33,12,13,-25,1.219164082
15.686692,-66,-13,1,7,36,-23,-53,58,1.219164082
15.686703,38,7,5,9,-34,40,54,44,1.219164082
15.699256,5,54,11,12,41,10,-27,-5,1.219164082
15.699284,58,-48,-14,-18,-101,-26,-2,-15,1.219164082
15.701449,15,39,10,-14,90,85,65,24,1.219164082
15.701460,-44,-94,-11,3,-36,-71,-53,-56,1.219164082
15.721543,-9,26,1,10,107,-2,0,-1,1.219164082
15.721564,13,-29,-2,-21,-99,6,7,25,1.219164082
15.722309,64,17,0,27,90,-37,6,75,1.219164082
15.723297,-39,-6,2,-13,-35,62,26,-15,1.219164082
15.744440,64,23,5,0,-89,9,-33,2,1.219164082
15.744471,-75,-61,-13,-1,126,44,45,-27,1.219164082
15.751659,62,30,-1,-2,-83,-45,-41,20,1.219164082
15.751676,-25,6,-4,4,65,19,-5,-3,1.219164082
15.759307,-55,8,1,23,19,-30,16,4,1.219164082
15.759330,26,72,3,-13,-64,48,-16,11,1.219164082
15.761131,-13,-62,-11,-19,-28,-74,-11,-7,1.219164082
15.761147,51,-59,5,0,-12,-9,2,11,1.219164082
15.781574,-61,-87,-9,-16,33,42,24,-37,1.219164082
15.781597,3,33,1,-4,7,24,-40,-11,1.219164082
15.782438,0,43,8,6,38,-51,31,-15,1.219164082
15.782460,7,12,1,0,1,-7,26,-11,1.219164082
15.805361,3,13,3,-10,-25,-22,-25,-11,1.219164082
15.805385,28,-11,-2,-9,-83,-58,-13,-18,1.219164082
15.808069,-87,-8,-12,-9,66,17,-25,-10,1.219164082
15.808082,-11,13,-2,33,-86,-19,37,-6,1.219164082
15.819299,87,46,-6,-11,54,-28,7,12,1.219164082
15.819316,-34,-11,0,4,-11,91,28,28,1.219164082
15.821561,31,30,5,-1,-77,-38,-8,27,1.219164082
15.821572,-81,-9,-18,-26,15,-7,-1,-9,1.219164082
15.843129,37,54,9,7,22,10,11,-74,1.219164082
15.843146,7,-11,3,-1,-22,-43,-55,41,1.219164082
15.843151,-25,-14,-5,13,-1,30,29,-15,1.219164082
15.843157,22,-33,-1,-15,9,21,3,10,1.219164082
15.865358,8,42,6,9,-16,-21,-6,12,1.233116801
15.865391,-38,66,-6,-16,26,-6,20,-22,1.233116801
15.867464,-33,-73,-4,14,-52,20,-5,35,1.233116801
15.867479,54,57,8,9,44,9,-18,-10,1.233116801
15.879554,-4,-37,-8,43,56,-7,-14,25,1.233116801
15.879580,-60,-12,7,9,-68,-63,4,-29,1.233116801
15.881731,79,2,8,10,57,87,-16,-9,1.233116801
15.881752,21,-24,-3,-13,-15,54,5,15,1.233116801
15.901660,-2,-1,-3,-2,3,-39,-21,30,1.233116801
15.901678,-52,12,3,8,-13,-19,12,11,1.233116801
15.903764,35,23,7,-6,-48,15,-9,-25,1.233116801
15.903783,-23,-51,-12,-16,-15,5,13,-57,1.233116801
15.925004,2,12,8,2,18,-3,-2,81,1.233116801
15.925025,14,-2,-5,9,29,9,8,-31,1.233116801
15.925527,-15,-30,-3,-10,-21,-3,-6,-101,1.233116801
15.925542,19,28,11,8,18,-9,2,40,1.233116801
15.939112,-73,-33,-8,-18,-36,20,-8,-55,1.233116801
15.939123,109,75,1,-7,-13,-13,15,19,1.233116801
15.939820,-49,-79,-14,-20,61,8,1,2,1.233116801
15.939830,-53,0,-14,-33,-121,-42,-16,-25,1.233116801
15.962569,-16,5,2,32,82,-38,29,-22,1.233116801
15.962593,-47,-38,-9,2,-2,76,14,4,1.233116801
15.965150,21,33,-1,-3,-67,-7,-17,-11,1.233116801
15.965165,23,2,1,16,44,-5,-20,-2,1.233116801
15.984467,-16,38,-6,-33,-113,1,45,-7,1.233116801
15.984483,36,15,-2,-4,56,-13,4,-2,1.233116801
15.991795,-13,-36,2,14,2,-22,-7,61,1.233116801
15.991818,1,-1,1,5,15,19,1,37,1.233116801
16.001226,8,11,0,-10,-24,-3,-9,-35,1.233116801
16.001239,22,46,13,13,19,-33,-20,-24,1.233116801
16.001241,56,-15,-15,-23,-51,22,35,19,1.233116801
16.001244,27,51,13,17,-18,-27,-18,37,1.233116801
16.022098,82,14,3,-13,59,68,9,26,1.233116801
16.022130,-66,-58,-3,13,11,45,-12,-8,1.233116801
16.024452,16,-70,-4,1,18,-2,29,-8,1.233116801
16.024498,-2,39,4,14,24,14,0,-1,1.233116801
16.046814,-60,-40,-7,5,-21,-23,-21,-5,1.233116801
16.046824,43,77,3,-9,-26,-11,7,-33,1.233116801
16.046827,-61,0,3,10,-22,12,-23,-16,1.233116801
16.046829,43,0,-7,3,92,4,7,-21,1.233116801
16.058808,-16,-40,0,-4,-49,-25,-11,44,1.233116801
16.058839,58,68,2,3,-31,-25,16,-1,1.233116801
16.066914,-26,63,-3,-15,-68,42,-49,-40,1.233116801
16.066938,-39,-75,-5,-13,-83,-37,12,-34,1.233116801
16.082011,4,-14,1,10,78,19,-11,-56,1.233116801
16.082032,-22,-53,-12,2,-1,-18,-5,20,1.233116801
16.082156,26,82,5,6,12,-45,-1,3,1.233116801
16.082170,-31,34,4,-31,-21,56,25,12,1.233116801
16.105213,-5,-53,-8,5,-13,42,2,-62,1.233116801
16.105237,-14,50,4,-6,-22,-33,2,-61,1.233116801
16.107424,32,-51,2,-11,-67,-15,24,40,1.233116801
16.107438,-56,-61,-7,16,125,40,-21,-31,1.233116801
16.118506,-37,-9,5,7,-56,-11,26,5,1.244230300
16.118526,8,-44,-6,-12,-10,-26,12,16,1.244230300
16.127009,-34,28,4,-11,-36,22,-6,-7,1.244230300
16.127041,89,38,2,19,38,12,-14,46,1.244230300
16.141558,-15,85,8,-13,-58,-6,-15,9,1.244230300
16.141574,15,-58,-5,16,13,-8,-19,-22,1.244230300
16.142356,1,-29,4,10,-10,7,-1,72,1.244230300
16.142491,-21,-27,-13,-5,-16,-18,-15,16,1.244230300
16.164998,15,-18,-4,-14,-2,25,23,11,1.244230300
16.165024,18,-19,-3,-25,-12,-61,-15,-2,1.244230300
16.167524,-27,91,5,8,71,13,35,-19,1.244230300
16.167537,11,-11,5,6,-12,3,-6,-83,1.244230300
16.178889,-37,-29,-13,-11,120,-55,-36,12,1.244230300
16.178920,-9,52,9,5,-16,121,66,45,1.244230300
16.186453,40,-69,-11,-8,62,-44,-57,-49,1.244230300
16.186470,58,95,5,-20,-9,-18,13,-16,1.244230300
16.202507,-28,-42,-1,21,60,-28,33,-8,1.244230300
16.202520,15,-1,2,-2,-5,32,2,0,1.244230300
16.202523,2,40,9,15,31,30,32,-2,1.244230300
16.202526,-27,35,-3,10,-4,-30,-18,19,1.244230300
16.225558,73,-72,-8,1,-67,2,22,6,1.244230300
16.225590,11,40,-4,-25,11,-23,-27,-52,1.244230300
16.225596,-20,-98,-15,-4,45,57,-16,-23,1.244230300
16.225601,-14,61,10,4,-16,-25,2,0,1.244230300
16.238896,-1,46,4,-11,35,88,7,-47,1.244230300
16.238929,-108,-98,-6,19,-57,-51,-24,-7,1.244230300
16.247057,30,49,14,27,66,-57,9,-15,1.244230300
16.247068,-65,-83,-7,-7,-26,0,-7,63,1.244230300
16.269986,58,32,2,7,-44,-14,-10,5,1.244230300
16.270002,-24,-16,-3,-8,8,-15,8,67,1.244230300
16.270795,56,51,-3,-17,7,9,-19,16,1.244230300
16.270823,50,-22,-3,0,40,54,9,-13,1.244230300
16.284760,-110,-69,-9,-10,-49,-45,-10,-32,1.244230300
16.284778,50,60,7,5,-12,-2,5,11,1.244230300
16.285422,0,39,-6,3,-35,-24,-6,18,1.244230300
16.285434,12,-1,0,-1,-16,-16,1,1,1.244230300
16.298447,-36,18,-1,-23,-50,7,-21,68,1.244230300
16.298465,60,65,4,-6,47,8,15,9,1.244230300
16.306778,-58,-114,-2,22,26,86,16,56,1.244230300
16.306802,55,37,2,-9,-20,-18,-16,-5,1.244230300
16.321947,32,-1,-1,2,44,28,-3,-34,1.244230300
16.323933,-29,-73,-2,-2,47,-12,-24,0,1.244230300
16.323942,85,73,3,-19,-52,-13,23,10,1.244230300
16.323945,-32,16,0,9,-44,13,-11,-37,1.244230300
16.345656,46,41,-8,2,-7,32,-12,29,1.244230300
16.345667,31,17,-1,2,42,8,17,13,1.244230300
16.345669,19,37,-2,-1,-35,-26,-19,-30,1.244230300
16.345672,-47,-59,2,12,65,-1,5,-36,1.244230300
16.359162,13,31,9,9,-9,-25,6,-13,1.244230300
16.359198,-37,-2,-9,-10,-64,-1,-11,-26,1.244230300
16.367018,-7,-39,-6,-6,-1,-24,15,12,1.244230300
16.367039,6,-50,5,9,53,22,13,12,1.244230300
16.382370,-48,-11,-4,-5,8,-40,-29,8,1.233499868
16.382403,39,27,4,15,-30,49,12,19,1.233499868
16.384502,-14,22,2,2,70,53,6,57,1.233499868
16.384515,57,-9,-7,-27,-105,-94,-49,28,1.233499868
16.404998,-2,-43,-11,24,51,42,-19,-71,1.233499868
16.405024,23,77,16,-8,-50,-74,-53,44,1.233499868
16.407300,-85,15,1,32,111,52,16,-51,1.233499868
16.407311,-32,6,-9,-24,-45,0,2,-23,1.233499868
16.427754,31,-6,0,-6,10,-14,33,10,1.233499868
16.427781,-24,14,-8,11,-32,-15,-35,-23,1.233499868
16.428279,27,27,7,-15,-62,-39,-21,-35,1.233499868
16.428295,-65,18,-5,3,11,6,13,8,1.233499868
16.441772,-11,1,5,0,6,-34,-1,17,1.233499868
16.441819,12,19,10,1,-8,2,-9,-17,1.233499868
16.442355,-18,-53,-15,1,22,13,10,-7,1.233499868
16.442369,23,-41,5,4,-58,-28,1,-7,1.233499868
16.465455,-13,16,-7,-6,-5,-25,-41,6,1.233499868
16.465481,-39,-96,-13,-12,4,77,39,-4,1.233499868
16.467944,13,36,11,3,-97,-111,1,-17,1.233499868
16.467956,43,61,-1,-4,51,17,39,115,1.233499868
16.487277,4,-3,0,0,-62,11,-27,9,1.233499868
16.487292,61,-14,7,-6,9,31,-5,38,1.233499868
16.488142,-53,41,8,-2,1,-20,-35,-23,1.233499868
16.488160,-21,-27,-5,4,20,20,-18,-58,1.233499868
16.501745,82,64,5,-1,-34,-22,-3,-18,1.233499868
16.501761,19,-84,-21,10,-27,-9,18,-2,1.233499868
16.502441,18,27,1,-11,-25,29,7,-18,1.233499868
16.502449,-9,36,1,13,53,1,-1,-27,1.233499868
16.524747,8,-76,5,-8,12,4,15,11,1.233499868
16.524765,-14,-15,4,14,59,-9,-6,-20,1.233499868
16.526269,14,-10,-10,-1,-58,-6,-5,-16,1.233499868
16.526314,-52,34,6,-23,-78,80,13,-58,1.233499868
16.549203,7,25,12,31,77,-49,36,104,1.233499868
16.549221,-47,-22,-7,-6,26,5,5,-22,1.233499868
16.549225,29,-46,-14,-15,-18,-1,4,29,1.233499868
16.549227,3,34,4,17,5,1,-4,13,1.233499868
16.564370,-30,-81,-15,-19,-55,17,1,-54,1.233499868
16.564387,-37,38,5,-10,10,-15,-13,-26,1.233499868
16.564392,34,-28,-3,11,26,-8,11,3,1.233499868
16.564397,6,48,-1,-11,-27,-10,11,-8,1.233499868
16.584910,68,-45,-12,-6,-52,-7,-19,-13,1.233499868
16.584928,2,1,2,11,65,-3,12,6,1.233499868
16.585488,-25,44,4,-8,48,26,-3,-20,1.233499868
16.585499,41,-85,-9,1,-9,-23,17,22,1.233499868
16.607543,-68,74,3,-10,3,3,-28,4,1.233499868
16.607567,7,-2,-3,-7,-2,7,-11,-2,1.233499868
16.610476,16,29,11,-20,-124,0,16,-81,1.233499868
16.610487,-36,12,-18,10,127,-9,6,-32,1.233499868
16.621936,62,-26,-8,-2,16,57,-8,-26,1.233499868
16.621960,19,-3,-3,4,-67,11,9,-37,1.233499868
16.624344,-13,34,7,-10,44,-9,-21,26,1.233499868
16.624361,-5,33,9,3,21,-11,-8,14,1.233499868
16.645064,11,23,10,-12,-30,-2,30,37,1.229443846
16.645089,-73,-15,-11,8,23,-12,-24,7,1.229443846
16.645715,18,-14,1,-4,-6,-2,-12,14,1.229443846
16.645729,11,-56,-7,6,-38,18,7,19,1.229443846
16.667527,-23,38,9,6,4,-30,-4,20,1.229443846
16.667558,26,71,-2,-3,12,-16,4,7,1.229443846
16.669451,-17,-33,-4,2,-37,5,1,-29,1.229443846
16.669464,-20,-34,-12,10,-16,76,-26,52,1.229443846
16.681924,-66,-13,-14,-22,-3,52,82,-39,1.229443846
16.681950,36,37,7,-9,-79,-9,-3,16,1.229443846
16.684292,-4,26,1,16,73,-33,16,-14,1.229443846
16.684307,-19,36,-7,8,42,0,-46,-20,1.229443846
16.705036,21,-39,3,16,-31,-16,-38,-27,1.229443846
16.705091,19,85,2,-7,7,22,42,40,1.229443846
16.705673,32,-115,-11,1,10,0,-21,32,1.229443846
16.705717,6,-5,5,-9,-58,-58,-9,17,1.229443846
16.727481,-8,42,6,-2,31,28,5,85,1.229443846
16.730077,-6,-17,1,4,29,-25,-25,-30,1.229443846
16.730087,-37,-5,1,7,-18,3,0,19,1.229443846
16.730090,102,23,-4,-29,-63,-3,1,-1,1.229443846
16.741936,-91,-73,-8,27,-15,-63,-20,-37,1.229443846
16.741967,10,-14,7,-4,49,87,26,-10,1.229443846
16.744559,-83,-6,-10,-1,-9,30,44,66,1.229443846
16.744570,82,83,11,21,19,-36,17,-10,1.229443846
16.767164,-35,-44,-2,-6,23,-80,-27,5,1.229443846
16.767175,17,-2,-9,-9,-27,-67,-37,-39,1.229443846
16.767178,-15,30,-2,-4,-10,39,9,12,1.229443846
16.767180,-47,-55,5,-28,-29,3,4,-28,1.229443846
16.787690,32,51,-8,1,13,12,-2,-32,1.229443846
16.787723,23,13,5,14,-1,3,1,14,1.229443846
16.789839,-4,21,0,-16,60,-2,1,-78,1.229443846
16.789850,3,-79,-8,-6,41,28,17,-5,1.229443846
16.801555,-10,64,6,-9,-14,14,-4,15,1.229443846
16.801572,-35,-107,-7,25,16,13,23,-1,1.229443846
16.802389,26,70,3,-3,-27,-47,-8,34,1.229443846
16.804942,-28,-29,1,-11,-63,13,-25,-57,1.229443846
16.825374,-3,29,9,22,107,86,37,-30,1.229443846
16.825405,-20,-34,-17,-13,-7,-11,-23,-68,1.229443846
16.827972,12,-12,0,1,-18,10,4,3,1.229443846
16.827983,50,64,6,-11,-61,-50,-13,-22,1.229443846
16.847797,-49,-53,-17,-14,-10,67,-9,3,1.229443846
16.847828,25,67,5,-1,32,2,10,20,1.229443846
16.850638,0,-98,-12,22,90,63,0,-34,1.229443846
16.850658,-18,68,10,-23,-26,-34,15,7,1.229443846
16.861972,1,-36,-1,9,-22,-5,-29,4,1.229443846
16.861991,68,48,5,-7,-33,-23,-24,82,1.229443846
16.862438,24,50,1,5,14,-7,-11,-10,1.229443846
16.862453,-30,5,1,7,40,38,-2,31,1.229443846
16.884878,48,-5,6,6,-74,-96,-6,-5,1.244834196
16.884902,-25,-29,-4,-9,-17,30,3,-16,1.244834196
16.886626,13,7,-2,-21,-66,-21,-12,20,1.244834196
16.886638,-41,-81,-12,9,-19,-12,20,-17,1.244834196
16.907473,-64,36,5,-13,-8,1,-46,-25,1.244834196
16.907487,10,-60,9,24,104,-18,86,51,1.244834196
16.908107,2,53,-7,-9,-27,26,6,-86,1.244834196
16.908117,16,-31,1,11,50,-27,-36,13,1.244834196
16.921057,29,127,8,-20,-87,15,25,-19,1.244834196
16.921074,-15,-59,-12,-1,43,-19,-43,-9,1.244834196
16.929467,-28,-84,-13,-16,-40,-4,-12,-17,1.244834196
16.929498,27,37,7,1,53,62,25,106,1.244834196
16.944489,-12,-5,-6,-15,-11,-85,-13,-8,1.244834196
16.944522,9,63,9,16,-81,-1,8,-47,1.244834196
16.946305,-2,-37,18,20,106,32,3,62,1.244834196
16.946321,8,-6,-7,-9,-21,-11,-20,-34,1.244834196
16.967290,17,5,7,6,-10,19,34,20,1.244834196
16.967303,8,-43,-4,-14,34,8,-8,-11,1.244834196
16.967900,-48,-29,-10,-11,-42,-17,-3,10,1.244834196
16.967910,-64,31,6,8,9,76,-17,-29,1.244834196
16.984199,92,0,4,8,29,-82,7,11,1.244834196
16.984212,-29,1,-4,-4,-18,33,-8,1,1.244834196
16.984214,-1,-47,-4,4,-16,-15,-35,56,1.244834196
16.984217,-6,-19,-12,-11,42,5,85,-22,1.244834196
17.004240,32,45,-2,-1,2,26,13,10,1.244834196
17.004265,-39,4,-5,-16,-14,-13,-46,-30,1.244834196
17.009055,57,86,5,-39,-6,-15,17,9,1.244834196
17.009076,2,-38,8,64,84,18,3,11,1.244834196
17.027419,-101,-114,-14,-5,24,31,21,-21,1.244834196
17.027444,47,127,6,-8,-32,-21,-8,-6,1.244834196
17.028759,-16,-100,-5,-18,3,7,27,-2,1.244834196
17.028816,46,42,7,-8,-62,-58,-13,11,1.244834196
17.040990,8,-18,-7,7,-23,85,-19,52,1.244834196
17.041014,-13,9,-2,0,101,32,26,6,1.244834196
17.049199,46,46,5,19,-25,30,5,-14,1.244834196
17.049221,-31,-26,-15,-6,-36,-50,-22,-2,1.244834196
17.064265,42,-12,-5,-13,1,6,-12,-16,1.244834196
17.064294,-26,-45,-2,-7,-49,-2,2,-8,1.244834196
17.064994,17,41,8,14,42,1,21,50,1.244834196
17.065021,-22,-1,-7,-24,-64,-26,-48,-12,1.244834196
17.087691,-21,-13,-1,6,83,-6,-9,46,1.244834196
17.087723,20,27,3,-3,16,21,-17,21,1.244834196
17.089661,1,30,2,9,-58,-90,31,-34,1.244834196
17.089674,13,-2,-9,14,-5,124,2,89,1.244834196
17.101349,17,-86,5,-1,-76,-29,13,-20,1.244834196
17.101371,27,74,-2,-10,-58,34,-9,-22,1.244834196
17.109141,18,-5,2,-5,29,30,3,31,1.244834196
17.109157,66,22,-7,-10,9,-89,7,35,1.244834196
17.124213,9,-6,0,3,23,4,-14,-27,1.244834196
17.124225,25,39,4,2,-78,-4,26,19,1.244834196
17.124734,-90,-58,-6,1,31,24,-30,-66,1.244834196
17.124768,3,72,3,-3,65,-6,-4,-47,1.244834196
17.147721,-15,12,-3,2,-32,26,36,-12,1.241170257
17.147754,-9,-73,7,-14,-3,-37,-15,-3,1.241170257
17.150050,27,69,-1,38,4,50,-30,-13,1.241170257
17.150067,-34,-2,1,13,-29,-46,-41,-24,1.241170257
17.161350,-24,-4,-5,-10,1,1,-11,-13,1.241170257
17.161383,22,-47,-13,-17,-26,2,28,-1,1.241170257
17.169310,-46,29,9,-1,5,-30,-3,13,1.241170257
17.170795,-12,-27,4,4,-4,35,8,-23,1.241170257
17.185126,69,116,0,5,24,4,4,25,1.241170257
17.185136,-33,-88,-3,-1,-15,68,-43,-34,1.241170257
17.185140,-17,-35,0,-8,-88,-120,36,16,1.241170257
17.185143,-36,0,0,-15,37,13,21,-1,1.241170257
17.207532,-97,4,-15,-34,39,41,32,-49,1.241170257
17.207556,-3,33,12,18,10,-8,-5,40,1.241170257
17.209905,15,13,-1,1,-108,8,-49,-44,1.241170257
17.209916,-42,-14,12,35,80,18,28,-19,1.241170257
17.221123,36,-21,0,6,3,-13,-7,1,1.241170257
17.221145,-47,-1,-6,18,26,22,10,-18,1.241170257
17.229994,-13,-66,-22,-27,-14,23,-14,3,1.241170257
17.230017,24,69,8,-3,-71,-31,-10,-11,1.241170257
17.244657,17,-67,-6,-22,-14,28,2,-11,1.241170257
17.244681,-9,-2,-3,27,55,-38,-16,5,1.241170257
17.246796,20,53,0,0,25,2,-11,19,1.241170257
17.246806,8,-85,-8,-13,-1,-8,14,-7,1.241170257
17.267256,-99,2,2,16,-69,-2,-13,-19,1.241170257
17.267273,54,-19,-10,-34,15,70,2,28,1.241170257
17.268081,48,74,-2,11,102,-47,1,19,1.241170257
17.268097,-11,-76,3,-19,-87,13,-12,5,1.241170257
17.281018,70,86,19,37,-54,2,13,97,1.241170257
17.281036,15,-97,-2,-6,10,-82,2,30,1.241170257
17.289042,-10,109,16,-3,-63,52,25,-20,1.241170257
17.289060,-2,-31,-20,-17,-20,-28,-24,-32,1.241170257
17.304283,-43,-52,-1,-18,49,7,-12,-11,1.241170257
17.304307,-42,28,-5,3,-53,-14,-1,-14,1.241170257
17.307588,12,-35,7,-4,32,23,23,14,1.241170257
17.307598,-7,43,2,17,50,-11,8,-24,1.241170257
17.327252,61,-13,-5,-15,-18,-3,-58,2,1.241170257
17.327265,1,24,7,13,0,0,41,-65,1.241170257
17.327965,-41,-65,-6,-1,2,9,-48,-77,1.241170257
17.328004,11,0,2,5,-63,5,18,-2,1.241170257
17.340875,28,125,5,10,38,36,8,-14,1.241170257
17.340891,-27,-74,1,-4,23,-23,10,5,1.241170257
17.349436,46,-13,-4,-12,-34,36,11,-4,1.241170257
17.351575,-18,23,-2,-4,113,10,-12,0,1.241170257
17.364586,-23,-48,-3,30,-42,-21,-2,-2,1.241170257
17.364616,44,26,7,8,4,14,5,-3,1.241170257
17.367382,-24,34,-4,-4,63,-2,18,-20,1.241170257
17.367395,30,-55,-7,-8,-14,35,41,13,1.241170257
17.387325,-35,-46,-4,-24,-3,-35,-56,-18,1.241170257
17.387335,-3,49,-1,-6,-20,-1,-26,-10,1.241170257
17.388017,-5,4,7,16,-33,3,-8,15,1.241170257
17.388027,-9,-27,-13,-12,4,-21,25,0,1.241170257
17.410371,73,-25,-3,2,29,-11,7,9,1.234901447
17.410403,-23,4,-3,1,-23,-20,4,43,1.234901447
17.412363,20,-23,-8,-16,6,12,-13,22,1.234901447
17.412373,4,57,-1,2,18,32,16,-67,1.234901447
17.424200,-14,-37,5,-10,-52,-74,29,2,1.234901447
17.424220,-45,32,5,22,60,27,-42,-12,1.234901447
17.425481,-5,-26,-14,18,-26,-20,8,8,1.234901447
17.425497,70,3,7,15,-44,25,12,11,1.234901447
17.450201,-76,2,-9,-15,28,3,-5,-15,1.234901447
17.450216,53,127,-5,-20,-70,1,15,20,1.234901447
17.450219,-106,-105,-14,-1,52,-11,-23,-29,1.234901447
17.450221,13,49,-4,-18,-22,-18,-19,-17,1.234901447
17.470070,74,14,-3,8,40,7,3,11,1.234901447
17.470093,-52,12,1,3,-35,-2,10,-2,1.234901447
17.470516,-19,13,6,-20,-28,-2,-66,4,1.234901447
17.470532,10,-14,-1,19,44,3,16,24,1.234901447
17.484213,-60,-16,-1,-8,-2,-2,-23,-3,1.234901447
17.484235,6,-49,-10,-6,57,17,-7,-12,1.234901447
17.484805,52,9,-9,-22,-81,5,18,-60,1.234901447
17.484897,-69,-25,2,8,52,-8,-38,-15,1.234901447
17.507635,28,25,4,17,-11,83,-21,6,1.234901447
17.507659,-25,-23,-3,8,16,45,5,24,1.234901447
17.509878,47,92,13,15,52,-19,17,15,1.234901447
17.509888,28,-58,-7,-14,-61,21,-16,26,1.234901447
17.529951,-3,39,0,-6,-41,-27,26,-23,1.234901447
17.529997,4,9,-4,-5,-22,-32,-10,7,1.234901447
17.530590,31,9,-7,-8,61,41,13,35,1.234901447
17.530646,-51,73,10,-1,-18,-46,-19,-5,1.234901447
17.544052,17,-60,-3,7,47,-2,29,7,1.234901447
17.544094,29,-23,3,-7,4,7,-33,-18,1.234901447
17.544674,-15,-26,0,-3,-32,-16,-12,4,1.234901447
17.544682,-9,102,2,2,-38,-3,-1,22,1.234901447
17.567599,-7,-95,-7,-15,10,51,4,-30,1.234901447
17.567618,-57,17,0,10,25,-77,0,43,1.234901447
17.569241,65,-25,-6,6,-17,1,-7,26,1.234901447
17.569256,27,22,-2,-6,26,9,5,-3,1.234901447
17.590599,10,73,0,13,-1,40,11,60,1.234901447
17.590611,-1,-38,-5,-34,-35,31,19,-37,1.234901447
17.590614,-55,-31,6,19,80,-7,-24,-18,1.234901447
17.590616,-8,17,2,-4,-40,-17,14,24,1.234901447
17.603436,48,108,5,-6,-10,-14,-4,-32,1.234901447
17.603461,18,-41,-13,-29,-32,-18,2,-1,1.234901447
17.612977,-29,59,2,8,-30,-30,20,15,1.234901447
17.612993,31,-45,-2,-8,-11,17,4,-14,1.234901447
17.627598,-25,-67,-2,-7,15,56,-47,5,1.234901447
17.627623,10,-6,-4,13,30,33,4,-37,1.234901447
17.629442,4,67,10,-1,-43,-19,19,25,1.234901447
17.629460,3,-18,6,11,87,5,-3,-11,1.234901447
17.657813,6,39,0,3,-43,19,25,-13,1.228033252
17.657836,-3,-61,8,17,41,-51,13,81,1.228033252
17.660540,5,-61,-10,6,19,25,-3,-82,1.228033252
17.660551,-63,-36,-10,-14,-33,-44,-22,19,1.228033252
17.663573,20,80,2,3,26,4,-4,22,1.228033252
17.663611,-24,-17,1,8,-35,-4,19,-4,1.228033252
17.672564,-2,61,-2,-17,43,17,17,10,1.228033252
17.672588,37,6,6,5,-3,-21,28,29,1.228033252
17.687598,-108,-79,-16,-18,-64,-25,-30,-84,1.228033252
17.687628,79,64,6,6,-17,-25,-7,-3,1.228033252
17.691496,-86,-56,7,14,-6,65,9,9,1.228033252
17.691508,-10,-12,-3,-27,53,28,-23,-30,1.228033252
17.710518,18,47,-1,25,-1,0,27,-34,1.228033252
17.710562,-2,-54,1,-7,10,27,-8,-10,1.228033252
17.713345,-4,4,0,1,-43,-52,-22,9,1.228033252
17.713355,17,-21,-15,-7,31,70,15,-14,1.228033252
17.723422,-9,35,10,4,-42,12,-14,97,1.228033252
17.723439,-14,35,0,3,-9,-21,-16,-23,1.228033252
17.733615,8,2,-5,-16,11,19,-22,-3,1.228033252
17.733633,-9,-3,-3,-4,-13,19,14,-23,1.228033252
17.747249,-11,30,-7,-16,19,-52,-7,-21,1.228033252
17.747301,25,6,-9,-14,-47,46,30,3,1.228033252
17.749064,68,17,4,16,23,-43,-18,-12,1.228033252
17.749083,5,-17,-2,-9,-96,-4,3,-28,1.228033252
17.770031,35,-1,-6,-2,35,-33,26,15,1.228033252
17.772575,-13,-1,10,-1,-52,50,-10,-53,1.228033252
17.772588,21,11,-6,-1,97,-18,12,11,1.228033252
17.772590,-21,3,8,0,-86,-47,2,0,1.228033252
17.783687,-4,12,-2,0,45,4,3,-28,1.228033252
17.783706,9,18,-3,-7,4,23,-18,59,1.228033252
17.793892,-28,-33,-4,11,-36,-43,-25,-5,1.228033252
17.793902,30,1,2,5,-23,1,-7,19,1.228033252
17.809922,-22,-15,3,-1,-2,-22,-9,4,1.228033252
17.809933,47,2,-5,10,57,20,9,-17,1.228033252
17.809936,-61,21,7,19,38,8,-4,3,1.228033252
17.809939,-11,64,10,5,7,-51,11,-45,1.228033252
17.830124,-48,-125,-22,-17,34,25,-3,-7,1.228033252
17.830154,18,65,-8,-17,-10,-2,-4,-24,1.228033252
17.832266,-24,-52,-7,-12,12,-8,-55,51,1.228033252
17.832284,26,41,3,21,-1,-4,8,-7,1.228033252
17.843910,23,-20,0,16,70,-3,16,-43,1.228033252
17.843936,-6,-108,-4,-4,-13,-10,-7,-2,1.228033252
17.853526,42,32,1,-13,-40,12,19,21,1.228033252
17.853537,-39,-11,-13,-15,-38,-33,-30,77,1.228033252
17.867371,3,-34,4,-18,-66,-8,-13,-2,1.228033252
17.867390,-20,16,-5,-20,6,-11,20,-2,1.228033252
17.869019,21,22,12,19,62,-69,-11,-7,1.228033252
17.869083,39,27,1,6,39,14,13,-13,1.228033252
17.890234,15,4,2,17,-29,18,14,17,1.228033252
17.890250,-101,5,-14,-14,-15,-29,-22,-12,1.228033252
17.891257,19,-105,-11,-22,-44,53,10,-87,1.228033252
17.891268,30,16,2,-11,39,4,-24,39,1.228033252
17.903646,24,1,4,17,-2,-3,59,15,1.228033252
17.903662,-11,52,5,17,34,-6,-13,-37,1.228033252
17.913776,10,45,-2,-2,-50,31,2,-1,1.232544451
17.913792,-54,-81,-9,3,19,10,-9,15,1.232544451
17.926809,14,52,3,-18,-13,-15,-23,-20,1.232544451
17.926841,5,-53,0,4,-30,3,-1,30,1.232544451
17.935476,55,108,3,23,35,10,50,23,1.232544451
17.935488,24,14,3,-7,-39,12,-47,47,1.232544451
17.950265,42,-14,-6,0,2,3,7,0,1.232544451
17.950281,-27,8,4,-1,-57,-43,-14,-47,1.232544451
17.951442,6,-13,-11,-19,44,42,-31,-10,1.232544451
17.951468,9,96,7,7,37,-4,-11,15,1.232544451
17.965288,-4,-50,3,-7,15,-50,-13,-15,1.232544451
17.965301,15,-77,-14,19,22,48,31,-12,1.232544451
17.973785,-15,-31,-3,-20,-81,-51,25,1,1.232544451
17.973801,-24,-27,-1,16,37,18,-8,-45,1.232544451
17.987693,31,63,4,-15,9,22,-27,15,1.232544451
17.987724,1,44,4,-4,6,-55,15,-13,1.232544451
17.989808,-84,-36,-10,-7,-16,29,-14,-57,1.232544451
17.989821,48,26,3,-9,-14,14,25,-19,1.232544451
18.009876,-71,-65,-5,10,-41,-50,-18,-18,1.232544451
18.009894,-30,-71,-14,-19,57,27,-42,22,1.232544451
18.012026,42,14,1,17,-72,-2,27,21,1.232544451
18.012044,16,20,11,-10,31,28,-6,-17,1.232544451
18.023688,20,6,-3,22,61,63,25,13,1.232544451
18.023712,-4,65,11,10,32,-68,13,-13,1.232544451
18.033780,35,3,5,7,38,-10,9,60,1.232544451
18.033828,-16,-27,-5,-3,-27,73,11,-46,1.232544451
18.047588,-50,68,7,8,4,-63,22,16,1.232544451
18.047614,53,-73,-3,4,-7,14,-24,-25,1.232544451
18.050387,-30,2,7,-12,-13,17,4,-2,1.232544451
18.050400,-20,-34,-17,-8,-23,-9,-7,-41,1.232544451
18.069618,4,43,6,-31,-27,34,-19,-3,1.232544451
18.069635,28,62,4,40,76,-35,17,87,1.232544451
18.076238,40,49,-9,-34,-106,-23,-31,13,1.232544451
18.076263,-60,-90,1,14,62,63,-2,45,1.232544451
18.083415,-23,5,-6,-4,-8,-10,-40,-38,1.232544451
18.083435,7,-7,7,-10,-39,4,16,-5,1.232544451
18.093852,0,-1,-3,-5,-10,22,35,28,1.232544451
18.093864,12,57,-1,-4,8,-13,-79,-15,1.232544451
18.107499,9,-34,-4,-11,-46,-1,1,-13,1.232544451
18.107549,66,23,-2,-5,35,56,28,18,1.232544451
18.109032,-53,-42,-7,20,26,19,0,-25,1.232544451
18.109076,-21,-9,-4,-14,-68,-73,26,-3,1.232544451
18.129882,0,-30,4,16,-2,55,4,11,1.232544451
18.129899,-33,47,2,-30,34,10,0,-24,1.232544451
18.132697,59,-1,6,33,-10,30,26,11,1.232544451
18.132711,-28,-4,-3,-6,-9,-74,24,-8,1.232544451
18.143888,12,-29,6,6,24,-10,-67,11,1.232544451
18.143919,-54,-53,-8,-1,-14,3,15,-9,1.232544451
18.152369,33,-12,0,-9,-18,4,1,35,1.232544451
18.152387,12,8,-4,5,78,32,-10,1,1.232544451
18.167692,23,93,0,-26,-116,-49,61,-16,1.216577241
18.167704,-61,-85,-2,40,97,34,-44,71,1.216577241
18.173558,-59,-23,0,-10,52,-5,15,34,1.216577241
18.173582,7,-50,-3,8,-29,-13,22,-2,1.216577241
18.189944,-16,6,-4,-3,19,-5,15,-5,1.216577241
18.189960,1,26,-1,-21,-66,-20,-8,-78,1.216577241
18.192447,2,44,11,15,30,38,-7,-6,1.216577241
18.192458,27,-65,5,-1,12,-8,-21,12,1.216577241
18.203724,12,-38,-14,-3,35,35,-9,10,1.216577241
18.203748,-41,55,1,-2,-60,-45,4,-12,1.216577241
18.214698,-14,8,1,5,12,61,-6,-42,1.216577241
18.214711,28,51,-5,-22,-64,-60,-14,-23,1.216577241
18.227465,-44,-1,-4,15,16,99,32,12,1.216577241
18.227482,63,76,6,-23,-124,-19,42,19,1.216577241
18.229238,-57,-52,-18,13,86,24,-91,-84,1.216577241
18.229248,19,-8,-2,7,-12,23,28,-54,1.216577241
18.249865,-15,12,7,-6,-32,-35,4,19,1.216577241
18.249883,20,14,-7,0,-33,-31,-28,-2,1.216577241
18.251370,7,55,2,-13,-11,-25,2,-16,1.216577241
18.251386,-9,-19,-3,3,10,27,8,44,1.216577241
18.263667,5,28,0,8,18,-28,-12,-57,1.216577241
18.263692,73,93,26,-7,-12,50,-28,59,1.216577241
18.274785,-15,-125,-23,6,-2,-99,43,-3,1.216577241
18.274797,-23,44,-1,-3,-3,7,-15,2,1.216577241
18.287491,51,50,-1,-12,-14,-16,10,4,1.216577241
18.287510,-33,-75,-6,19,33,12,-4,-4,1.216577241
18.290517,15,54,2,-27,37,16,-22,-13,1.216577241
18.290529,-38,-78,-5,18,-84,17,50,22,1.216577241
18.309750,-5,-22,-2,-5,83,-66,-15,-44,1.216577241
18.309795,0,-1,-1,3,38,27,-15,-4,1.216577241
18.311309,-20,23,2,-15,-69,-24,-34,-13,1.216577241
18.311324,17,72,11,15,91,56,-33,35,1.216577241
18.332693,9,-62,-12,-4,29,24,-4,-7,1.216577241
18.332720,-70,-109,-8,-3,-24,-44,0,-14,1.216577241
18.334820,-2,-5,0,5,-4,12,14,-22,1.216577241
18.334834,-17,44,2,-18,-57,2,30,1,1.216577241
18.347716,14,-44,-7,-7,-44,-8,-21,12,1.216577241
18.347749,-36,49,0,9,47,-5,-3,-68,1.216577241
18.350327,64,31,13,-7,-128,7,-13,47,1.216577241
18.350340,16,-13,-6,2,69,8,21,21,1.216577241
18.369840,-19,-13,4,15,40,57,5,42,1.216577241
18.369853,-17,16,-4,-7,-11,-20,0,-25,1.216577241
18.371308,39,21,4,-9,-11,-27,12,1,1.216577241
18.371321,-22,21,0,-9,-24,-10,5,-23,1.216577241
18.392678,-11,-13,2,3,-83,16,24,4,1.216577241
18.392703,40,20,-5,-8,20,35,-37,-17,1.216577241
18.394408,-4,-67,0,7,18,-5,1,-68,1.216577241
18.394418,38,22,1,-8,-30,-17,-10,38,1.216577241
18.407193,-90,-58,3,18,30,1,-4,9,1.216577241
18.407211,72,11,-6,2,-4,22,18,-2,1.216577241
18.408726,17,12,0,-6,0,-5,2,24,1.216577241
18.408738,-24,-24,-6,-1,4,-27,-4,-33,1.216577241
18.430195,17,66,2,0,-20,28,-22,-25,1.209650455
18.430230,67,43,7,7,-4,-39,-18,96,1.209650455
18.433019,-92,-92,-10,13,69,109,-13,0,1.209650455
18.433034,78,-81,3,4,38,-30,13,11,1.209650455
18.452543,19,2,-11,-23,-23,2,-11,18,1.209650455
18.452603,-60,18,4,10,18,13,20,-15,1.209650455
18.453811,-15,-20,-2,-16,-101,-14,12,6,1.209650455
18.453825,-30,9,0,-12,60,-20,-44,-8,1.209650455
18.466072,23,17,-4,-10,32,-17,-5,-17,1.209650455
18.466090,10,-28,3,15,-1,25,8,0,1.209650455
18.477094,9,77,1,-22,11,-63,17,-8,1.209650455
18.477105,-37,27,1,21,-28,28,15,-26,1.209650455
18.490423,-5,35,3,-5,-29,-25,5,11,1.209650455
18.490447,1,-45,-19,-21,32,18,-12,-3,1.209650455
18.493463,48,27,1,0,-44,-17,12,-47,1.209650455
18.493481,-27,6,-2,-4,-19,7,-13,-7,1.209650455
18.512277,16,37,4,10,14,-3,10,9,1.209650455
18.512295,-16,-2,8,6,-31,24,30,-21,1.209650455
18.513729,-20,10,-3,16,-12,-61,-2,26,1.209650455
18.513764,40,-69,-8,-14,-2,91,14,-11,1.209650455
18.526521,-38,19,3,-23,-9,-94,20,53,1.209650455
18.526533,54,-2,-16,18,10,-3,-11,-19,1.209650455
18.533584,7,-13,20,21,127,86,10,36,1.209650455
18.533697,-39,31,-4,0,-20,-35,-55,-9,1.209650455
18.549823,44,0,-3,2,12,22,0,24,1.209650455
18.549847,18,41,-3,-13,-27,25,27,-14,1.209650455
18.552593,-64,3,-1,-3,21,-55,-33,15,1.209650455
18.552605,-19,17,-3,1,-13,-9,24,-28,1.209650455
18.573661,12,2,10,8,4,29,-9,-25,1.209650455
18.573673,-21,16,-6,-15,-14,-37,6,-29,1.209650455
18.573780,3,-74,-11,-1,-4,28,23,67,1.209650455
18.573788,4,-32,3,-12,3,4,0,2,1.209650455
18.586873,-3,6,2,11,26,-19,-15,7,1.209650455
18.586892,-14,37,4,7,-9,3,-10,-2,1.209650455
18.593942,-7,23,-2,-23,-69,-14,2,-1,1.209650455
18.593973,33,14,-1,6,64,28,5,-10,1.209650455
18.610610,-19,85,2,-6,8,46,2,-16,1.209650455
18.610633,-16,-128,-4,5,-18,35,-59,4,1.209650455
18.612967,51,4,-10,-35,-27,50,6,7,1.209650455
18.612977,-54,25,0,42,71,3,-9,-66,1.209650455
18.632508,99,31,1,11,-9,-23,-10,6,1.209650455
18.632538,-122,-38,0,-24,14,39,12,-7,1.209650455
18.634831,26,28,1,-2,-41,-48,-8,45,1.209650455
18.634854,-10,-23,-3,-4,-19,30,13,-4,1.209650455
18.647210,-60,-62,1,13,-11,-7,19,-13,1.209650455
18.647242,10,22,1,-2,36,-14,2,4,1.209650455
18.653490,39,76,8,13,7,-3,3,-33,1.209650455
18.653555,-1,-85,-1,-9,-68,-22,0,37,1.209650455
18.669837,2,-55,-10,-3,1,6,1,-5,1.209650455
18.669854,-15,29,4,5,33,-47,7,9,1.209650455
18.671392,-14,10,-1,10,27,27,-3,-9,1.209650455
18.671414,9,45,0,0,32,7,42,21,1.209650455
18.692377,-23,-16,-2,-24,-88,35,-24,1,1.206752650
18.692395,40,23,2,-6,19,-21,37,-43,1.206752650
18.694163,-46,-48,-14,17,69,-99,-37,-21,1.206752650
18.694180,-28,-53,-12,-11,-9,8,-26,4,1.206752650
18.706535,20,-10,2,5,-34,-46,6,11,1.206752650
18.706552,76,53,6,-6,-30,30,8,16,1.206752650
18.713386,1,21,5,0,21,21,9,10,1.206752650
18.713403,10,31,-8,-12,5,-24,12,3,1.206752650
18.729868,-30,33,-4,-36,-82,-24,3,-24,1.206752650
18.729882,57,52,12,42,111,62,18,63,1.206752650
18.731516,20,-44,-11,-11,-7,-3,0,-27,1.206752650
18.731536,-12,46,5,-7,-28,10,10,20,1.206752650
18.752331,12,4,-6,6,29,-37,-7,-19,1.206752650
18.752351,-17,-6,0,-6,-33,24,0,11,1.206752650
18.754583,-38,0,4,-2,-22,19,20,10,1.206752650
18.754594,66,36,-1,0,1,15,-16,-24,1.206752650
18.766818,-3,1,-4,6,16,-18,-63,-2,1.206752650
18.766838,16,-18,-4,-13,-26,60,27,0,1.206752650
18.773654,-82,-12,3,25,110,-74,-24,2,1.206752650
18.773678,-42,-46,-6,-14,-59,8,-17,2,1.206752650
18.789345,-3,-37,-3,19,117,61,29,10,1.206752650
18.789376,-11,-11,-1,0,-55,-16,-34,-16,1.206752650
18.800605,29,-70,-10,-30,-88,34,5,-6,1.206752650
18.800618,-46,37,4,20,-7,-15,9,-33,1.206752650
18.812496,30,46,11,-1,-4,-9,-12,-20,1.206752650
18.812575,-59,-50,0,3,11,-14,-1,-20,1.206752650
18.813775,67,127,12,3,-34,29,39,74,1.206752650
18.813783,-63,-97,-12,-15,-78,-72,-50,-38,1.206752650
18.825836,-41,-17,-1,-4,22,30,24,-37,1.206752650
18.825847,2,21,-4,-6,-16,-4,-1,5,1.206752650
18.836213,20,108,6,3,12,7,-8,-36,1.206752650
18.836224,4,-101,-6,-4,-2,9,6,23,1.206752650
18.850070,-46,58,0,5,18,-15,-17,24,1.206752650
18.850092,-14,-73,-8,-12,-27,48,-26,-4,1.206752650
18.852336,-8,-29,1,-9,-52,-66,-5,-9,1.206752650
18.852352,32,59,7,17,41,20,17,9,1.206752650
18.872182,39,-15,-3,-16,2,-6,-8,10,1.206752650
18.872195,-40,35,-2,15,1,-22,-9,17,1.206752650
18.873829,-26,-63,-10,0,-14,42,-11,-45,1.206752650
18.873876,31,21,6,6,37,-12,9,14,1.206752650
18.887267,19,-4,4,8,-38,7,14,-18,1.206752650
18.887286,4,14,2,16,55,-40,-12,-9,1.206752650
18.896196,0,-23,-6,2,-50,20,2,51,1.206752650
18.896212,0,48,12,4,29,-13,10,46,1.206752650
18.910170,-8,-14,-2,4,18,33,14,6,1.206752650
18.910194,80,81,6,-5,-20,-16,-7,18,1.206752650
18.912389,16,-103,-15,3,51,27,2,-14,1.206752650
18.912399,-23,3,1,8,52,11,16,46,1.206752650
18.933598,55,38,-4,-15,-75,-4,10,38,1.178392039
18.933616,-35,54,15,12,38,20,51,-11,1.178392039
18.933992,61,8,5,8,51,-26,10,-53,1.178392039
18.934031,17,-49,-8,-21,-36,-5,-22,4,1.178392039
18.946403,-13,-35,0,6,45,26,6,-11,1.178392039
18.946427,-46,-3,-3,-9,-7,-45,-27,-18,1.178392039
18.956332,17,1,6,-19,-20,37,-3,-6,1.178392039
18.956345,62,43,11,33,16,13,8,-26,1.178392039
18.970433,-77,-67,-8,-5,24,-38,-19,-31,1.178392039
18.970457,55,5,-16,-35,-41,-1,4,-22,1.178392039
18.972735,-85,-22,4,4,21,7,5,-20,1.178392039
18.972852,44,49,1,-13,-29,-39,-2,10,1.178392039
18.992841,9,-8,3,-2,-71,27,-7,14,1.178392039
18.992872,-36,-61,-11,5,16,-9,7,-5,1.178392039
18.995381,-51,-73,-5,21,32,-6,9,-6,1.178392039
18.995392,-41,93,0,-15,-21,-1,-2,-69,1.178392039
19.006467,32,-44,4,11,-3,48,8,-8,1.178392039
19.006499,-41,-20,-2,8,-15,-68,55,-11,1.178392039
19.017459,60,-14,-3,-8,-35,5,-1,17,1.178392039
19.017474,-86,-5,-4,-1,54,17,-22,-28,1.178392039
19.029829,12,14,-13,-9,-23,-13,-5,12,1.178392039
19.029839,67,50,0,-11,44,29,-1,7,1.178392039
19.031396,-44,-5,1,2,15,7,-16,-15,1.178392039
19.031468,-6,-49,-8,-11,-27,-11,8,11,1.178392039
19.052422,-3,42,2,-18,11,-20,-10,-1,1.178392039
19.052440,-11,-16,9,6,-5,-16,-14,29,1.178392039
19.054037,-2,84,1,-14,-81,-38,-13,-36,1.178392039
19.054217,31,-62,-1,-4,42,85,-9,66,1.178392039
19.066114,11,29,6,22,60,-46,-1,10,1.178392039
19.066151,-17,-101,-9,-7,-43,-20,-3,-28,1.178392039
19.075661,26,75,8,14,80,27,-10,16,1.178392039
19.075670,35,40,7,-9,-111,-80,30,-10,1.178392039
19.089737,-15,-14,-9,2,15,51,30,-16,1.178392039
19.089754,-6,78,5,3,61,44,-45,-5,1.178392039
19.091260,-2,-53,-14,-7,-54,-17,18,-1,1.178392039
19.091281,23,9,-3,0,24,14,5,60,1.178392039
19.113031,-32,3,5,4,-7,-4,-10,-7,1.178392039
19.113073,5,41,4,-3,-36,13,4,77,1.178392039
19.115742,47,28,12,12,42,39,7,30,1.178392039
19.115761,-26,62,1,10,-34,-20,-29,-8,1.178392039
19.126266,-32,-54,-10,8,38,-28,3,16,1.178392039
19.126302,-12,-26,-1,2,-37,-51,-17,63,1.178392039
19.134924,-33,29,-2,-6,5,95,11,-3,1.178392039
19.136495,1,-37,0,22,7,-28,4,-25,1.178392039
19.151864,96,41,6,11,-38,2,-40,43,1.178392039
19.151875,-29,-34,0,-3,-16,-17,-45,-28,1.178392039
19.151878,13,31,-5,-1,-7,-80,14,-5,1.178392039
19.151881,-77,-21,-5,-3,-30,82,-3,-34,1.178392039
19.172572,12,52,1,-6,22,-13,30,-11,1.178392039
19.172607,5,-67,-10,-8,11,3,-14,-42,1.178392039
19.175703,6,-7,-4,-11,-7,-91,-22,2,1.178392039
19.175719,9,9,1,-11,11,0,-5,-47,1.178392039
19.185985,12,-21,6,-3,0,-21,-10,16,1.192899082
19.186003,37,33,-2,-3,-53,28,20,9,1.192899082
19.196198,-89,-92,4,13,36,41,-11,33,1.192899082
19.196206,67,56,-4,1,20,3,-1,79,1.192899082
19.210028,-96,-47,-4,-12,-1,-17,-16,-15,1.192899082
19.210052,34,-65,-5,6,-56,3,8,-23,1.192899082
19.213137,62,29,-1,-11,-3,1,14,-15,1.192899082
19.213148,-24,-28,-3,-14,-11,9,-20,-40,1.192899082
19.231535,37,25,-2,1,-13,-14,3,18,1.192899082
19.231553,-60,55,2,-14,-45,7,3,-8,1.192899082
19.240149,-30,-70,-7,19,73,5,-16,1,1.192899082
19.240159,23,-10,7,7,45,13,84,-17,1.192899082
19.246154,14,34,3,1,-53,38,-46,-41,1.192899082
19.248161,-45,18,-1,11,72,23,5,-26,1.192899082
19.255373,-30,-71,-10,-36,-93,7,-11,-7,1.192899082
19.255388,-54,46,-2,5,29,-48,-42,3,1.192899082
19.270079,-28,-31,-7,-4,-19,40,37,-4,1.192899082
19.270103,9,-32,4,-3,-11,-52,-38,3,1.192899082
19.272624,34,93,7,-2,1,-14,12,-8,1.192899082
19.272635,0,-46,-2,-7,-29,20,-16,-60,1.192899082
19.292251,7,-12,-6,-15,-45,-11,0,-12,1.192899082
19.292264,25,9,2,16,81,-5,4,26,1.192899082
19.293862,59,102,-1,-7,13,4,31,-28,1.192899082
19.293878,-14,-69,-13,-12,56,-2,-24,-34,1.192899082
19.314907,-25,-8,-11,-1,-41,-31,-6,-8,1.192899082
19.314932,25,56,2,-16,21,28,15,-17,1.192899082
19.317280,-13,-25,0,-4,28,19,3,13,1.192899082
19.317292,41,62,10,21,-14,21,6,23,1.192899082
19.330341,-34,-16,-1,3,111,90,-2,7,1.192899082
19.330372,-5,-81,-8,2,34,-70,53,1,1.192899082
19.333395,-16,62,2,-9,-64,9,-21,-2,1.192899082
19.333408,20,-48,-8,-20,-19,3,14,2,1.192899082
19.354137,-47,-44,-10,-14,-25,-41,-49,-18,1.192899082
19.354150,47,55,9,10,30,19,1,-19,1.192899082
19.354153,7,18,2,7,-32,-9,-10,-29,1.192899082
19.354155,86,34,-6,-4,0,1,44,31,1.192899082
19.382467,2,97,16,43,59,-33,19,6,1.192899082
19.382494,0,-50,-9,-5,-21,13,-18,10,1.192899082
19.384887,8,3,0,5,-31,-19,-5,-7,1.192899082
19.384899,-28,-8,-1,-15,36,11,-39,-57,1.192899082
19.389954,-4,-87,-7,-7,32,-4,14,-50,1.192899082
19.390025,-7,26,6,-1,-65,-10,-4,34,1.192899082
19.391170,10,6,-1,22,22,24,-4,16,1.192899082
19.392263,-31,-90,0,0,23,-36,12,21,1.192899082
19.412464,17,38,-2,-2,-41,-23,-3,-3,1.192899082
19.412481,-26,-21,-3,-2,-13,66,-8,-24,1.192899082
19.414960,23,-53,-4,-16,-9,54,46,-7,1.192899082
19.414973,-23,93,10,0,-61,29,-31,12,1.192899082
19.433972,-9,39,7,8,-25,19,8,-6,1.192899082
19.433989,19,2,-4,-8,-1,48,11,16,1.192899082
19.444052,78,-10,2,0,51,-14,-15,13,1.184665358
19.444062,-49,29,-4,-9,-89,-32,17,7,1.184665358
19.449371,50,-18,-4,-14,3,-16,11,9,1.184665358
19.449392,-35,-21,-2,1,21,8,-39,34,1.184665358
19.455935,-14,29,6,7,14,-17,-6,-8,1.184665358
19.455965,31,70,4,0,13,-31,-5,3,1.184665358
19.472481,18,-34,-4,-9,-10,14,6,18,1.184665358
19.472504,-22,-4,-4,0,-29,-32,4,-22,1.184665358
19.475471,13,-3,-7,0,-4,-16,-27,-26,1.184665358
19.475482,2,-6,3,13,13,12,5,72,1.184665358
19.494726,-16,-10,0,3,8,-31,9,23,1.184665358
19.494737,33,82,-5,-29,-26,94,0,-29,1.184665358
19.496353,-89,-35,-14,-36,-63,-4,-10,-52,1.184665358
19.496369,21,-42,3,9,38,1,30,-20,1.184665358
19.509342,-26,-15,-15,5,48,-39,3,11,1.184665358
19.509354,-4,41,3,1,31,-18,-13,6,1.184665358
19.516098,-3,13,10,7,-43,-2,23,0,1.184665358
19.516128,38,19,7,-3,-16,10,-26,33,1.184665358
19.532446,-11,30,-2,3,-11,12,3,-11,1.184665358
19.532475,-25,-2,4,8,-12,-67,-4,12,1.184665358
19.534799,15,11,-2,4,9,8,-18,25,1.184665358
19.534846,-65,-30,-1,4,1,-19,0,-42,1.184665358
19.557248,23,25,7,-3,-2,1,0,51,1.184665358
19.557265,45,-30,-20,-15,-20,9,-8,2,1.184665358
19.557271,-64,15,4,25,44,9,34,-1,1.184665358
19.557277,28,-3,-8,-19,-7,-21,-34,-5,1.184665358
19.571206,34,21,-4,-14,21,48,14,-13,1.184665358
19.571220,-42,-18,7,-11,-48,-66,-18,-73,1.184665358
19.576095,0,-52,-10,4,29,-5,-10,39,1.184665358
19.576129,-30,-12,2,3,-14,52,0,3,1.184665358
19.591531,78,48,-1,3,71,-23,-14,34,1.184665358
19.591550,0,-38,-3,-14,25,96,-36,-7,1.184665358
19.601385,7,58,-9,-28,-53,23,18,17,1.184665358
19.601403,-9,-57,-4,43,94,-3,-58,-6,1.184665358
19.615265,-23,-58,0,-10,-42,5,11,-42,1.184665358
19.615285,26,8,16,27,93,-6,37,5,1.184665358
19.617506,37,40,1,-5,-29,-47,-25,29,1.184665358
19.617518,-39,-28,0,-10,-52,19,9,54,1.184665358
19.629311,-9,22,-4,-6,-49,-23,4,12,1.184665358
19.629344,43,-11,0,20,18,-24,17,-61,1.184665358
19.636232,24,10,19,9,11,-3,-43,-1,1.184665358
19.636256,12,67,-1,-7,-43,-23,7,-23,1.184665358
19.652246,-27,-42,-3,6,34,39,22,-14,1.184665358
19.652264,-9,31,-11,-40,-102,-29,-22,-22,1.184665358
19.653838,16,-54,-12,37,32,-7,37,68,1.184665358
19.653886,23,58,7,-12,34,16,-48,-12,1.184665358
19.674992,-37,-43,8,4,-61,-11,-1,-4,1.184665358
19.675016,36,51,0,2,-66,80,29,14,1.184665358
19.676917,-71,-99,-15,3,-105,-45,-14,-69,1.184665358
19.676934,44,44,-6,-14,65,75,49,46,1.184665358
19.689228,-21,56,9,15,47,-21,-82,-13,1.184665358
19.689256,29,-63,-8,0,-4,-31,-8,10,1.184665358
19.697197,-37,0,-5,-11,41,8,-17,-21,1.206599422
19.697209,9,0,3,-5,-60,2,50,54,1.206599422
19.712460,2,-3,-2,6,-4,29,-2,-18,1.206599422
19.712471,-8,-21,-2,10,39,-27,10,27,1.206599422
19.713731,-30,9,4,3,55,13,2,-37,1.206599422
19.713767,24,-67,-11,-1,-2,-14,-10,-41,1.206599422
19.734845,29,81,8,-18,4,2,-11,-37,1.206599422
19.734864,-49,-82,-3,24,49,17,39,27,1.206599422
19.736530,-22,-6,2,-12,-23,-11,-30,6,1.206599422
19.736541,23,54,1,41,77,-7,-3,54,1.206599422
19.749492,-17,-51,-15,-29,24,-5,19,-49,1.206599422
19.749514,-25,17,-2,22,14,4,39,8,1.206599422
19.756391,11,65,5,-27,-5,40,3,30,1.206599422
19.756421,34,25,-5,0,-28,-84,-18,-52,1.206599422
19.774507,-7,15,13,17,3,62,5,34,1.206599422
19.774520,-11,58,5,-10,21,-26,-51,-57,1.206599422
19.774523,38,-33,-2,24,43,22,-1,93,1.206599422
19.774525,5,29,2,-10,-35,-1,-8,-42,1.206599422
19.794991,52,17,-4,-15,-69,-9,9,-1,1.206599422
19.795008,-20,31,-7,-1,7,-17,2,-43,1.206599422
19.796238,21,-92,-3,4,-6,12,-17,-33,1.206599422
19.796250,-25,-41,-3,-20,-66,29,-18,41,1.206599422
19.808642,11,5,-1,17,63,-56,18,26,1.206599422
19.808674,-25,5,2,6,-23,-45,-15,32,1.206599422
19.818461,-13,-69,-8,-24,59,-15,5,-77,1.206599422
19.818485,49,-97,-4,2,-96,-9,50,58,1.206599422
19.832646,-80,-27,-4,10,51,75,73,-6,1.206599422
19.835112,-73,40,6,1,9,-28,-65,32,1.206599422
19.835126,-15,-13,-10,-12,-20,18,20,6,1.206599422
19.835128,-9,67,1,-1,19,-27,4,-54,1.206599422
19.855250,44,-71,5,-18,-86,6,15,61,1.206599422
19.855283,7,-25,5,17,24,49,25,102,1.206599422
19.856318,-22,70,5,-12,-77,-17,10,-37,1.206599422
19.856335,-19,-4,-2,9,65,39,-9,16,1.206599422
19.868537,9,54,0,-11,-44,-55,-8,-14,1.206599422
19.868551,45,23,-4,-8,-1,1,15,-30,1.206599422
19.880459,-8,-49,-1,-6,-18,-6,-19,5,1.206599422
19.880469,-13,1,4,1,45,38,6,-7,1.206599422
19.892510,-43,10,-5,3,-3,-73,-15,-69,1.206599422
19.892535,36,11,8,15,6,95,34,2,1.206599422
19.894968,-17,16,-3,3,85,57,3,53,1.206599422
19.894979,-50,-59,-11,-7,-27,-93,-13,-27,1.206599422
19.917030,-1,-64,3,-15,18,69,9,17,1.206599422
19.917041,40,56,1,-20,-16,-22,-43,8,1.206599422
19.917045,9,68,9,3,26,-12,8,-76,1.206599422
19.917047,4,41,7,-17,-84,-9,10,-74,1.206599422
19.928683,5,-35,-6,22,38,-16,-23,30,1.206599422
19.928707,-16,-28,-4,-4,27,-16,18,-11,1.206599422
19.939115,36,75,9,-8,10,11,1,-13,1.206599422
19.939133,-11,-59,-10,-15,1,-16,-9,-34,1.206599422
19.952350,21,66,-2,-4,-28,12,-13,-19,1.206599422
19.954183,-31,-24,-4,-28,-110,-18,1,-35,1.249908730
19.954200,57,-3,-2,46,64,-40,-18,11,1.249908730
19.954206,-37,61,4,19,3,93,1,13,1.249908730
19.975218,-17,-18,0,-22,-59,-18,0,12,1.249908730
19.975249,-21,-74,-10,-12,67,40,-17,55,1.249908730
19.977744,-33,-15,4,-8,-73,-27,15,-6,1.249908730
19.977755,53,53,-3,1,-90,37,23,8,1.249908730
19.988604,-15,32,-1,12,117,26,-29,-8,1.249908730
19.988630,-54,-37,0,-13,-57,-45,-8,-15,1.249908730
19.999236,-2,-63,-17,-24,-19,18,35,60,1.249908730
19.999250,1,-43,1,5,81,-19,-15,-32,1.249908730
20.013052,22,76,3,-4,-60,-7,-2,-6,1.249908730
20.013070,1,-24,1,13,-11,-16,16,-5,1.249908730
