timestamp,emg1,emg2,emg3,emg4,emg5,emg6,emg7,emg8,label
10.014670,-29,-14,-41,1,2,-67,5,-93,2.681630610
10.014810,1,-107,-13,-28,-48,42,-73,-28,2.681630610
10.016179,63,17,4,36,-69,-48,-3,19,2.681630610
10.016201,-95,-58,-14,-35,-7,11,-21,-7,2.681630610
10.037658,33,28,14,-39,-74,-1,81,-5,2.681630610
10.037679,15,94,33,70,102,-36,6,84,2.681630610
10.040408,-63,-122,-40,-28,-68,99,2,-67,2.681630610
10.040421,-55,-19,-1,3,81,-50,2,24,2.681630610
10.051214,24,27,6,22,-38,-77,-36,13,2.681630610
10.051243,-4,13,-7,-19,66,85,14,-30,2.681630610
10.059795,-23,47,12,-7,5,-26,14,-19,2.681630610
10.059819,20,-34,-1,-8,-77,18,8,3,2.681630610
10.074655,23,29,-7,-3,-45,11,-19,-54,2.681630610
10.074668,-48,54,3,5,24,27,38,-29,2.681630610
10.076163,37,2,7,-5,66,-12,-78,-67,2.681630610
10.076200,-11,18,-12,10,-63,-6,9,-37,2.681630610
10.097132,-20,-9,7,-54,-88,70,-50,5,2.681630610
10.097900,70,-41,-11,11,77,-107,43,-2,2.681630610
10.098608,-106,14,9,23,89,33,9,13,2.681630610
10.098620,39,69,13,19,-110,24,42,-60,2.681630610
10.111054,6,-113,-8,4,127,-24,-10,50,2.681630610
10.112351,13,127,5,18,-128,60,-28,-23,2.681630610
10.127349,-3,-91,-10,-8,-68,-32,26,-25,2.681630610
10.127381,19,-29,2,2,62,-38,-15,2,2.681630610
10.138744,-18,81,9,9,31,16,2,69,2.681630610
10.138762,-7,-80,-6,-38,16,51,-2,0,2.681630610
10.138765,-16,-52,-2,-10,47,-12,33,-26,2.681630610
10.138768,-67,4,-18,-6,-47,4,-27,8,2.681630610
10.157254,13,-27,1,-2,-26,-84,-7,-7,2.681630610
10.157279,-87,20,-14,-48,44,18,-39,-18,2.681630610
10.159308,88,83,7,13,-57,35,0,34,2.681630610
10.159319,-7,-77,7,22,126,67,11,19,2.681630610
10.171228,26,34,-22,-12,-56,48,14,-1,2.681630610
10.171249,96,21,28,47,41,36,-19,21,2.681630610
10.182405,-25,-69,-18,-18,-57,40,31,63,2.681630610
10.182414,68,102,0,-7,39,-11,-10,51,2.681630610
10.194803,-34,39,5,19,8,-42,-3,-23,2.681630610
10.194832,41,-116,-15,-14,2,-20,4,-28,2.681630610
10.196309,26,55,19,-1,28,35,7,20,2.681630610
10.196332,-49,-117,-34,-34,-74,-76,-29,-67,2.681630610
10.217250,-61,-7,2,26,82,35,-9,-26,2.681630610
10.217271,7,88,18,-7,-128,-39,2,14,2.681630610
10.218826,43,-22,5,34,-22,14,53,15,2.681630610
10.218850,-1,68,3,-31,-67,-19,-58,37,2.681630610
10.230854,-41,-107,-8,0,26,-99,68,-29,2.681630610
10.230880,-38,34,-6,-19,-110,93,-1,-18,2.681630610
10.241525,24,127,6,58,82,35,-20,21,2.659867795
10.241537,-22,28,5,-12,-42,22,47,7,2.659867795
10.254866,72,93,19,51,5,17,-7,61,2.659867795
10.254897,7,57,-1,-19,-22,-26,5,48,2.659867795
10.256319,-106,-93,-27,-60,-109,-76,-24,49,2.659867795
10.256341,41,101,0,6,68,-5,-6,-1,2.659867795
10.277173,-6,56,-2,0,-26,33,6,-8,2.659867795
10.277226,71,40,24,2,-7,-78,16,-14,2.659867795
10.278629,-83,-92,-30,-18,103,30,4,-64,2.659867795
10.278638,31,-53,9,17,-10,-16,-36,3,2.659867795
10.292775,-4,-62,-15,3,66,-22,-24,-31,2.659867795
10.292787,14,-11,4,-4,-48,-126,1,-9,2.659867795
10.300747,37,65,13,7,83,98,-66,-70,2.659867795
10.300760,-8,-91,-21,22,71,80,103,-3,2.659867795
10.314683,-27,5,-1,-26,-72,-23,-3,3,2.659867795
10.315606,-29,-95,-12,3,61,30,-7,-5,2.659867795
10.316133,37,118,9,-18,-28,-55,8,2,2.659867795
10.316174,-81,55,10,3,-9,-58,-50,-57,2.659867795
10.337725,62,-7,-3,-12,-79,31,-23,33,2.659867795
10.337752,-18,-41,-9,-8,77,-4,-6,-54,2.659867795
10.340686,-63,-52,-9,-28,-4,-1,6,-10,2.659867795
10.340698,-31,-36,22,41,7,-24,-25,15,2.659867795
10.359794,34,-28,-12,-44,-100,75,76,-29,2.659867795
10.359822,-19,109,19,65,70,-4,-94,10,2.659867795
10.361272,-16,-66,-10,-27,-94,-23,37,12,2.659867795
10.361299,20,3,-13,1,24,-75,-25,-56,2.659867795
10.374769,16,17,10,3,24,58,47,21,2.659867795
10.374785,-23,-56,-10,-6,66,-17,1,-5,2.659867795
10.376191,70,-21,12,30,8,61,11,21,2.659867795
10.376269,-63,-79,-22,-35,-76,-5,-13,-12,2.659867795
10.404712,55,88,3,-14,-35,-37,-33,-65,2.659867795
10.404758,54,64,6,-6,-63,49,23,28,2.659867795
10.406374,-12,50,-2,5,18,-61,-11,53,2.659867795
10.406399,-17,-62,1,-10,-72,4,7,67,2.659867795
10.419617,74,74,29,18,124,74,-12,-10,2.659867795
10.419653,-109,-81,-52,-31,-91,-68,0,-52,2.659867795
10.421156,81,73,16,2,-72,-34,6,-28,2.659867795
10.421192,45,51,-3,29,63,-8,-40,57,2.659867795
10.434766,-37,45,7,-3,52,-1,71,-3,2.659867795
10.434781,-43,36,6,20,127,-42,-56,-46,2.659867795
10.436181,61,47,5,5,-24,111,71,-14,2.659867795
10.436199,-16,34,1,-24,-5,-25,-52,-5,2.659867795
10.457198,-16,-31,7,8,23,-97,-3,69,2.659867795
10.457217,43,-13,0,72,48,93,18,0,2.659867795
10.459214,5,22,6,2,-32,-67,-45,53,2.659867795
10.459225,38,-72,-6,-2,-76,17,40,3,2.659867795
10.480880,-72,-20,-11,-15,-68,-22,-39,-15,2.659867795
10.480898,44,34,9,-41,-88,-15,11,26,2.659867795
10.481485,54,-3,2,5,-2,16,-25,85,2.659867795
10.481526,11,37,12,9,33,28,30,-50,2.659867795
10.494041,-38,-76,-10,22,-49,66,-14,-5,2.706110959
10.494055,-20,-36,-7,-39,-106,-76,2,46,2.706110959
10.501150,-13,31,15,22,94,46,36,-94,2.706110959
10.501182,-57,-80,-5,-55,-30,-17,-12,-32,2.706110959
10.517716,2,-101,-35,-70,-77,-74,10,-21,2.706110959
10.517812,-16,-9,18,91,65,115,35,-7,2.706110959
10.519999,-42,36,-13,-48,-99,-47,5,-62,2.706110959
10.520006,40,39,1,-6,-73,-62,-4,52,2.706110959
10.540079,83,63,11,7,-14,-7,-8,-6,2.706110959
10.540107,-9,51,-1,-51,-37,-26,1,-21,2.706110959
10.542220,4,-61,-16,-12,-16,-47,-29,-11,2.706110959
10.542233,-18,-79,8,29,65,77,57,6,2.706110959
10.554788,-61,73,-12,3,40,-15,-31,3,2.706110959
10.554836,93,-11,-2,-18,-14,15,-1,48,2.706110959
10.561026,11,66,6,-2,-62,15,-18,-5,2.706110959
10.561348,-50,-49,-42,-35,72,-47,5,-12,2.706110959
10.577234,93,13,-2,62,96,54,6,74,2.706110959
10.577279,-45,24,10,-37,10,24,15,-17,2.706110959
10.578924,32,43,-1,24,-12,-56,10,31,2.706110959
10.578948,96,127,45,-40,-128,88,-22,31,2.706110959
10.599908,-57,-79,-36,30,127,16,6,-113,2.706110959
10.599941,-9,27,-4,-9,-11,2,22,-12,2.706110959
10.602795,3,-56,4,-20,-82,12,-26,12,2.706110959
10.602805,-22,80,-9,-11,84,-36,-24,-24,2.706110959
10.614323,-20,-6,11,2,-44,23,-21,-55,2.706110959
10.614341,28,-58,-4,-23,-105,-38,-25,-15,2.706110959
10.621029,-88,-58,-12,-3,30,-13,17,-25,2.706110959
10.621051,-24,17,2,9,66,5,-10,12,2.706110959
10.637102,-97,-54,6,11,3,26,-2,11,2.706110959
10.637111,-105,-56,-12,-18,-75,-65,0,-12,2.706110959
10.638793,-66,-59,-7,-3,66,22,11,10,2.706110959
10.638819,91,102,13,44,-34,-32,-63,-2,2.706110959
10.658965,30,82,22,-8,58,69,60,19,2.706110959
10.660005,48,70,-13,10,20,-57,-29,-18,2.706110959
10.667759,22,-30,-20,-20,108,-7,-15,-79,2.706110959
10.667776,55,-71,7,29,-71,-16,60,45,2.706110959
10.674027,-10,28,38,9,-97,-35,-23,7,2.706110959
10.674052,-45,-74,-41,-31,-13,49,-26,22,2.706110959
10.681239,21,102,21,20,20,39,-7,-1,2.706110959
10.681266,-11,-87,-24,-9,-1,-90,7,-18,2.706110959
10.699247,13,78,2,-18,-75,-8,20,3,2.706110959
10.699255,-96,-94,2,-15,-79,-38,-55,-34,2.706110959
10.699258,-13,-17,-3,4,-63,-29,34,-19,2.706110959
10.699261,-50,51,18,22,112,92,23,74,2.706110959
10.720234,-26,-43,-16,11,-30,-43,17,3,2.706110959
10.720267,39,1,-1,-9,-78,27,33,5,2.706110959
10.722700,42,23,6,35,3,-70,-8,-16,2.706110959
10.722720,4,-19,9,23,-48,83,23,17,2.706110959
10.734711,-18,4,-7,-34,-62,-19,-28,-9,2.706110959
10.734754,92,72,-1,-10,30,10,16,7,2.706110959
10.748330,45,-37,-6,-18,-70,-34,0,61,2.698877717
10.748347,-62,83,5,8,62,24,4,-22,2.698877717
10.757284,48,-64,-6,-1,20,-20,-51,8,2.698877717
10.757318,13,87,27,17,25,8,39,-7,2.698877717
10.758981,-120,-111,-19,-56,-98,-13,-41,-12,2.698877717
10.759044,-39,-66,-26,14,76,54,4,-9,2.698877717
10.780055,50,4,3,20,23,-38,42,87,2.698877717
10.780081,-18,37,10,-19,-27,-54,-92,-27,2.698877717
10.781162,12,46,-5,67,72,-34,105,-18,2.698877717
10.781179,-60,2,-10,-39,34,-10,-51,19,2.698877717
10.794051,-13,-5,-3,-18,17,13,-10,11,2.698877717
10.794076,-20,-64,11,17,107,-1,38,33,2.698877717
10.800854,13,114,20,-10,81,65,-40,-22,2.698877717
10.804957,-13,-73,-29,-8,-22,-36,-7,-46,2.698877717
10.817861,69,-28,-22,-7,40,12,8,-59,2.698877717
10.817906,109,86,9,14,26,38,20,67,2.698877717
10.821400,-30,-76,-12,-13,-14,39,-41,-9,2.698877717
10.821413,60,51,12,-22,-99,-59,-22,74,2.698877717
10.839880,-35,-55,-14,4,1,-30,-22,-22,2.698877717
10.839899,-30,65,-6,21,64,26,48,-68,2.698877717
10.845805,17,-37,-2,-15,-72,-52,-63,33,2.698877717
10.845823,-7,15,5,-21,8,19,39,-37,2.698877717
10.854708,1,44,5,-44,-90,82,-29,-3,2.698877717
10.854725,72,-34,9,13,-77,-64,-14,6,2.698877717
10.862666,1,53,8,47,127,29,20,11,2.698877717
10.862673,70,7,2,-10,-128,11,11,-90,2.698877717
10.877173,-4,-15,-24,-22,64,-2,-47,-26,2.698877717
10.877204,-22,23,4,28,21,-33,35,21,2.698877717
10.879447,13,54,4,-14,-55,38,2,-3,2.698877717
10.879456,45,66,-2,-3,3,-34,-6,-28,2.698877717
10.901108,27,1,19,26,33,3,-19,10,2.698877717
10.901117,-5,-46,-17,-48,-117,23,-6,30,2.698877717
10.901232,-111,-57,-3,-1,24,-104,-13,-18,2.698877717
10.901279,58,63,14,-4,30,116,26,-1,2.698877717
10.913656,34,65,20,4,-72,-66,-23,-8,2.698877717
10.913688,-34,58,-21,5,100,114,25,-7,2.698877717
10.925094,-45,11,0,-17,15,13,13,-22,2.698877717
10.925112,88,-91,-15,6,-69,-92,-47,-24,2.698877717
10.937912,-85,-44,-10,21,13,-4,10,6,2.698877717
10.937943,13,-78,8,-3,32,49,54,5,2.698877717
10.941112,8,12,-1,-1,-10,11,-2,-1,2.698877717
10.941125,48,127,12,-4,-61,-16,-17,50,2.698877717
10.959734,-73,-49,-48,-19,-50,-11,-12,-39,2.698877717
10.959753,47,45,4,-26,-28,-23,-6,0,2.698877717
10.962325,113,-15,18,25,9,39,9,-6,2.698877717
10.962337,-54,-21,-1,23,-40,-83,35,32,2.698877717
10.973481,83,-1,7,-51,-95,44,-16,-7,2.698877717
10.973503,-58,48,4,81,79,68,49,-12,2.698877717
10.983641,19,54,-3,-10,23,-99,-30,7,2.698877717
10.983654,-50,-47,-1,1,-17,109,40,-9,2.698877717
10.997205,-15,45,22,-6,-52,-104,-29,18,2.698877717
10.997228,2,-9,7,44,37,92,6,58,2.698877717
10.998810,-45,26,-9,-19,-18,-15,-24,17,2.698877717
10.998831,-18,-79,-4,31,52,-15,-34,-21,2.698877717
11.019930,-2,24,4,-13,-43,-39,18,6,2.588238437
11.019971,2,-54,-12,-48,-80,-76,-40,-24,2.588238437
11.026105,-41,34,-4,13,-2,53,31,-18,2.588238437
11.026140,-70,75,21,0,21,-38,-21,19,2.588238437
11.033737,-77,-67,-27,-4,64,-11,10,-1,2.588238437
11.033763,40,-115,-11,-8,-30,-11,-14,65,2.588238437
11.044087,-35,-27,9,15,-51,66,16,-47,2.588238437
11.044105,25,71,9,-12,-19,20,-48,-54,2.588238437
11.057628,120,127,23,16,127,-69,109,111,2.588238437
11.057647,-102,-61,-27,31,34,-10,-86,-85,2.588238437
11.063365,127,84,12,-39,-71,-22,29,83,2.588238437
11.063388,-66,-93,-14,16,127,70,-33,-16,2.588238437
11.080187,45,-9,-6,26,12,94,40,-32,2.588238437
11.080262,-15,-56,-3,-42,-54,-39,-31,-67,2.588238437
11.082241,36,12,1,-10,-67,-25,-7,11,2.588238437
11.082247,25,-11,5,-14,-64,-74,16,-6,2.588238437
11.093818,-40,-70,-19,7,22,55,-24,-20,2.588238437
11.093850,-4,48,16,-13,-90,-15,38,-44,2.588238437
11.102365,30,-30,-11,-14,2,11,-22,7,2.588238437
11.102374,-1,-71,-14,1,-18,-11,38,0,2.588238437
11.119550,-14,-32,11,11,40,-1,0,-13,2.588238437
11.119558,-7,58,4,-10,28,-39,-19,42,2.588238437
11.119561,57,47,-5,20,127,-22,65,-9,2.588238437
11.119564,36,8,13,51,-86,62,45,4,2.588238437
11.139752,-14,34,-8,8,-85,-13,-2,-21,2.588238437
11.139793,4,14,-3,-44,86,-87,-40,-59,2.588238437
11.142544,-29,28,-1,9,104,97,24,86,2.588238437
11.142555,107,-24,-1,-8,18,19,-27,-29,2.588238437
11.162809,-57,11,21,13,-63,-8,-2,8,2.588238437
11.162865,20,27,8,-17,-89,41,15,19,2.588238437
11.164958,7,-85,-28,-8,-29,-35,-5,-48,2.588238437
11.164967,-114,-100,-26,-14,4,-27,-12,-28,2.588238437
11.177345,37,100,12,16,-30,46,-32,43,2.588238437
11.177388,26,38,8,-9,-26,-39,49,1,2.588238437
11.180503,46,-7,6,16,89,84,-39,18,2.588238437
11.180514,-6,127,0,-19,-31,-107,46,-67,2.588238437
11.199954,9,14,12,19,38,-64,-26,-4,2.588238437
11.200017,39,-24,-1,19,41,8,-11,71,2.588238437
11.201215,-5,-81,24,10,-15,95,47,-22,2.588238437
11.203108,-65,-42,-57,-2,-86,-43,-32,10,2.588238437
11.213257,86,87,-1,-28,-46,-77,31,-16,2.588238437
11.213294,0,80,12,-29,23,31,-24,-7,2.588238437
11.224133,-98,-77,-51,18,-128,-59,-33,-19,2.588238437
11.224142,59,125,23,-8,-3,24,-6,23,2.588238437
11.237700,84,56,19,-3,14,22,7,13,2.588238437
11.237726,-2,-61,-34,11,-102,-16,8,7,2.588238437
11.240771,53,120,23,-9,35,-10,11,78,2.588238437
11.240782,-12,37,-14,12,44,38,24,34,2.588238437
11.259578,20,6,-4,-8,-108,-53,-19,-49,2.639614720
11.259593,15,49,18,-17,27,57,35,7,2.639614720
11.261584,-10,-25,-3,-15,27,-47,-65,-75,2.639614720
11.261601,12,-90,-3,-42,-87,-75,10,1,2.639614720
11.274297,-25,16,18,41,127,81,6,-12,2.639614720
11.274311,-58,-118,-22,9,-32,12,-53,-33,2.639614720
11.283609,-28,9,-1,14,-75,-47,42,-30,2.639614720
11.283626,121,127,43,-9,-5,-21,-34,37,2.639614720
11.297211,-128,-128,-75,-52,-99,-12,-24,-82,2.639614720
11.298315,39,122,-4,-6,12,11,-65,-32,2.639614720
11.298630,8,75,11,27,113,-24,-13,23,2.639614720
11.298645,78,-36,9,-37,-60,-4,38,9,2.639614720
11.320931,-37,-48,0,23,86,38,-11,14,2.639614720
11.320940,57,31,15,14,93,-74,30,15,2.639614720
11.321119,-35,-75,-30,-9,42,-32,-21,-85,2.639614720
11.321127,50,50,2,-6,-4,92,-45,41,2.639614720
11.342224,27,45,0,3,-43,-43,-20,-39,2.639614720
11.343493,19,119,33,11,-8,-4,60,-59,2.639614720
11.344083,64,-77,2,-5,76,59,-19,33,2.639614720
11.344105,-7,24,-16,-1,-39,-8,16,-24,2.639614720
11.357447,117,99,71,10,-1,19,-2,40,2.639614720
11.359174,-5,-69,-68,-14,-74,-9,-40,-96,2.639614720
11.359188,44,115,9,-35,-22,-62,24,22,2.639614720
11.359191,-17,-12,-5,-8,66,32,21,-7,2.639614720
11.379617,59,23,21,53,21,-16,-46,9,2.639614720
11.379635,-18,-13,11,22,97,110,71,82,2.639614720
11.382498,-24,-29,9,-18,-51,-79,-46,11,2.639614720
11.382507,-61,-58,-6,42,39,-77,16,-2,2.639614720
11.402722,10,9,-11,-35,-60,112,-15,-40,2.639614720
11.402746,-108,-78,-1,29,90,63,-1,11,2.639614720
11.405642,22,92,-11,-18,-112,6,-11,-51,2.639614720
11.405660,-53,-13,-4,-2,39,-5,-4,-61,2.639614720
11.417967,65,32,1,5,-34,-30,3,51,2.639614720
11.417992,66,-70,-8,-13,-28,-74,-24,80,2.639614720
11.418943,64,91,23,5,-85,28,38,23,2.639614720
11.418964,-19,104,26,-14,-6,12,7,-33,2.639614720
11.439782,-85,-101,-76,-39,16,-30,-27,-85,2.639614720
11.439874,33,-74,-19,-15,-128,3,55,-18,2.639614720
11.442178,16,14,-1,-11,-39,-73,-39,23,2.639614720
11.442189,119,121,11,9,78,98,25,43,2.639614720
11.462121,-64,-103,-7,15,46,1,-20,6,2.639614720
11.462161,20,107,30,23,-16,29,23,29,2.639614720
11.464053,-92,-125,-14,7,-31,-5,-1,39,2.639614720
11.464164,-10,-100,-32,-43,-1,14,-19,-38,2.639614720
11.476579,28,127,25,-6,-96,-69,71,21,2.639614720
11.476594,21,7,13,4,43,49,1,-2,2.639614720
11.483353,-12,61,4,10,14,-12,-26,-32,2.639614720
11.483384,-70,-64,-1,22,60,-14,-28,16,2.639614720
11.499673,85,22,-19,-3,-27,-32,14,110,2.639614720
11.499697,8,2,4,-19,-13,17,-62,-19,2.639614720
11.501259,-13,2,-9,3,3,-67,54,-15,2.639614720
11.501272,-4,42,8,17,5,63,32,1,2.639614720
11.524029,-19,-23,7,-4,81,43,43,-12,2.591343546
11.524086,-23,27,-4,-12,5,-112,-80,-18,2.591343546
11.524089,64,92,24,43,80,127,-38,83,2.591343546
11.524092,-40,-42,-16,14,-94,-107,-36,-9,2.591343546
11.537536,-103,-57,-2,-29,67,101,43,-3,2.591343546
11.537568,47,50,-4,3,79,-40,10,26,2.591343546
11.543318,25,32,-6,-40,-74,-45,16,-64,2.591343546
11.543381,40,54,12,25,127,13,-9,89,2.591343546
11.559668,-20,21,-4,8,30,-19,-42,-26,2.591343546
11.559690,30,93,10,-4,-42,20,25,-13,2.591343546
11.561361,-22,46,14,-2,-31,3,21,10,2.591343546
11.562194,-76,-88,-80,-41,-120,16,-52,-56,2.591343546
11.583257,37,98,3,-14,-44,-53,88,-16,2.591343546
11.583274,-14,101,-3,20,82,86,-12,-10,2.591343546
11.585520,78,64,24,8,-85,38,17,-7,2.591343546
11.585531,-48,-58,-17,-11,-92,-6,43,-1,2.591343546
11.596546,37,72,10,-3,28,-53,-13,-35,2.591343546
11.596577,-2,51,-9,6,-101,21,-17,-77,2.591343546
11.603291,-20,25,0,17,70,31,-17,-19,2.591343546
11.603336,55,64,35,-9,53,31,9,49,2.591343546
11.619605,-20,-109,-11,15,-42,-44,-11,-15,2.591343546
11.619641,-30,-21,-1,-17,33,-2,34,2,2.591343546
11.621330,-22,-128,-6,-21,-40,44,19,1,2.591343546
11.621440,-4,-12,12,49,127,69,30,-11,2.591343546
11.641500,32,91,2,-28,-73,-41,-59,35,2.591343546
11.641518,-16,102,56,29,-54,-27,-4,51,2.591343546
11.650528,-21,-128,-59,-8,-48,6,3,-36,2.591343546
11.650542,48,32,-11,-11,20,-38,-10,-30,2.591343546
11.656661,-11,46,7,7,86,49,6,-52,2.591343546
11.656680,3,-43,1,17,92,-49,-8,3,2.591343546
11.663747,37,20,12,-12,98,-2,-1,12,2.591343546
11.663786,5,-5,2,-3,-107,16,-11,-12,2.591343546
11.679917,47,27,17,27,29,-45,5,-56,2.591343546
11.679925,57,-88,-22,4,27,-4,31,-38,2.591343546
11.681078,35,0,-2,-9,-66,12,17,20,2.591343546
11.681085,116,123,50,14,13,-18,-38,21,2.591343546
11.702629,-6,-128,-35,-5,-75,127,-31,70,2.591343546
11.702656,-55,-128,-45,-50,-27,-114,-16,-6,2.591343546
11.704926,32,93,9,24,89,-30,-7,21,2.591343546
11.704938,18,127,21,-31,-109,45,24,3,2.591343546
11.716513,-15,-61,-7,8,-66,-47,1,74,2.591343546
11.716602,-38,47,-5,13,26,66,11,-3,2.591343546
11.723561,-65,-128,-44,-41,51,-55,-56,-39,2.591343546
11.723585,19,27,6,38,110,65,13,44,2.591343546
11.741435,-40,22,31,27,-25,-69,70,6,2.591343546
11.741454,30,72,17,-15,-77,-12,-56,16,2.591343546
11.741460,8,-33,-29,-2,-45,-2,11,-8,2.591343546
11.741465,2,20,-2,-13,48,-50,18,-35,2.591343546
11.762135,-30,-45,-10,-25,-2,13,-27,15,2.591343546
11.762161,42,58,10,12,-11,41,46,-42,2.591343546
11.763694,-12,59,13,-7,-38,-27,-37,-23,2.591343546
11.763742,-80,-97,-15,-16,-1,29,-23,-28,2.591343546
11.776514,48,30,-5,9,-36,26,2,57,2.605305275
11.776533,-17,-47,-7,-35,-82,-41,-17,0,2.605305275
11.783933,-22,9,13,51,99,51,33,-18,2.605305275
11.783963,-21,52,-15,-9,-83,60,-21,28,2.605305275
11.800218,-28,-35,-20,-21,7,-37,26,31,2.605305275
11.800250,31,73,9,1,-59,-44,10,31,2.605305275
11.803391,-36,-17,-2,1,30,41,-3,26,2.605305275
11.803403,70,-38,6,16,29,-86,39,-7,2.605305275
11.822199,48,76,20,-11,8,22,-26,-38,2.605305275
11.822235,29,-64,-10,-5,-37,-14,6,3,2.605305275
11.823842,-13,95,7,-4,-14,18,7,-52,2.605305275
11.824027,-60,-114,-34,-15,-105,-66,-29,-82,2.605305275
11.835762,9,-42,-33,-20,42,28,-21,-36,2.605305275
11.835799,18,48,6,6,-85,8,4,47,2.605305275
11.846558,39,98,18,29,65,-16,14,-11,2.605305275
11.846569,91,120,37,1,11,-77,18,11,2.605305275
11.861375,-105,-72,-11,5,16,95,31,-12,2.605305275
11.861399,41,89,-27,-38,-84,-36,-68,-69,2.605305275
11.863456,60,86,14,36,21,0,30,42,2.605305275
11.863463,7,20,-10,-54,-128,-55,-53,-5,2.605305275
11.882131,33,99,26,47,106,60,39,13,2.605305275
11.882169,-114,-89,-4,7,55,10,21,-58,2.605305275
11.883596,12,29,-2,-48,-123,-41,-18,41,2.605305275
11.883603,-116,-107,-38,-48,-45,-22,4,-18,2.605305275
11.895823,20,46,1,48,90,-9,-26,-32,2.605305275
11.895836,-20,10,7,31,92,31,-1,18,2.605305275
11.907308,48,-28,4,-34,-119,-64,4,45,2.605305275
11.907325,52,18,12,28,20,43,-10,88,2.605305275
11.920108,-22,-50,-2,-15,51,62,-8,-13,2.605305275
11.920140,-46,-105,-15,-9,-57,-18,9,0,2.605305275
11.922923,-9,-55,8,29,73,-23,45,-2,2.605305275
11.922937,93,122,7,-4,44,-18,-1,-38,2.605305275
11.944171,-80,-80,-19,-35,-105,-54,-8,-6,2.605305275
11.944274,67,98,24,15,110,32,7,-10,2.605305275
11.944278,-96,-9,-4,-1,-68,8,-23,17,2.605305275
11.944280,23,17,-24,31,127,29,77,54,2.605305275
11.956208,97,127,26,-28,-93,-29,-59,-9,2.605305275
11.956240,-69,-14,-10,20,62,-30,6,5,2.605305275
11.974334,38,-38,13,11,-93,-1,-31,-39,2.605305275
11.974348,-14,19,9,15,113,21,25,5,2.605305275
11.979730,47,74,25,-6,-107,-27,-83,43,2.605305275
11.979754,13,63,-12,0,42,22,101,21,2.605305275
11.981166,-25,39,-7,-12,68,107,-46,-2,2.605305275
11.981177,-5,41,9,0,-109,-110,23,0,2.605305275
12.002766,45,8,-6,7,127,64,5,-21,2.605305275
12.002791,-46,28,9,12,-106,-27,0,5,2.605305275
12.004930,-17,-46,-24,-29,98,-18,-10,9,2.605305275
12.004943,25,-44,3,1,-38,11,13,-61,2.605305275
12.016282,76,-37,18,-3,-28,-46,15,1,2.605305275
12.016371,29,26,-7,-13,-8,15,-19,-3,2.605305275
12.025712,-36,-66,-14,-11,35,-7,12,-82,2.605305275
12.025723,10,29,20,15,8,28,-29,1,2.605305275
12.039716,-57,14,1,-28,-113,-44,26,-22,2.608049853
12.039734,75,-32,-17,4,26,26,-73,49,2.608049853
12.041274,68,127,7,38,36,-65,-12,-14,2.608049853
12.041288,-15,-108,2,-48,-90,3,2,49,2.608049853
12.062479,-77,-28,10,51,76,-54,-23,6,2.608049853
12.064386,-23,-70,5,71,85,53,20,80,2.608049853
12.064394,7,78,6,-31,-120,-12,21,27,2.608049853
12.064396,-34,-55,-15,28,-68,22,8,2,2.608049853
12.075899,88,3,-8,-48,35,-35,4,-23,2.608049853
12.075930,-47,54,3,-35,-55,10,-27,-23,2.608049853
12.086732,-71,-128,-18,2,14,3,-23,-18,2.608049853
12.086741,-37,9,4,18,58,11,1,6,2.608049853
12.102130,29,12,5,3,-35,15,39,-10,2.608049853
12.102142,29,57,23,-3,12,-23,-14,26,2.608049853
12.102144,16,32,-2,-11,-50,-25,16,24,2.608049853
12.102147,-27,-56,-22,-23,-99,-31,-68,12,2.608049853
12.122509,-91,41,-3,32,105,61,5,19,2.608049853
12.122534,47,26,0,-13,-49,-29,10,-6,2.608049853
12.124695,5,-22,14,24,-80,-49,17,1,2.608049853
12.124712,-50,-13,3,-53,-34,39,-21,-88,2.608049853
12.135900,-60,-96,-10,68,62,-73,-15,14,2.608049853
12.135924,-39,-46,1,-26,-40,90,28,13,2.608049853
12.146282,-104,-90,-8,11,115,127,-25,-56,2.608049853
12.146294,66,87,-2,4,25,-68,7,-16,2.608049853
12.159870,11,67,0,-21,-112,-6,5,12,2.608049853
12.159903,-51,8,1,-14,21,-9,30,-78,2.608049853
12.163535,-19,-65,-7,-16,-26,-40,-18,-4,2.608049853
12.163546,1,69,18,29,25,36,15,-24,2.608049853
12.182162,9,-36,-17,-9,0,23,-12,12,2.608049853
12.182176,115,87,13,2,-92,-65,10,-25,2.608049853
12.184228,25,-64,-33,-27,-58,28,34,-5,2.608049853
12.184234,19,78,11,43,127,9,-12,84,2.608049853
12.195988,1,-58,6,19,-75,55,9,32,2.608049853
12.196008,21,57,-1,-32,5,-110,-2,-19,2.608049853
12.207236,75,-51,-3,36,54,108,-80,-7,2.608049853
12.207249,67,111,33,-6,-39,28,47,29,2.608049853
12.219663,8,-83,-45,-44,-62,-63,-22,-47,2.608049853
12.219677,14,-32,-7,15,-39,85,7,29,2.608049853
12.221507,-31,44,8,-11,-58,-65,-25,7,2.608049853
12.221522,-7,-24,-6,2,-5,27,30,32,2.608049853
12.242454,15,97,25,-2,26,26,35,46,2.608049853
12.242487,-14,-61,-9,-7,80,-23,-43,-14,2.608049853
12.243773,-41,27,8,7,43,-74,31,-5,2.608049853
12.243797,18,-27,1,23,29,36,-11,-87,2.608049853
12.265111,-5,40,-13,-27,-96,-11,-30,6,2.608049853
12.265147,27,63,4,-33,-42,-100,-1,62,2.608049853
12.267790,5,5,0,14,124,41,-27,2,2.608049853
12.267797,9,20,-22,-12,-18,49,-11,-23,2.608049853
12.279926,-27,-14,-5,-42,-81,-47,-6,-5,2.608049853
12.279969,59,13,17,5,112,-19,-22,37,2.608049853
12.281903,89,127,19,19,-126,47,26,56,2.608049853
12.281915,-19,-15,-5,-16,-17,-66,-37,-4,2.608049853
12.304620,58,62,-1,-8,5,44,21,-23,2.577598136
12.304637,-75,-84,-17,-25,-23,-1,-9,-47,2.577598136
12.304643,-12,115,2,-21,27,-5,41,5,2.577598136
12.304649,8,-74,-1,24,57,-16,-3,36,2.577598136
12.324770,-8,-30,-5,-5,-19,-17,-22,-16,2.577598136
12.326676,34,48,10,10,-28,-43,7,-39,2.577598136
12.326690,16,-60,-26,-28,18,74,-46,-78,2.577598136
12.326692,-88,-2,2,-41,-110,-74,-45,-81,2.577598136
12.339847,11,-6,16,58,127,87,16,15,2.577598136
12.339873,37,-66,-7,32,36,66,83,56,2.577598136
12.341927,-98,-55,3,36,-106,0,-25,-24,2.577598136
12.341940,-72,-128,-45,-28,24,-50,13,-35,2.577598136
12.365778,-60,73,28,-1,-35,2,20,37,2.577598136
12.365788,-28,-52,-7,0,-7,3,-66,-24,2.577598136
12.365791,-12,-8,-9,-14,-12,-14,69,-1,2.577598136
12.365793,29,31,19,19,-1,-31,-4,46,2.577598136
12.385224,11,4,-19,-22,0,-12,1,-43,2.577598136
12.385254,-33,31,12,19,-65,26,6,-54,2.577598136
12.387486,27,-62,2,-16,3,-15,21,65,2.577598136
12.387497,-21,45,-15,3,-52,-31,-55,-7,2.577598136
12.399660,14,27,21,-4,104,22,61,-14,2.577598136
12.399682,-42,-32,-25,-7,8,72,-54,-34,2.577598136
12.406211,28,-56,2,44,123,1,10,7,2.577598136
12.406243,30,58,15,28,5,-20,38,28,2.577598136
12.422207,-11,-40,-9,-14,17,3,-42,59,2.577598136
12.422226,29,50,-9,-30,-106,-30,-2,-12,2.577598136
12.424551,-52,-30,-8,-35,-28,-20,-35,35,2.577598136
12.424564,-46,-1,2,20,33,42,50,28,2.577598136
12.445158,-25,76,11,29,-17,-31,-10,-29,2.577598136
12.445191,-54,-128,-47,-21,-16,-26,-2,-8,2.577598136
12.448445,6,94,15,-5,-8,-10,4,-2,2.577598136
12.448457,34,90,11,-13,7,12,-9,-90,2.577598136
12.458981,24,-76,-13,-36,-18,-13,2,0,2.577598136
12.458999,32,101,32,83,124,-9,10,54,2.577598136
12.466393,16,97,5,-41,-106,40,29,-29,2.577598136
12.466426,40,-14,6,62,127,38,-19,67,2.577598136
12.482725,74,-57,-35,0,-9,-50,32,-46,2.577598136
12.482757,23,79,10,-61,-51,108,33,-11,2.577598136
12.484683,48,113,16,10,17,-73,47,-62,2.577598136
12.484689,-14,14,10,-47,49,16,-17,27,2.577598136
12.504481,-28,-76,-22,63,90,48,-36,-19,2.577598136
12.504525,62,1,9,4,-63,-104,-20,23,2.577598136
12.510919,-87,37,-14,-11,30,17,-9,-2,2.577598136
12.510939,-64,21,3,-30,-108,-1,-28,-30,2.577598136
12.518894,5,9,-2,-17,-35,-23,31,-27,2.577598136
12.518941,53,46,26,16,89,3,-18,-78,2.577598136
12.525762,-46,-90,-30,-9,-63,-21,0,-9,2.577598136
12.525785,29,-99,-10,-9,-19,2,21,-41,2.577598136
12.542165,-24,49,8,17,-2,7,-56,-11,2.564785611
12.542183,-39,-54,-10,-13,-68,-36,-54,-28,2.564785611
12.543942,127,100,32,-50,-78,-28,-9,46,2.564785611
12.543953,59,27,-7,63,88,23,-19,-2,2.564785611
12.566245,-30,-12,1,24,68,36,80,6,2.564785611
12.566252,-55,-70,-1,7,79,-21,5,-21,2.564785611
12.566255,15,-1,-3,-7,40,-12,-11,8,2.564785611
12.566257,-77,-112,-28,-15,-13,52,11,-16,2.564785611
12.578281,88,103,15,-23,-121,-95,-66,13,2.564785611
12.578301,-35,-62,-12,12,57,50,32,9,2.564785611
12.586104,54,-33,0,-9,-11,-83,-4,58,2.564785611
12.586136,67,5,-2,-11,-16,25,19,33,2.564785611
12.601591,-47,72,6,0,17,6,-25,-9,2.564785611
12.602905,-75,-120,-17,-12,-61,-27,19,8,2.564785611
12.602915,25,-111,-19,1,-14,69,-19,-58,2.564785611
12.602920,22,2,-7,-19,-102,-26,0,-24,2.564785611
12.624318,-23,9,6,-7,42,-37,12,6,2.564785611
12.626811,32,-2,-12,-26,-5,14,-34,29,2.564785611
12.626822,-23,28,3,34,-37,9,20,15,2.564785611
12.626825,-21,53,9,35,-12,-2,-2,20,2.564785611
12.639090,74,-85,7,-15,-101,-10,26,-1,2.564785611
12.639116,-58,34,-11,-16,-3,-26,-6,-39,2.564785611
12.646088,35,-116,-11,7,95,8,-33,-47,2.564785611
12.646120,-83,67,13,-15,-32,-28,-19,32,2.564785611
12.661568,-50,38,-12,-12,-48,-21,-14,17,2.564785611
12.661577,41,67,16,21,44,25,2,41,2.564785611
12.662526,-17,-17,6,2,-31,4,-3,9,2.564785611
12.662548,88,53,6,-15,-109,-59,34,22,2.564785611
12.684150,-41,-83,-5,-27,9,57,-43,-24,2.564785611
12.684167,73,102,22,24,-29,-59,-38,5,2.564785611
12.686181,-39,7,-10,35,127,104,30,10,2.564785611
12.686194,52,54,16,41,45,109,0,25,2.564785611
12.698747,-30,9,-10,-4,78,-20,27,19,2.564785611
12.698866,47,38,5,-28,-75,-6,75,24,2.564785611
12.706073,57,127,25,17,20,-54,-53,30,2.564785611
12.706092,-22,-101,-24,-24,14,-17,10,-54,2.564785611
12.721611,-35,80,-3,-11,-29,28,6,-14,2.564785611
12.721636,-100,-58,-3,15,-5,-40,-24,18,2.564785611
12.722264,-48,32,-18,-9,-12,-18,6,-101,2.564785611
12.722293,-25,-128,-14,-16,36,20,1,-25,2.564785611
12.744090,-30,-121,-11,-1,-54,-32,-18,-23,2.564785611
12.744114,-17,44,1,-15,26,17,6,-24,2.564785611
12.745672,-27,-13,1,-13,-128,-18,10,0,2.564785611
12.745685,-10,113,12,15,-15,-20,-14,-37,2.564785611
12.758436,29,8,-8,-4,87,-34,-5,-19,2.564785611
12.758454,62,37,-2,9,-89,-49,60,34,2.564785611
12.765923,-48,-6,10,31,118,105,-23,18,2.564785611
12.765949,-3,114,9,-18,-12,35,-66,26,2.564785611
12.781437,60,-72,-24,-5,-40,80,17,-16,2.564785611
12.781455,-101,-88,-28,-22,-57,-28,-15,-50,2.564785611
12.783756,33,39,-3,-31,-40,-52,29,0,2.564785611
12.783773,76,26,9,13,32,24,-23,76,2.564785611
12.804575,-18,59,19,9,-40,-4,-12,-2,2.564411555
12.804600,-16,71,-7,-22,25,47,-6,13,2.564411555
12.805092,41,-94,-13,-16,-36,-43,5,15,2.564411555
12.805113,-106,-87,13,12,12,-37,24,46,2.564411555
12.818677,32,-6,3,-8,4,24,24,-3,2.564411555
12.818707,34,20,-4,-17,-66,-26,-18,31,2.564411555
12.825859,-91,-60,8,32,104,23,27,-12,2.564411555
12.825883,74,48,10,26,31,42,-1,20,2.564411555
12.841443,-1,47,16,14,-65,-17,-30,16,2.564411555
12.841463,40,29,34,35,74,-38,-48,10,2.564411555
12.843351,-56,-10,-18,-36,35,14,28,-64,2.564411555
12.843362,-86,-101,-16,-3,-6,-57,-29,-23,2.564411555
12.863878,-34,-84,-23,-12,9,95,-15,-1,2.564411555
12.863892,89,-65,7,16,2,-82,37,92,2.564411555
12.864947,1,-34,0,-26,-65,92,10,-49,2.564411555
12.864971,-4,70,-10,-8,-6,-64,-9,-18,2.564411555
12.879983,33,99,22,17,16,-15,16,77,2.564411555
12.879997,-34,32,1,15,45,70,2,-20,2.564411555
12.886214,15,-12,5,12,7,-32,-2,85,2.564411555
12.886235,75,47,9,-25,-88,-12,34,-27,2.564411555
12.901845,44,38,-1,-32,-71,-7,-66,-20,2.564411555
12.901874,-98,-18,-26,51,114,35,-11,-86,2.564411555
12.904030,81,50,12,-8,-48,-128,-3,49,2.564411555
12.904043,29,51,6,24,-54,45,21,-12,2.564411555
12.925261,-5,122,16,-9,81,46,53,-7,2.564411555
12.925272,97,5,-1,25,76,-11,0,26,2.564411555
12.925275,-69,83,-6,-12,-117,-56,20,-10,2.564411555
12.925277,13,-72,-31,-18,-45,8,-37,31,2.564411555
12.938685,30,-28,3,-9,-49,-96,68,-29,2.564411555
12.938829,-75,-9,0,-23,-40,78,-20,34,2.564411555
12.946242,108,113,29,25,25,27,-12,-22,2.564411555
12.946269,4,-24,-18,-39,0,-6,12,48,2.564411555
12.962104,-55,-10,-7,26,-27,-2,-2,-3,2.564411555
12.962147,2,45,12,-23,67,38,16,-8,2.564411555
12.964487,-1,-28,-10,9,-56,3,-23,13,2.564411555
12.964495,29,-13,-1,-7,0,-24,5,-50,2.564411555
12.984628,-40,-96,-12,-4,71,-99,-69,29,2.564411555
12.984656,56,61,-2,-16,-112,66,42,35,2.564411555
12.987507,-94,-113,-11,29,78,80,-48,16,2.564411555
12.987518,18,56,21,10,-32,-66,46,-10,2.564411555
13.002468,-18,28,16,24,108,-9,46,-26,2.564411555
13.002484,-52,-38,-22,-18,-128,18,-44,-126,2.564411555
13.006061,29,58,0,-24,-80,-59,-23,85,2.564411555
13.006090,-83,-54,1,1,10,10,8,-54,2.564411555
13.021848,30,-6,8,-11,-92,6,-13,14,2.564411555
13.021905,35,-19,-10,17,1,-9,26,-45,2.564411555
13.024727,83,97,3,-24,-6,7,-15,-26,2.564411555
13.024740,-61,72,7,1,10,0,13,41,2.564411555
13.044010,-63,-60,-34,-6,-102,-30,-41,-97,2.564411555
13.044034,17,21,-12,-30,73,-47,-14,4,2.564411555
13.048171,-21,78,9,75,52,12,34,32,2.564411555
13.048180,33,67,4,-45,-29,58,1,1,2.564411555
13.058323,79,46,21,-19,80,83,43,-6,2.639655281
13.058341,-47,-3,-6,-18,-14,-85,18,0,2.639655281
13.065790,-101,-72,-25,29,67,11,-29,-41,2.639655281
13.065807,-12,54,8,11,30,-59,-26,-19,2.639655281
13.081603,-5,62,0,17,-44,23,-9,-11,2.639655281
13.081620,10,5,0,-23,-92,56,-17,45,2.639655281
13.083536,-42,-69,-3,-41,-53,-33,14,3,2.639655281
13.083543,45,-8,-15,37,87,28,12,-10,2.639655281
13.104703,53,18,4,-10,-36,-9,-11,9,2.639655281
13.104754,-62,-74,2,-8,-42,-7,-5,-7,2.639655281
13.108553,8,44,17,-5,-62,-63,11,25,2.639655281
13.108566,-13,-101,-37,-9,55,22,-6,14,2.639655281
13.118904,-9,11,5,43,127,52,-21,76,2.639655281
13.118935,26,-28,3,-3,-96,-12,37,0,2.639655281
13.125870,68,1,-1,-4,22,34,22,-8,2.639655281
13.125894,-17,-21,3,22,34,-84,-31,-33,2.639655281
13.141426,102,35,7,8,-40,3,36,22,2.639655281
13.141451,-56,-47,4,17,-1,-19,-21,17,2.639655281
13.142315,42,44,0,-35,-49,64,29,-25,2.639655281
13.144205,-31,-50,-15,-23,-23,-69,6,15,2.639655281
13.164261,-26,-76,-13,10,-31,-3,-8,-11,2.639655281
13.164284,57,81,11,17,-31,-33,-15,-38,2.639655281
13.164702,18,4,9,-18,-19,-20,-8,21,2.639655281
13.164716,-82,-67,12,13,69,25,26,68,2.639655281
13.186886,-115,-46,-21,-15,10,-34,-28,-13,2.639655281
13.186915,82,-98,-4,7,26,-2,-9,-33,2.639655281
13.189436,27,114,-8,18,106,-1,-7,-44,2.639655281
13.189447,18,36,0,0,13,53,-11,22,2.639655281
13.202138,-31,-113,-7,-39,-119,46,74,-2,2.639655281
13.202168,-30,82,8,28,52,-35,-43,17,2.639655281
13.204729,-96,-79,-10,-13,-21,-41,-7,-10,2.639655281
13.204743,116,41,6,1,-101,26,18,-24,2.639655281
13.223980,43,61,0,4,-57,-72,0,68,2.639655281
13.223996,-107,-71,-16,-34,81,64,15,-7,2.639655281
13.224778,-52,-29,-4,-5,-49,-17,-33,-34,2.639655281
13.224789,-6,24,0,25,-28,-30,-20,-18,2.639655281
13.246513,-40,-7,2,-42,-9,6,0,-34,2.639655281
13.246531,-16,-37,12,31,21,-51,-18,95,2.639655281
13.249574,-87,-69,-35,-37,79,37,-11,-37,2.639655281
13.249582,31,-23,-9,-25,-14,48,45,-54,2.639655281
13.261826,64,111,10,13,7,6,-2,64,2.639655281
13.261860,4,-24,3,45,18,20,-2,-7,2.639655281
13.264669,92,-14,15,-11,-36,-5,-30,7,2.639655281
13.264675,-82,-33,-22,-15,37,-15,-19,-38,2.639655281
13.285007,1,53,13,20,-5,19,22,-10,2.639655281
13.285014,-3,37,-5,-28,16,43,-9,-57,2.639655281
13.285017,35,75,3,-10,-109,-38,-6,27,2.639655281
13.285019,60,-48,-1,-10,19,-1,-18,-36,2.639655281
13.306531,-43,-45,-8,-5,-113,-26,-5,-42,2.652440765
13.306550,-36,59,9,17,117,12,15,94,2.652440765
13.309435,55,6,1,9,4,-60,8,62,2.652440765
13.309446,-55,18,11,53,1,-24,11,-18,2.652440765
13.321861,15,8,-3,22,127,34,-7,-48,2.652440765
13.321892,-15,45,15,-29,-44,39,68,10,2.652440765
13.324255,69,-7,-22,-29,-51,29,25,-62,2.652440765
13.324268,-96,-84,-23,-41,16,-53,-54,-3,2.652440765
13.346575,65,55,13,28,31,31,34,45,2.652440765
13.346585,46,-51,-18,33,10,-18,-47,-22,2.652440765
13.346588,24,46,6,20,-14,1,14,-5,2.652440765
13.346590,36,87,8,-16,3,-9,-50,-50,2.652440765
13.366648,14,59,-6,-11,77,3,-40,20,2.652440765
13.366677,48,77,14,-14,-16,-38,39,-22,2.652440765
13.369137,-86,-79,3,23,89,34,28,25,2.652440765
13.369146,58,-78,-18,-20,-128,18,29,4,2.652440765
13.381920,-29,21,-4,-14,59,-8,7,-73,2.652440765
13.381952,-8,-8,4,13,-5,-58,-43,27,2.652440765
13.384931,37,-40,3,1,101,31,61,104,2.652440765
13.384945,-54,73,0,18,82,-21,-8,64,2.652440765
13.404131,-11,-59,-7,-21,31,59,-8,-36,2.652440765
13.404158,-35,-17,-20,3,-35,5,-37,-55,2.652440765
13.407087,-60,-22,4,-11,27,-20,-4,-31,2.652440765
13.407100,91,21,-8,3,-37,-22,-56,-4,2.652440765
13.426497,-43,-61,-10,14,-51,-44,4,14,2.652440765
13.426540,11,77,6,-26,-17,21,22,50,2.652440765
13.427257,-32,61,-4,4,25,3,-36,0,2.652440765
13.427279,64,41,15,-23,-56,19,21,-7,2.652440765
13.441583,22,21,3,35,38,-14,-26,2,2.652440765
13.441607,28,-55,-12,3,-13,68,37,-42,2.652440765
13.442195,-38,-10,-1,-24,-90,-87,-74,-24,2.652440765
13.442218,-24,-31,17,55,127,47,41,-4,2.652440765
13.464371,-12,-16,-12,-17,-104,-7,-41,-13,2.652440765
13.464403,21,21,-6,-72,-77,-59,18,10,2.652440765
13.466558,51,11,31,109,62,100,24,8,2.652440765
13.466567,60,82,21,-35,11,35,35,3,2.652440765
13.487692,-42,33,-8,-30,-122,-109,-53,6,2.652440765
13.487701,45,8,-10,21,-21,6,-91,-63,2.652440765
13.487704,-7,5,1,-22,3,29,9,-28,2.652440765
13.487706,33,98,2,2,-3,-3,18,77,2.652440765
13.501496,57,35,14,4,20,-54,42,15,2.652440765
13.501512,-35,-45,-9,-6,-2,62,2,10,2.652440765
13.503132,-30,33,-1,-25,-28,35,-47,-34,2.652440765
13.503145,-47,-84,-10,-8,-29,-8,23,28,2.652440765
13.524449,11,-16,-12,-12,-40,36,17,41,2.652440765
13.524530,58,-27,6,-17,20,-53,10,30,2.652440765
13.525687,53,-49,-23,16,37,19,-23,-6,2.652440765
13.525695,-118,17,-12,-35,-38,43,-35,-33,2.652440765
13.549335,83,34,39,6,-9,68,44,5,2.652440765
13.549343,26,5,-19,18,123,96,18,-71,2.652440765
13.549346,39,67,10,25,54,-44,35,18,2.652440765
13.549348,-18,51,14,15,4,38,-36,12,2.652440765
13.561623,27,19,-30,-29,-83,2,-3,28,2.652440765
13.561657,-72,26,14,10,93,11,5,26,2.652440765
13.563093,88,30,13,-22,-62,-73,23,-6,2.624539837
13.563106,73,57,8,14,30,15,8,14,2.624539837
13.584490,41,-10,2,15,42,15,13,-15,2.624539837
13.584518,-23,-49,-3,-15,-74,-32,-14,4,2.624539837
13.586017,-12,17,-13,-23,56,-28,4,-8,2.624539837
13.586027,-26,-23,-5,16,49,-31,8,-11,2.624539837
13.606898,-8,83,14,-25,-55,49,-4,40,2.624539837
13.609107,75,50,-12,39,-38,-111,17,1,2.624539837
13.609116,-56,-109,-4,-21,-62,-62,-14,7,2.624539837
13.609119,-11,36,12,28,86,88,67,-16,2.624539837
13.621807,-58,-48,-8,-5,-12,-39,-61,-27,2.624539837
13.621826,-55,-21,-10,-9,38,46,8,-6,2.624539837
13.622214,0,127,13,8,23,69,-51,-10,2.624539837
13.622235,-37,-128,-17,-32,-45,-70,4,-43,2.624539837
13.643969,59,47,-15,12,32,-94,-28,-19,2.624539837
13.644009,40,83,25,-9,-107,84,-11,-27,2.624539837
13.645055,-101,-48,-9,4,29,-100,5,-36,2.624539837
13.645077,-21,-54,-6,-10,-105,57,35,-8,2.624539837
13.666873,-13,-62,0,22,105,32,-15,0,2.624539837
13.666904,74,-9,0,-21,-68,-37,-27,1,2.624539837
13.669696,84,34,4,-11,-46,24,19,28,2.624539837
13.669704,30,18,12,16,28,-24,-15,11,2.624539837
13.682073,-20,-41,-25,0,5,-104,27,-50,2.624539837
13.682105,-90,-125,-30,-9,-27,107,-9,-8,2.624539837
13.684511,-1,49,-13,-34,-112,-28,-22,-2,2.624539837
13.684518,18,34,10,47,74,67,30,38,2.624539837
13.705743,-21,91,31,25,-37,-36,-4,-16,2.624539837
13.705761,-40,-51,-20,-28,65,-128,-64,19,2.624539837
13.705764,-1,-92,-14,10,54,127,85,-10,2.624539837
13.705767,-6,-1,-19,-32,-85,-91,-90,-36,2.624539837
13.726487,26,22,14,18,17,17,9,61,2.624539837
13.726510,-43,124,26,20,13,-6,56,-40,2.624539837
13.727628,13,7,-12,-8,-43,39,-23,-6,2.624539837
13.727644,21,-20,-13,-13,23,-34,1,-64,2.624539837
13.741541,-28,-105,-7,-1,10,32,33,4,2.624539837
13.741567,78,103,13,-26,-115,-21,21,-66,2.624539837
13.742762,-25,-90,-18,24,92,-14,-36,33,2.624539837
13.742780,3,-59,-5,13,-11,14,11,-17,2.624539837
13.763971,14,102,7,-23,-106,-84,-9,-22,2.624539837
13.765705,-43,37,8,96,114,9,-19,10,2.624539837
13.765720,-16,-75,0,-6,-1,23,-12,-6,2.624539837
13.765723,63,-30,-4,-37,-41,-92,-11,26,2.624539837
13.786792,-48,-61,0,42,94,103,10,1,2.624539837
13.786854,-67,-92,-8,-26,7,22,6,52,2.624539837
13.787421,45,73,5,12,-21,-23,-10,-37,2.624539837
13.789191,-71,40,-3,-22,-56,-20,4,10,2.624539837
13.801134,-13,18,-19,-45,-7,18,-46,25,2.624539837
13.801156,62,82,15,9,18,1,27,106,2.624539837
13.808943,4,-18,-19,6,-8,14,-16,-57,2.624539837
13.808966,-23,-71,-2,-20,-3,-6,9,25,2.624539837
13.824122,35,87,24,15,46,-14,16,-11,2.612835957
13.824151,-5,57,11,-3,-8,96,11,6,2.612835957
13.825242,-90,-25,-18,-7,-85,-88,21,-28,2.612835957
13.825250,80,127,16,20,97,65,-35,0,2.612835957
13.846414,16,-28,-20,2,-62,-16,35,-5,2.612835957
13.846432,13,5,13,-12,72,46,-5,3,2.612835957
13.847115,16,14,25,1,-67,-17,-47,36,2.612835957
13.847129,-62,-36,-16,-26,-67,-55,-30,-26,2.612835957
13.860870,-39,-56,-6,-10,47,28,-3,8,2.612835957
13.860890,3,-22,-7,-16,-70,-71,-14,-59,2.612835957
13.869335,46,68,5,-31,-7,-10,-11,86,2.612835957
13.869367,81,27,-13,6,39,33,19,45,2.612835957
13.883957,-42,-56,7,23,-88,32,-55,-25,2.612835957
13.883981,47,47,-8,0,21,-10,48,10,2.612835957
13.886534,37,21,5,12,-26,-65,3,12,2.612835957
13.886546,-57,-23,17,5,31,-68,-5,-66,2.612835957
13.907875,13,40,13,-24,-38,80,24,-6,2.612835957
13.907893,11,-48,-10,-9,53,5,-14,-3,2.612835957
13.907899,36,-66,7,10,62,65,35,3,2.612835957
13.907904,-111,-113,-22,10,-74,-56,-25,-30,2.612835957
13.921681,15,-14,-6,12,-29,-19,-6,45,2.612835957
13.921725,-52,9,6,2,-98,-11,-17,-7,2.612835957
13.929837,32,127,15,-14,68,-40,-19,-56,2.612835957
13.929868,113,93,24,25,-8,121,89,49,2.612835957
13.944018,-84,-23,-24,-18,112,-43,-47,-51,2.612835957
13.944208,38,-28,-14,-4,-128,-48,6,17,2.612835957
13.944575,15,47,-1,-2,93,19,-9,74,2.612835957
13.944590,14,87,9,3,-74,-68,-2,-5,2.612835957
13.966634,-82,-34,-4,-15,31,111,58,-64,2.612835957
13.966666,66,-38,13,33,41,-124,-68,51,2.612835957
13.969296,-9,-25,-6,-9,-91,97,28,-15,2.612835957
13.969304,25,61,-31,-49,103,7,-33,-24,2.612835957
13.980857,27,72,12,21,-56,-47,32,5,2.612835957
13.980888,24,-8,2,-15,3,-16,3,-35,2.612835957
13.988799,-2,-52,-6,34,-31,-11,24,2,2.612835957
13.988823,-65,-2,10,-19,-67,29,6,-19,2.612835957
14.004342,74,92,27,8,71,14,26,81,2.612835957
14.004359,-77,-63,-45,-16,83,10,-41,-77,2.612835957
14.006326,11,35,-14,-44,-111,4,20,-42,2.612835957
14.006340,0,-6,-2,35,44,-56,19,32,2.612835957
14.026592,26,31,22,39,95,17,17,-6,2.612835957
14.026678,-22,29,19,-37,-41,-8,-19,16,2.612835957
14.028662,-26,-99,10,61,-111,56,45,-38,2.612835957
14.028670,-44,-70,-24,-20,-86,-20,-29,-29,2.612835957
14.040952,32,-25,-9,-13,-89,14,-40,-79,2.612835957
14.040969,60,27,4,-26,-25,19,45,46,2.612835957
14.049351,23,104,9,15,100,-40,-97,-36,2.612835957
14.049364,-8,-62,-2,17,69,6,8,-24,2.612835957
14.065140,6,18,-5,-19,-92,-40,2,10,2.612835957
14.065150,9,-71,-19,-27,-36,13,-33,50,2.612835957
14.065153,-10,84,14,-12,-52,1,-10,27,2.612835957
14.065155,-57,-99,8,39,90,55,41,10,2.612835957
14.086676,-22,77,-3,-18,48,-113,-11,-46,2.606842057
14.086697,-88,-38,-6,-22,5,-4,-61,-69,2.606842057
14.089064,91,-39,-8,-26,-4,111,37,6,2.606842057
14.089078,13,101,13,38,13,58,-45,76,2.606842057
14.100875,4,-83,-22,3,-48,-98,-4,-16,2.606842057
14.100894,-14,51,7,22,47,6,78,25,2.606842057
14.109044,-28,37,-2,-29,-22,-103,-79,-23,2.606842057
14.109069,101,61,-1,-32,-81,-23,-27,10,2.606842057
14.124045,-44,6,-4,12,44,26,-1,18,2.606842057
14.124068,55,52,2,31,11,-16,5,-67,2.606842057
14.126676,-86,17,-10,-39,-69,8,38,18,2.606842057
14.126687,-17,-12,-2,3,9,9,21,-28,2.606842057
14.146869,17,14,-2,-15,-46,1,-19,8,2.606842057
14.146898,26,-102,-6,44,44,26,56,-9,2.606842057
14.147567,11,25,6,9,80,-41,-38,11,2.606842057
14.147584,-1,14,-2,-58,-101,-28,22,-3,2.606842057
14.170118,-21,22,4,45,60,115,69,-20,2.606842057
14.170148,0,-54,9,7,-86,22,-10,15,2.606842057
14.172952,-1,21,13,-29,-40,-87,-6,94,2.606842057
14.172965,-37,-14,10,35,-80,3,3,17,2.606842057
14.184595,13,-76,-35,-22,85,-20,-41,8,2.606842057
14.184625,-69,-46,0,7,53,19,0,43,2.606842057
14.187100,18,-59,-19,16,35,98,31,-16,2.606842057
14.187110,89,88,10,-13,-32,1,-40,-18,2.606842057
14.206693,63,50,10,-20,-65,-46,47,10,2.606842057
14.206712,3,94,0,13,-16,-70,0,-22,2.606842057
14.207364,-58,-26,-2,-15,-46,36,10,-26,2.606842057
14.207381,-37,-53,-1,4,-23,23,-6,-38,2.606842057
14.229548,-11,-30,4,46,92,-29,-67,-10,2.606842057
14.229565,102,107,13,-29,-5,9,21,6,2.606842057
14.230666,-55,-92,-16,-3,22,-97,5,2,2.606842057
14.230671,92,24,-8,15,-61,-4,-43,-29,2.606842057
14.244050,-55,53,1,-34,0,-71,10,-10,2.606842057
14.244074,19,-74,-14,28,83,3,-9,-50,2.606842057
14.246348,22,94,17,21,39,71,26,-9,2.606842057
14.246356,-61,-34,-5,-1,127,-86,-1,-41,2.606842057
14.266597,25,-81,-21,-13,-61,4,-47,82,2.606842057
14.266607,-14,7,-6,-19,-68,-1,24,-20,2.606842057
14.267154,-21,-38,-8,-1,-6,11,1,-3,2.606842057
14.267187,-2,125,5,-6,-5,24,14,-6,2.606842057
14.290220,15,-113,3,6,-16,21,7,15,2.606842057
14.290243,-25,3,-1,10,93,47,-33,-5,2.606842057
14.290246,50,32,4,0,-29,-55,35,23,2.606842057
14.292619,-8,-6,-7,-63,-75,53,-50,52,2.606842057
14.304222,-19,-2,3,43,-36,12,-31,-27,2.606842057
14.304246,-4,-66,-7,-34,-87,13,59,26,2.606842057
14.306358,-98,-128,-1,25,-9,-66,5,-37,2.606842057
14.306372,54,-2,-11,-2,38,23,9,3,2.606842057
14.326479,14,-56,1,-20,-44,24,13,-88,2.606842057
14.326497,-52,68,3,-9,-66,5,10,50,2.606842057
14.328325,43,-42,-16,-15,-57,-10,-74,-75,2.606842057
14.328336,-62,-69,-1,-1,30,-6,33,-21,2.606842057
14.350027,-15,22,-3,-15,25,1,-2,-2,2.593132702
14.351577,73,79,17,13,41,-17,-23,10,2.593132702
14.351590,-72,-34,8,11,-5,35,65,-36,2.593132702
14.351596,39,-72,-31,-8,-86,-47,-83,-8,2.593132702
14.364175,11,-49,-5,-16,37,-13,23,14,2.593132702
14.364198,-65,-13,-4,-27,-57,-107,-29,-13,2.593132702
14.365127,18,74,-10,21,110,126,49,6,2.593132702
14.365148,19,-5,12,31,28,94,8,21,2.593132702
14.395197,-28,31,-2,-103,-34,0,-44,32,2.593132702
14.395222,2,51,20,104,85,-27,34,-16,2.593132702
14.396125,50,-89,-17,-28,-7,-87,-38,22,2.593132702
14.396146,-56,48,18,13,25,-26,28,-40,2.593132702
14.409712,79,75,3,4,-25,-12,-2,62,2.593132702
14.409740,-29,-99,-33,-29,-25,35,-31,-65,2.593132702
14.410632,95,86,9,-4,25,12,-13,-16,2.593132702
14.410723,4,7,-9,-3,-28,-58,12,51,2.593132702
14.424504,-21,21,5,7,-34,19,1,-15,2.593132702
14.424522,28,37,6,-2,54,21,-9,10,2.593132702
14.425050,6,98,12,5,-103,-54,22,59,2.593132702
14.425066,-28,-105,-17,-15,67,93,17,48,2.593132702
14.455856,-5,-12,-7,50,-42,-38,34,43,2.593132702
14.455873,10,9,2,-25,-94,63,22,30,2.593132702
14.455943,8,-26,0,14,-1,0,-16,16,2.593132702
14.455946,24,125,19,-16,3,-91,45,4,2.593132702
14.471512,-29,-47,-16,-15,45,94,12,-15,2.593132702
14.471524,-18,8,-13,20,-16,-120,-53,-56,2.593132702
14.471527,-9,-9,0,-24,17,23,-84,-19,2.593132702
14.471529,-25,70,6,20,-32,71,3,-9,2.593132702
14.484010,-6,-67,-12,2,-46,-47,25,-78,2.593132702
14.484042,28,-56,-9,-48,-33,4,-14,14,2.593132702
14.485905,-75,-12,0,11,32,-27,6,47,2.593132702
14.485917,51,97,30,-4,-10,-31,-8,12,2.593132702
14.506657,-68,-69,-7,13,104,14,-8,-34,2.593132702
14.506679,23,4,-14,12,-68,25,10,2,2.593132702
14.507368,41,46,5,10,-3,-42,18,15,2.593132702
14.507460,11,9,-19,-38,11,26,-50,-29,2.593132702
14.530308,30,125,30,26,-34,38,1,52,2.593132702
14.530411,4,5,2,-33,-62,4,78,5,2.593132702
14.532699,-41,-32,-3,25,77,34,55,-3,2.593132702
14.532709,-30,-65,-2,15,-95,-28,-18,-13,2.593132702
14.544191,60,-10,-13,-29,13,-23,-43,-43,2.593132702
14.544213,8,5,-1,6,51,-11,-83,-4,2.593132702
14.545618,43,91,9,-5,-34,-3,-1,35,2.593132702
14.545631,-32,-91,-5,2,30,-22,11,-4,2.593132702
14.566353,37,11,-3,9,12,-24,17,22,2.593132702
14.566391,94,99,24,13,-76,-49,16,9,2.593132702
14.567042,-91,-86,-18,-36,-56,-39,14,-6,2.593132702
14.567081,104,-85,-2,34,1,-26,-7,3,2.593132702
14.589773,-16,-20,-6,-32,-33,-32,-16,-26,2.553505364
14.589799,71,80,17,51,116,31,-40,51,2.553505364
14.591940,-21,-30,2,-4,-30,45,68,4,2.553505364
14.591952,18,39,4,24,31,15,-12,19,2.553505364
14.604370,-27,17,7,3,-24,32,48,12,2.553505364
14.604403,-103,-56,-5,-20,19,44,-51,-9,2.553505364
14.607519,17,-11,-3,-14,27,-12,16,-13,2.553505364
14.607532,-77,-33,5,10,10,18,-56,-37,2.553505364
14.635085,13,76,11,14,-23,40,5,-5,2.553505364
14.635106,-84,22,-15,-28,-65,7,7,38,2.553505364
14.636561,67,-18,-8,34,83,-51,-51,-51,2.553505364
14.636574,-41,-39,6,-14,-87,-45,42,-66,2.553505364
14.666137,-126,-16,-17,-42,-31,8,19,-58,2.553505364
14.667757,50,-14,-8,58,88,32,-25,-6,2.553505364
14.667763,52,57,5,-31,-94,-56,-74,14,2.553505364
14.667766,-2,81,-3,-50,127,93,37,-10,2.553505364
14.668274,63,17,21,77,-19,-57,-15,61,2.553505364
14.668284,-31,-1,9,-24,-55,-40,22,28,2.553505364
14.671403,-47,2,-7,8,-7,5,12,39,2.553505364
14.671419,25,53,-5,10,-13,-113,-92,16,2.553505364
14.686546,-52,-66,-18,-33,-17,74,19,-28,2.553505364
14.686570,50,3,3,-11,22,0,34,30,2.553505364
14.689974,2,-4,-3,10,4,19,-2,-73,2.553505364
14.689986,-21,-18,-2,-15,-46,-45,9,19,2.553505364
14.709786,30,14,2,0,16,-38,-11,-27,2.553505364
14.709803,71,89,25,12,-94,-26,-9,0,2.553505364
14.710411,-107,-123,-31,-30,94,4,70,0,2.553505364
14.710427,40,49,-14,-4,-4,24,49,31,2.553505364
14.724037,-66,-36,-13,-6,93,25,-15,-45,2.553505364
14.724051,60,44,9,-11,-116,-99,9,-42,2.553505364
14.724774,30,90,9,-47,-125,57,-24,39,2.553505364
14.724789,92,-14,8,41,101,-16,-43,72,2.553505364
14.746890,70,1,-16,-74,-117,-84,-40,-2,2.553505364
14.746924,-86,-28,5,54,123,127,67,-22,2.553505364
14.749500,95,83,23,22,-2,-22,-8,53,2.553505364
14.749506,-106,-104,-29,-11,-76,46,22,-59,2.553505364
14.777264,62,-14,-9,-13,-95,-27,-37,28,2.553505364
14.777282,-44,-41,-6,-21,16,21,-8,5,2.553505364
14.778701,-22,98,7,12,-19,-16,-33,-84,2.553505364
14.778717,0,-96,-14,-2,-11,-17,46,-10,2.553505364
14.792122,18,-24,7,10,19,10,4,9,2.553505364
14.794302,-52,-7,-12,-36,-86,-12,3,-28,2.553505364
14.794316,25,-33,13,52,42,30,17,11,2.553505364
14.794319,-36,-1,26,2,-28,-53,-75,72,2.553505364
14.806700,77,-36,-20,44,35,110,38,9,2.553505364
14.806725,69,70,2,28,45,-7,84,7,2.553505364
14.808586,9,-32,-3,-10,-73,-50,-39,36,2.553505364
14.808598,43,62,14,2,37,-19,62,-16,2.553505364
14.831291,-42,73,5,7,-52,31,-56,36,2.553505364
14.831303,-19,-128,-25,-20,-4,-39,-6,4,2.553505364
14.831306,-1,4,9,10,-8,33,4,-46,2.553505364
14.831308,57,-2,1,1,26,5,50,-18,2.553505364
14.843376,-60,50,3,-2,-8,-11,-2,18,2.521516865
14.843396,-24,-69,-1,-1,15,35,8,43,2.521516865
14.851623,-47,6,-5,-21,-70,-70,-43,26,2.521516865
14.851647,0,-86,11,34,88,4,-10,-9,2.521516865
14.866846,-32,-106,-43,-53,71,-44,14,56,2.521516865
14.866870,2,51,-4,9,-74,29,-33,-16,2.521516865
14.867472,33,17,12,-9,27,78,71,-14,2.521516865
14.867493,-17,127,10,46,20,51,-82,-8,2.521516865
14.890032,28,33,20,9,-13,-12,-26,-3,2.521516865
14.891067,-48,-49,-8,-16,-36,-12,-33,-89,2.521516865
14.891080,-1,-16,-14,-43,-86,-79,-2,36,2.521516865
14.891086,30,60,-9,-11,47,67,27,-6,2.521516865
14.912318,-76,77,32,33,33,0,14,-31,2.521516865
14.912345,-11,43,-4,-22,-5,-27,-8,-14,2.521516865
14.913160,61,-17,-18,21,16,19,-38,33,2.521516865
14.913183,34,37,-7,-23,-46,-24,25,13,2.521516865
14.926441,91,53,4,-24,-117,8,-32,65,2.521516865
14.926454,42,127,52,42,-20,-44,51,-21,2.521516865
14.927269,9,-128,-41,-7,104,81,-48,-70,2.521516865
14.927304,29,1,2,-12,-110,-95,53,93,2.521516865
14.950195,32,42,4,31,86,91,-46,-21,2.521516865
14.950226,-3,11,3,-26,53,-41,56,-2,2.521516865
14.951963,-17,17,8,20,16,25,-19,-4,2.521516865
14.951969,25,-20,-14,-59,-70,-34,14,-95,2.521516865
14.963462,-57,-85,-6,38,34,57,2,23,2.521516865
14.963494,18,-90,-19,-6,-16,60,-17,41,2.521516865
14.971647,-81,-58,-1,7,-13,-33,25,-31,2.521516865
14.971672,-8,45,3,5,-7,8,8,-11,2.521516865
14.988933,-90,1,14,-30,-60,-89,32,-9,2.521516865
14.988947,-6,-3,-25,-2,60,5,-44,19,2.521516865
14.988950,34,63,0,-3,-53,86,10,15,2.521516865
14.988952,-46,-13,-1,8,-71,-41,23,-43,2.521516865
15.009700,92,47,8,34,104,28,14,62,2.521516865
15.009731,11,66,0,-56,-114,-22,-43,-24,2.521516865
15.011990,-18,-77,-4,-15,87,-17,7,-26,2.521516865
15.012003,-26,24,6,10,54,-24,21,11,2.521516865
15.023513,-12,52,7,13,-57,-92,6,-35,2.521516865
15.023583,0,-42,-5,-24,-45,-8,-4,15,2.521516865
15.034422,25,11,4,9,51,-1,-19,24,2.521516865
15.034430,-36,-27,-9,-4,-42,23,-25,-12,2.521516865
15.047117,-3,-23,-6,-12,6,-39,15,-52,2.521516865
15.047149,42,-31,9,-9,25,-20,42,74,2.521516865
15.049317,-22,28,5,21,-63,10,-40,12,2.521516865
15.049327,-68,-97,-3,15,-72,19,32,-7,2.521516865
15.070025,74,117,17,-17,3,-16,-34,-24,2.521516865
15.070047,-48,-50,-41,3,68,-8,-22,-111,2.521516865
15.070812,27,51,-1,-17,-13,101,53,-7,2.521516865
15.070833,47,-10,-11,-25,31,-25,-36,-52,2.521516865
15.092601,-32,6,3,37,18,-3,26,15,2.521516865
15.092626,-44,-84,-5,24,71,41,4,1,2.521516865
15.095204,4,8,7,-6,18,-35,11,-8,2.521516865
15.095213,42,71,12,-19,-113,-28,-14,-23,2.521516865
15.106691,12,-72,3,-13,25,-65,36,-5,2.545663717
15.106716,-95,-27,-18,-17,-67,57,-35,-13,2.545663717
15.109286,17,25,-10,0,-74,28,-59,-24,2.545663717
15.109300,-38,-18,-13,3,106,30,-5,21,2.545663717
15.138169,-5,-45,-12,16,-41,98,57,-10,2.545663717
15.138215,40,72,17,12,-94,-28,-8,104,2.545663717
15.140877,10,21,16,10,33,-65,49,-2,2.545663717
15.140892,4,29,-3,-2,40,-53,-78,-30,2.545663717
15.152145,-19,-23,-6,-15,61,47,6,-10,2.545663717
15.152162,111,101,35,16,22,14,-1,-21,2.545663717
15.154359,-50,-78,-27,3,-32,-61,31,-22,2.545663717
15.154370,-6,87,-9,-28,-34,27,-40,113,2.545663717
15.167466,13,25,-15,-23,-53,-14,-43,-43,2.545663717
15.167497,58,-14,19,24,10,-14,-1,54,2.545663717
15.170535,78,58,11,-2,-70,-27,4,-9,2.545663717
15.170545,-46,-15,9,38,87,25,6,-14,2.545663717
15.190577,16,11,-5,-33,-42,-34,-28,6,2.545663717
15.190591,-6,3,4,-19,15,-44,-3,24,2.545663717
15.190763,-100,-50,-3,69,72,118,76,20,2.545663717
15.190770,-59,37,8,-68,-128,22,-36,-8,2.545663717
15.212155,-21,-72,-19,21,64,13,53,10,2.545663717
15.212179,-77,-37,-17,6,70,-43,-52,-64,2.545663717
15.213975,18,36,-15,-45,-2,46,-3,-5,2.545663717
15.213990,-37,10,4,19,-105,-50,20,57,2.545663717
15.226535,20,11,8,27,22,36,-31,-3,2.545663717
15.226552,-9,4,9,1,34,-14,73,36,2.545663717
15.229706,34,15,13,2,-2,50,-26,22,2.545663717
15.229714,-48,-32,-8,-3,27,12,14,-17,2.545663717
15.249822,14,39,-1,-21,-81,-64,-22,35,2.545663717
15.249836,75,56,-3,9,23,28,10,-69,2.545663717
15.251724,-7,-11,-3,-32,-76,-123,-22,-11,2.545663717
15.251732,-25,-44,-27,-5,127,119,29,-36,2.545663717
15.272670,50,10,4,-16,-30,-35,-28,11,2.545663717
15.272696,-88,29,-24,-26,-66,-84,-32,-21,2.545663717
15.275372,30,40,17,75,100,16,-43,2,2.545663717
15.275384,54,-32,1,-41,-91,-18,79,-33,2.545663717
15.286393,-12,-51,-9,-15,34,109,35,8,2.545663717
15.286429,-34,-41,-6,-17,-10,-58,-21,-23,2.545663717
15.287760,-63,18,18,-15,-49,-40,-33,-64,2.545663717
15.287781,73,93,5,41,-22,-20,-19,11,2.545663717
15.309892,-5,-38,-4,-25,-70,-15,13,-43,2.545663717
15.309923,9,20,-2,4,7,68,5,41,2.545663717
15.312721,60,27,9,-8,-46,-33,-21,-43,2.545663717
15.312731,-59,44,13,17,111,-21,31,-11,2.545663717
15.332088,-62,-12,-13,-6,-57,-6,-53,-45,2.545663717
15.332124,15,-120,-11,21,-68,-7,-20,26,2.545663717
15.332738,36,43,-6,-1,127,-81,-32,-3,2.545663717
15.332771,-23,-76,2,-62,-128,38,-9,-34,2.545663717
15.346408,-68,-11,25,104,105,-102,-1,10,2.545663717
15.346424,-44,7,0,-13,-89,29,27,-38,2.545663717
15.347085,30,31,-12,-30,9,-65,8,4,2.545663717
15.347123,74,104,21,41,13,4,-2,24,2.545663717
15.370382,-7,-31,-12,-12,14,26,-2,11,2.608505026
15.370414,78,55,13,-2,27,22,-1,-3,2.608505026
15.373460,-74,0,-18,-41,-128,13,-12,107,2.608505026
15.373478,127,36,4,32,42,-50,0,99,2.608505026
15.392214,-53,92,8,11,74,100,31,19,2.608505026
15.392227,69,95,21,1,73,-41,-62,4,2.608505026
15.392818,-19,-32,-2,-19,-84,-58,78,-85,2.608505026
15.392825,-5,-92,-20,12,89,83,-31,1,2.608505026
15.407722,26,-10,4,17,-40,-41,32,24,2.608505026
15.407735,-55,-48,-4,3,-6,27,16,61,2.608505026
15.407738,-12,-49,6,23,64,18,-8,9,2.608505026
15.407740,-85,16,1,13,9,-42,2,-22,2.608505026
15.429565,14,-30,-21,-25,-56,-13,22,-37,2.608505026
15.429582,15,14,-10,-33,-25,38,-44,-57,2.608505026
15.431062,20,20,3,13,-12,3,-14,0,2.608505026
15.431080,69,96,16,28,1,0,28,-20,2.608505026
15.452607,16,36,1,-29,-45,-38,-6,7,2.608505026
15.452645,-89,-128,-25,-22,-65,-24,-15,-1,2.608505026
15.455700,104,62,-9,-2,63,127,95,16,2.608505026
15.455717,11,-7,-5,38,33,-76,-100,-13,2.608505026
15.466968,6,43,10,14,46,48,34,-6,2.608505026
15.467000,81,66,6,-26,-28,-25,-6,94,2.608505026
15.469334,-42,27,6,2,39,67,-3,12,2.608505026
15.469342,10,-95,-15,-28,-55,13,7,-36,2.608505026
15.489769,-2,-79,-7,-12,-83,-4,-69,-29,2.608505026
15.489808,-11,71,7,5,-34,-12,32,-36,2.608505026
15.490433,-15,9,3,10,-28,-41,-48,36,2.608505026
15.490448,-6,6,-12,-2,92,-58,81,7,2.608505026
15.512526,-19,105,25,-27,2,-68,1,-1,2.608505026
15.512558,-26,-29,-9,21,68,61,-16,-29,2.608505026
15.515630,-2,-45,-8,19,14,-48,-38,0,2.608505026
15.515640,28,6,10,-9,-115,-16,-28,77,2.608505026
15.525846,19,7,-11,-36,38,65,39,41,2.608505026
15.525909,-53,33,10,6,-12,28,70,-39,2.608505026
15.535364,25,12,8,42,55,-70,-35,7,2.608505026
15.535376,3,-56,-9,-20,-69,103,7,-21,2.608505026
15.550276,2,12,-2,-11,-26,-122,-55,-12,2.608505026
15.550299,21,-12,-15,12,24,74,9,-24,2.608505026
15.551330,56,78,27,-9,-31,18,19,65,2.608505026
15.551344,-20,-78,-27,-5,-79,-32,-39,-86,2.608505026
15.572117,29,61,0,-13,19,2,-36,-20,2.608505026
15.572142,2,-13,-3,28,40,7,13,-19,2.608505026
15.574328,16,68,4,-2,43,29,49,-53,2.608505026
15.574343,-33,56,17,8,-60,-63,15,60,2.608505026
15.585835,-4,-62,-30,-29,-37,29,-93,-37,2.608505026
15.585867,51,-7,6,-10,15,-6,105,-15,2.608505026
15.595340,-81,54,12,20,-3,-37,9,26,2.608505026
15.595371,-71,-77,-6,17,52,5,19,22,2.608505026
15.610166,46,-57,0,16,-21,-50,0,32,2.608505026
15.610186,58,55,6,-1,-91,-1,-19,41,2.608505026
15.611140,42,-2,-4,-20,-10,-53,-54,-40,2.628956394
15.611148,36,70,-7,-22,25,78,8,-22,2.628956394
15.632469,-62,22,1,16,-38,7,31,-18,2.628956394
15.632489,-15,26,7,22,36,-22,5,-58,2.628956394
15.635147,47,-20,-12,-43,-46,6,-15,23,2.628956394
15.635156,36,7,-2,-22,-7,-46,-13,88,2.628956394
15.646264,54,-5,6,23,-15,41,31,6,2.628956394
15.646291,93,117,20,22,79,7,-71,32,2.628956394
15.657024,-11,-93,-19,23,23,-86,10,3,2.628956394
15.657036,48,38,7,-27,-64,-13,55,-127,2.628956394
15.669845,-3,15,-6,-56,52,42,46,-13,2.628956394
15.669871,-50,-42,15,59,80,-63,-7,32,2.628956394
15.672548,-30,-13,-8,-12,-98,52,8,-12,2.628956394
15.672564,-60,-83,-3,14,-25,17,-44,-2,2.628956394
15.692201,-4,62,11,-24,-11,43,45,-17,2.628956394
15.692217,6,-45,-19,-6,-50,-118,-61,-15,2.628956394
15.693626,32,-81,-3,-12,-42,46,-17,6,2.628956394
15.693636,11,-2,0,-7,67,-11,7,10,2.628956394
15.705930,-86,-97,-32,-3,18,21,-17,7,2.628956394
15.705951,-29,-37,-19,-43,44,25,-5,-33,2.628956394
15.716374,11,38,9,51,119,-22,-31,-43,2.628956394
15.716381,52,48,12,2,37,-11,50,7,2.628956394
15.729983,38,7,21,26,-37,-53,9,10,2.628956394
15.730009,29,-49,-17,-25,97,68,55,43,2.628956394
15.731835,-118,-82,-15,-25,-53,78,-9,-41,2.628956394
15.731841,39,124,26,34,63,-31,-38,-14,2.628956394
15.752134,66,21,4,-1,-22,-101,-18,14,2.628956394
15.752170,32,110,-9,44,52,71,-3,-45,2.628956394
15.753800,-21,-61,8,-15,9,-44,42,16,2.628956394
15.753821,-3,-24,-35,-26,-99,22,-31,-15,2.628956394
15.765745,90,78,22,23,-52,64,26,5,2.628956394
15.765757,-84,-32,2,-15,-61,-73,-50,-38,2.628956394
15.776156,94,69,15,-15,-56,10,32,46,2.628956394
15.776171,-124,-45,-6,41,125,42,-27,-26,2.628956394
15.789661,2,-67,-1,-1,-48,-39,-1,-9,2.628956394
15.789697,21,1,-4,-18,-68,-29,26,-11,2.628956394
15.792181,-42,5,-12,-21,-41,35,-17,-21,2.628956394
15.792194,-2,-53,3,-3,40,21,0,13,2.628956394
15.813501,-18,73,-4,3,-102,-22,-24,-30,2.628956394
15.813510,1,-5,6,5,73,39,25,28,2.628956394
15.813609,-1,42,0,17,-6,-43,-27,23,2.628956394
15.813643,12,13,-4,-1,27,-43,-32,7,2.628956394
15.827357,-72,-3,-14,-5,42,-72,4,-2,2.628956394
15.827371,55,58,20,-18,-100,10,-5,36,2.628956394
15.835893,-19,-62,-22,9,112,10,-5,-51,2.628956394
15.835900,66,57,15,11,1,45,1,-23,2.628956394
15.850154,1,-77,-11,18,-40,39,18,30,2.628956394
15.850173,5,109,14,-24,-116,-21,-4,19,2.628956394
15.852114,-105,-71,-19,-11,-45,-29,-41,-56,2.628956394
15.852122,33,-47,-12,-11,62,14,3,3,2.628956394
15.872733,-13,-6,0,-34,-11,43,-25,-13,2.604642794
15.872777,16,-17,0,33,78,24,-29,55,2.604642794
15.875182,5,51,13,-15,-74,-85,76,-10,2.604642794
15.875195,-42,-47,-8,-22,-125,34,-9,1,2.604642794
15.885759,-11,6,1,39,127,58,-26,5,2.604642794
15.885785,-31,-105,-22,-27,-1,64,-36,-24,2.604642794
15.897491,15,50,12,20,-6,31,37,23,2.604642794
15.897502,-33,-29,-2,-4,-118,-3,12,71,2.604642794
15.909636,12,73,3,23,109,-36,30,-3,2.604642794
15.909678,-31,3,-8,-18,-45,22,0,-30,2.604642794
15.911233,20,69,4,1,46,-7,-17,27,2.604642794
15.911249,50,-31,6,-7,-42,-9,-6,-32,2.604642794
15.932225,-91,-52,-15,-16,-86,-34,-6,4,2.604642794
15.932255,75,-87,-13,-3,6,57,26,-36,2.604642794
15.934749,83,54,3,14,-1,-40,-52,-34,2.604642794
15.934755,-41,54,-11,-11,95,-60,-5,-23,2.604642794
15.946166,-2,-6,19,12,-62,38,73,0,2.604642794
15.946198,-59,-15,-3,12,-33,-72,16,-27,2.604642794
15.956030,-93,-66,-1,-51,-128,-72,-68,-34,2.604642794
15.956046,85,127,16,37,67,127,101,10,2.604642794
15.970640,111,-67,22,78,87,-26,-10,55,2.604642794
15.970659,50,16,-35,-68,-83,-54,-43,-22,2.604642794
15.971212,40,-19,-2,83,94,25,40,11,2.604642794
15.971221,-8,21,2,-28,-24,-56,13,19,2.604642794
15.992232,74,73,7,-16,2,-13,-27,-2,2.604642794
15.992256,-32,-6,10,0,-75,-15,1,18,2.604642794
15.994011,-25,-25,-4,-29,21,-13,22,-8,2.604642794
15.994019,-49,-21,-4,9,1,28,-40,40,2.604642794
16.005984,56,74,10,-4,52,101,38,45,2.604642794
16.006021,-12,-7,4,1,-75,-23,-46,36,2.604642794
16.022494,106,-68,-32,-61,-28,15,27,21,2.604642794
16.022519,20,59,-7,37,-6,-62,-45,-33,2.604642794
16.029682,37,82,5,-23,-42,17,17,35,2.604642794
16.029769,-8,64,17,23,-5,-30,42,24,2.604642794
16.033232,22,28,26,6,57,-29,-9,-10,2.604642794
16.033241,9,-65,-4,25,53,59,-3,-1,2.604642794
16.052370,-41,-29,-11,-22,-31,-34,-3,-65,2.604642794
16.052391,77,-1,-3,5,57,-20,90,-33,2.604642794
16.053777,-56,40,33,15,13,3,-32,79,2.604642794
16.053798,-10,-105,-48,-50,-100,-102,21,-36,2.604642794
16.074709,-43,17,-20,-16,58,-48,-112,-60,2.604642794
16.074726,-46,42,3,-2,44,-4,61,-58,2.604642794
16.076340,8,29,0,-3,-79,17,-30,-32,2.604642794
16.076363,27,71,35,13,88,15,3,49,2.604642794
16.090015,-32,-17,0,6,-15,7,53,1,2.604642794
16.092440,23,-73,-2,12,59,-47,6,13,2.604642794
16.092454,-51,0,-15,-6,77,24,-14,-38,2.604642794
16.092457,-33,54,8,4,40,8,42,-17,2.604642794
16.112547,-12,-78,-2,14,-84,-45,17,-19,2.604642794
16.112555,-67,87,17,37,75,52,-37,32,2.604642794
16.113554,-34,-12,-8,-33,-31,-47,-1,-8,2.604642794
16.113561,42,-57,-4,-47,-126,54,-35,-8,2.604642794
16.134873,-39,-18,-19,41,111,0,29,37,2.591906881
16.134896,57,-50,-9,4,-75,48,-3,28,2.591906881
16.137488,73,53,3,14,-100,15,-6,-5,2.591906881
16.137499,-54,-44,1,-37,-113,-76,-3,-56,2.591906881
16.150292,12,9,-9,-40,-86,-20,-29,-55,2.591906881
16.150323,11,-37,-2,1,-10,0,-29,14,2.591906881
16.152566,85,53,8,9,33,26,36,26,2.591906881
16.152572,-22,35,-12,-5,5,-8,-2,-13,2.591906881
16.172555,47,25,24,1,-20,16,-21,-54,2.591906881
16.172579,-124,-67,-39,-14,16,-28,17,-20,2.591906881
16.174728,-24,-80,2,15,72,34,52,7,2.591906881
16.174742,0,13,-4,-49,-51,-46,-51,61,2.591906881
16.194616,15,-2,-9,36,82,51,5,-7,2.591906881
16.194635,-66,49,29,29,-54,62,-26,-9,2.591906881
16.196417,-5,-39,-19,-6,-1,-6,-23,-17,2.591906881
16.196424,-9,-28,4,1,-47,10,-5,22,2.591906881
16.208964,-25,52,6,-22,90,-49,-23,27,2.591906881
16.208984,66,-58,-1,-25,-74,-81,-19,-26,2.591906881
16.216158,-82,23,2,15,59,56,6,11,2.591906881
16.216190,22,25,-9,1,35,-48,-1,-25,2.591906881
16.232898,-13,-55,-5,-25,-20,-9,-17,-11,2.591906881
16.232931,-48,-31,6,20,-8,-26,-53,72,2.591906881
16.235807,-57,-19,-4,-8,6,-11,49,47,2.591906881
16.235818,18,37,3,15,-100,15,44,-23,2.591906881
16.254670,56,110,16,-7,61,-2,-38,29,2.591906881
16.254683,4,-88,-25,-26,4,19,9,-105,2.591906881
16.256406,-18,37,-7,-12,14,-40,36,-6,2.591906881
16.256434,32,68,0,14,127,112,-42,-1,2.591906881
16.269090,38,59,-3,-18,-128,-94,70,12,2.591906881
16.269137,-17,-56,-21,9,5,92,-21,-38,2.591906881
16.275804,39,-16,12,-29,20,-44,-26,26,2.591906881
16.275830,-51,-45,5,26,58,75,18,19,2.591906881
16.292036,28,63,9,40,56,-49,-74,-35,2.591906881
16.292053,-9,29,2,10,-14,20,-11,12,2.591906881
16.298640,-10,-2,-11,-8,-119,-12,-5,-30,2.591906881
16.298656,28,-31,3,-10,-39,-60,-31,-22,2.591906881
16.315295,-12,-70,-12,-21,-26,21,18,69,2.591906881
16.315332,-9,69,14,3,23,-17,13,34,2.591906881
16.316783,-7,-94,-7,10,28,42,-23,-103,2.591906881
16.316804,-102,-55,-3,-1,22,-41,24,-3,2.591906881
16.337251,47,-35,-11,3,56,33,-14,-30,2.591906881
16.337275,90,122,7,-17,-50,-10,10,-1,2.591906881
16.340050,49,-23,9,5,-54,-64,43,52,2.591906881
16.340064,65,77,8,11,108,49,-3,-4,2.591906881
16.352522,1,-59,25,32,5,40,78,9,2.591906881
16.352554,-22,-64,-38,-74,-92,-59,0,-16,2.591906881
16.355754,11,93,5,45,127,117,29,44,2.591906881
16.355770,-18,-78,-6,27,-1,-85,-42,27,2.591906881
16.376449,-19,-33,12,-6,-57,-7,-16,-12,2.591906881
16.376463,24,-38,-2,6,-8,79,18,25,2.591906881
16.376467,11,78,0,-28,-80,-5,-4,-1,2.591906881
16.376469,8,-43,-5,-4,10,56,25,-41,2.591906881
16.389390,-20,2,-14,-17,-58,-22,-32,38,2.553996593
16.389428,17,32,13,-5,-6,-54,12,0,2.553996593
16.395736,-50,-45,-15,18,9,12,-57,-28,2.553996593
16.395762,43,65,7,-10,1,-43,41,14,2.553996593
16.412276,34,2,-11,11,61,90,-52,-63,2.553996593
16.412302,-61,0,9,-11,24,-65,28,0,2.553996593
16.413711,-31,12,9,12,32,81,-9,58,2.553996593
16.413717,61,45,5,6,10,81,36,-15,2.553996593
16.435194,-105,63,-26,-25,1,4,-1,-69,2.553996593
16.435218,85,79,15,31,121,-34,-29,89,2.553996593
16.437456,-78,-62,-5,20,32,36,56,-21,2.553996593
16.437468,-64,-22,2,-25,-13,-14,-24,-35,2.553996593
16.449080,-17,-98,-16,1,18,-112,-18,2,2.553996593
16.449130,-5,-22,4,29,105,75,22,9,2.553996593
16.456035,6,48,6,-14,-13,-56,3,-22,2.553996593
16.456130,93,97,15,-1,-103,-34,-3,13,2.553996593
16.472219,-56,15,-15,7,-34,29,-10,4,2.553996593
16.472243,16,42,7,-2,38,-11,26,-6,2.553996593
16.473932,54,10,-6,-13,-1,-32,6,-61,2.553996593
16.474006,-70,-40,-7,3,-24,-10,-22,6,2.553996593
16.494597,27,-20,9,-17,-103,-14,26,13,2.553996593
16.494621,19,21,-4,-1,-5,-71,-8,6,2.553996593
16.496318,29,-4,-2,-60,-98,-44,15,27,2.553996593
16.496336,35,86,7,74,89,-71,-50,-6,2.553996593
16.509122,-56,-67,-8,36,10,-28,5,-14,2.553996593
16.509154,-58,-102,-22,-3,10,16,-25,-25,2.553996593
16.515938,21,48,0,-14,-49,-89,15,12,2.553996593
16.515959,-12,80,2,-28,31,12,7,-33,2.553996593
16.532312,4,-9,21,-5,35,97,2,53,2.553996593
16.532350,61,81,43,32,-12,-1,10,21,2.553996593
16.533630,66,-31,-35,8,-99,-29,-50,-12,2.553996593
16.533663,29,27,-14,-48,-40,16,3,-49,2.553996593
16.554671,25,47,4,-32,-60,24,2,3,2.553996593
16.554695,-13,58,12,42,127,110,25,-21,2.553996593
16.557258,-9,7,7,-28,-13,-46,8,54,2.553996593
16.557272,-67,-36,14,56,-55,-78,-71,-20,2.553996593
16.568458,42,-11,-25,-4,89,78,107,-23,2.553996593
16.568479,40,21,-10,-27,-85,-16,-102,5,2.553996593
16.578036,-60,30,8,-11,-27,-28,-34,4,2.553996593
16.578052,5,-128,-24,4,-29,44,41,25,2.553996593
16.592188,-3,-2,-14,-29,-51,-56,2,-13,2.553996593
16.592213,-16,17,-3,-12,-52,-58,9,-7,2.553996593
16.594565,25,-13,2,34,49,64,-10,-34,2.553996593
16.594576,-22,-22,7,-24,-11,-1,13,75,2.553996593
16.614152,58,120,32,23,17,-12,-39,18,2.553996593
16.614176,58,-12,-23,-33,-23,7,36,-59,2.553996593
16.624547,127,108,39,46,34,-49,-6,30,2.553996593
16.624562,-57,-97,-36,-4,80,31,4,12,2.553996593
16.628601,70,100,-7,10,58,-22,-8,38,2.553996593
16.628630,17,32,7,27,91,28,-30,-2,2.553996593
16.643414,-14,-6,-14,-45,4,-15,11,-27,2.595841225
16.643438,68,-26,3,41,73,27,10,14,2.595841225
16.652508,-96,-35,14,11,-45,27,3,-14,2.595841225
16.652529,-53,-25,-7,-17,-52,-7,15,3,2.595841225
16.655162,-19,-31,-19,-27,-81,9,-39,5,2.595841225
16.655177,-78,1,10,-29,23,-18,9,-4,2.595841225
16.674674,106,13,-3,0,-70,-22,-36,-42,2.595841225
16.674721,18,30,0,-21,-22,-22,-2,19,2.595841225
16.676151,29,-61,-14,11,66,-6,-11,-53,2.595841225
16.676173,66,119,34,9,-77,-27,13,30,2.595841225
16.689545,-35,-23,-14,27,-21,-55,-21,-82,2.595841225
16.689559,-76,48,-25,-99,-56,55,101,-6,2.595841225
16.697547,-21,81,28,101,127,-41,-29,8,2.595841225
16.697561,24,27,-3,-7,-60,48,73,29,2.595841225
16.712049,5,77,12,-6,-87,-30,35,53,2.595841225
16.712067,-17,-19,1,35,47,-3,-48,-21,2.595841225
16.713658,31,-78,-20,-36,-97,-18,-2,10,2.595841225
16.713674,-17,17,2,-17,-22,27,-8,-38,2.595841225
16.738250,35,-56,2,-11,-45,-10,-8,15,2.595841225
16.738267,-46,-62,-15,-7,10,-40,11,-11,2.595841225
16.738271,-4,37,-4,-8,11,113,23,-57,2.595841225
16.738273,-36,-97,1,20,16,-94,-68,-37,2.595841225
16.748396,25,67,18,-40,-44,-17,-18,5,2.595841225
16.748430,45,-10,-29,-2,-65,-24,-10,-3,2.595841225
16.759337,-52,20,6,75,87,-44,-14,86,2.595841225
16.759347,61,69,-6,-60,-60,17,47,-26,2.595841225
16.772511,-14,77,6,41,127,43,20,30,2.595841225
16.772544,-50,-44,20,40,25,27,8,13,2.595841225
16.775398,-21,-1,7,-6,13,21,18,36,2.595841225
16.775410,-78,-79,-20,-20,41,10,22,-28,2.595841225
16.794712,-46,-99,-4,-8,-31,-47,15,-32,2.595841225
16.794736,118,-10,25,11,23,-19,-5,11,2.595841225
16.797803,-33,-118,-47,-34,-16,52,-3,-21,2.595841225
16.797813,55,125,6,-7,-26,-49,-55,43,2.595841225
16.808281,-7,-56,-19,1,28,22,-3,-24,2.595841225
16.808299,5,38,6,12,8,-13,2,-21,2.595841225
16.819003,-27,-38,26,19,-28,-15,20,19,2.595841225
16.819016,-34,21,-12,-43,-100,103,0,-12,2.595841225
16.833233,-3,11,7,24,91,18,-5,46,2.595841225
16.833240,53,-74,2,38,22,11,-12,-26,2.595841225
16.835178,19,-27,-7,-27,-30,-38,29,-2,2.595841225
16.835194,56,45,7,-1,43,-69,-38,-22,2.595841225
16.855075,41,-20,9,23,30,69,-39,-48,2.595841225
16.855099,16,82,10,13,-5,25,23,-32,2.595841225
16.857884,-41,24,-15,-36,-66,45,-28,-40,2.595841225
16.857903,48,-68,-10,-8,-47,-39,36,95,2.595841225
16.868642,2,68,6,-30,-35,-29,-1,14,2.595841225
16.868679,39,-31,-4,-12,-70,-43,-24,-18,2.595841225
16.878401,56,80,1,-8,105,12,-10,-8,2.595841225
16.878415,-39,-33,6,50,8,-63,-6,-35,2.595841225
16.892182,-29,3,-15,-60,-50,66,-7,-47,2.632453590
16.892195,11,32,-1,39,-39,-68,15,82,2.632453590
16.893615,31,91,7,-24,59,72,-9,-21,2.632453590
16.893627,-51,-50,-17,21,102,8,-3,2,2.632453590
16.914983,5,8,-7,-46,-63,-79,-4,-9,2.632453590
16.915005,-5,-26,0,-25,-87,11,2,12,2.632453590
16.917570,27,-44,12,39,-9,46,16,102,2.632453590
16.917579,16,127,31,11,5,-24,-1,11,2.632453590
16.928691,-47,-128,-85,-20,-27,-6,-2,-25,2.632453590
16.928726,16,126,-5,-42,-64,-33,-4,-55,2.632453590
16.938894,62,106,21,21,15,-26,-8,-1,2.632453590
16.938915,31,10,8,0,-7,45,13,-32,2.632453590
16.952555,-24,2,18,10,-53,-25,18,62,2.632453590
16.952676,-91,-39,-10,-14,32,-14,-33,-27,2.632453590
16.955129,-43,-88,-17,-9,-6,-50,11,-57,2.632453590
16.955148,43,8,14,51,-94,67,-26,16,2.632453590
16.974668,-89,-2,4,-36,125,-25,47,-8,2.632453590
16.974686,27,-14,-20,18,101,80,-19,6,2.632453590
16.976130,14,68,1,36,-128,-53,-23,-23,2.632453590
16.976142,-44,52,14,5,-55,-30,17,27,2.632453590
16.997288,51,-25,-3,13,-53,53,-10,60,2.632453590
16.997319,-44,-30,-4,-26,57,-24,-51,87,2.632453590
17.000050,-43,-128,-22,-28,-22,62,40,-27,2.632453590
17.000060,-53,65,-24,-9,59,-38,-49,-33,2.632453590
17.012821,44,5,19,18,-42,-68,21,67,2.632453590
17.012853,4,14,2,-4,-10,73,1,5,2.632453590
17.015136,118,127,16,11,88,-50,34,46,2.632453590
17.015145,-59,-121,-40,-40,49,-58,-36,-22,2.632453590
17.035066,11,35,13,-25,-41,67,3,-26,2.632453590
17.035110,-75,36,8,15,9,38,46,31,2.632453590
17.036205,-73,-50,1,14,-20,-10,-40,-1,2.632453590
17.036213,5,-57,-3,-11,-15,9,16,1,2.632453590
17.057255,-56,23,-1,-9,-45,-49,5,-18,2.632453590
17.057286,-26,-105,-8,-2,-49,-27,7,-6,2.632453590
17.059063,69,58,5,-20,-74,4,-39,-4,2.632453590
17.059074,21,-35,-24,-42,-97,-18,21,-66,2.632453590
17.072542,-67,-82,-2,17,36,28,-47,-35,2.632453590
17.072575,-3,68,12,57,27,-42,42,-49,2.632453590
17.075588,26,-5,5,-11,-38,-61,8,36,2.632453590
17.075601,32,30,-5,-2,-33,-22,8,-24,2.632453590
17.094576,-27,127,2,-18,38,62,-35,-56,2.632453590
17.094586,-35,-32,-7,4,48,55,-13,23,2.632453590
17.096082,38,95,6,-13,41,-58,7,-3,2.632453590
17.096102,9,67,5,7,-67,-12,-28,15,2.632453590
17.117754,46,-67,-11,16,82,46,51,-10,2.632453590
17.117788,-82,-6,0,-31,-7,-39,-15,-23,2.632453590
17.120374,22,-33,-19,-7,87,63,36,-11,2.632453590
17.120381,97,-19,3,-7,-6,9,-41,46,2.632453590
17.132278,8,-10,-1,7,19,-49,-12,-11,2.632453590
17.132308,115,93,11,1,-46,-45,-1,-80,2.632453590
17.138824,-102,-78,-26,-8,-9,30,2,-14,2.632453590
17.138862,5,-93,4,2,15,38,18,-42,2.632453590
17.157342,61,-12,3,10,-89,-106,4,14,2.697976376
17.157355,42,64,11,9,19,-27,-11,-3,2.697976376
17.157359,-44,-14,1,-3,-27,3,-26,-79,2.697976376
17.157361,7,39,-2,16,120,75,62,-40,2.697976376
17.177130,-15,-10,18,22,8,-99,-23,35,2.697976376
17.177143,7,17,1,-27,-95,-38,-2,2,2.697976376
17.179013,-33,-3,-4,-42,-96,0,-14,-23,2.697976376
17.179034,-16,-4,12,54,126,-47,20,26,2.697976376
17.191558,-70,10,2,28,60,11,14,-2,2.697976376
17.191584,110,-87,-24,-49,97,-18,0,-2,2.697976376
17.198354,-27,-9,0,39,99,65,-54,32,2.697976376
17.198380,-39,32,20,9,-12,35,82,18,2.697976376
17.215049,56,40,-6,-11,-52,-77,-21,1,2.697976376
17.215083,-43,45,9,17,25,58,-4,31,2.697976376
17.218049,-26,-65,-16,-26,-69,12,-15,16,2.697976376
17.218059,-36,-67,-8,-9,-23,-41,-23,-61,2.697976376
17.237084,11,19,7,12,0,3,-1,19,2.697976376
17.237118,-25,1,-9,-14,-56,5,13,2,2.697976376
17.238824,48,75,9,-25,-73,-71,57,80,2.697976376
17.238904,9,-62,-5,7,3,99,-72,-8,2.697976376
17.251413,-25,-84,-21,-21,-56,9,-29,-4,2.697976376
17.251425,-13,2,-5,-5,0,-54,-17,-12,2.697976376
17.258360,33,44,12,4,-9,-12,22,-2,2.697976376
17.258379,46,74,6,-11,-11,-103,-58,-9,2.697976376
17.274827,53,63,8,15,124,49,65,17,2.697976376
17.274860,-105,-76,-7,4,-98,83,-1,23,2.697976376
17.276464,-58,107,4,-4,-9,23,26,-13,2.697976376
17.276475,-49,-97,-30,-23,-97,-25,-8,28,2.697976376
17.297087,-15,0,10,-5,33,31,-36,-43,2.697976376
17.297122,-29,52,0,14,-27,-33,-5,-33,2.697976376
17.298685,73,27,9,22,-29,-2,-5,-5,2.697976376
17.298706,-8,-27,1,-27,-84,-25,26,100,2.697976376
17.311406,-20,73,-5,4,-69,96,-15,-17,2.697976376
17.311424,50,-4,-3,1,127,-63,32,28,2.697976376
17.326767,-32,-37,-2,18,-46,60,-67,-21,2.697976376
17.326781,-60,-53,-29,-12,93,-97,26,-41,2.697976376
17.335017,47,31,0,-16,-74,1,74,24,2.697976376
17.335049,-7,-4,-1,2,-22,-10,3,-2,2.697976376
17.337185,-9,-15,1,-43,-9,32,-29,-69,2.697976376
17.337194,60,120,13,44,127,-4,57,102,2.697976376
17.364622,-120,-118,-23,7,30,-7,-39,-57,2.697976376
17.364643,79,31,-1,1,47,40,-6,16,2.697976376
17.366263,-21,-54,-3,-1,-50,-85,-48,0,2.697976376
17.366276,99,127,5,-19,0,33,-3,-26,2.697976376
17.371783,12,89,18,6,-24,25,26,-29,2.697976376
17.371800,-53,-92,-8,-2,33,1,-38,-9,2.697976376
17.378713,66,59,-6,18,-52,86,42,-19,2.697976376
17.378742,30,80,-4,-25,-57,12,-21,-12,2.697976376
17.395138,127,-15,-22,-12,-97,-56,-13,19,2.697976376
17.395164,53,19,16,48,93,32,17,-39,2.697976376
17.397161,8,-70,1,-22,42,60,1,15,2.697976376
17.397168,26,75,13,-7,-114,56,62,-28,2.697976376
17.417904,-46,-79,18,38,123,-105,-58,15,2.668097014
17.417933,1,-13,-42,-48,-128,60,-15,-34,2.668097014
17.420442,7,-45,3,20,-9,-72,53,20,2.668097014
17.420452,78,77,27,27,59,101,-97,66,2.668097014
17.432320,-61,-48,-29,-45,-77,-30,-1,-5,2.668097014
17.432352,4,-29,11,7,-28,-19,22,5,2.668097014
17.438495,33,73,10,0,45,-70,-28,62,2.668097014
17.438532,-128,-128,-25,9,37,2,28,-77,2.668097014
17.455158,67,4,-2,-11,-55,50,10,86,2.668097014
17.455216,17,43,12,30,73,-39,-7,7,2.668097014
17.456261,9,67,23,-7,64,-6,-9,-8,2.668097014
17.456296,-80,-40,-23,9,-20,57,19,-30,2.668097014
17.477372,95,58,10,-12,80,-44,14,7,2.668097014
17.477404,-56,-12,-6,3,20,49,13,3,2.668097014
17.479484,3,54,6,53,89,-66,3,-13,2.668097014
17.479491,12,-74,13,0,23,-45,38,29,2.668097014
17.490831,-59,-28,-4,0,-23,39,-16,-40,2.668097014
17.490849,40,6,6,-40,-125,-60,10,58,2.668097014
17.501959,-40,-69,-10,7,10,127,-20,-53,2.668097014
17.501968,14,31,3,-11,-29,-128,6,38,2.668097014
17.514585,56,-3,-9,-2,-22,1,-31,-60,2.668097014
17.514597,116,59,12,-20,-13,-32,20,86,2.668097014
17.516058,-8,-74,-12,45,12,39,-15,-3,2.668097014
17.516066,4,-8,-8,-29,-75,0,-10,-20,2.668097014
17.537218,-38,97,20,14,-16,-20,3,9,2.668097014
17.537267,34,58,4,-13,94,117,-16,-27,2.668097014
17.539017,-104,-128,-34,-18,-101,-42,19,-6,2.668097014
17.539032,41,-1,-7,-3,-33,1,-22,-4,2.668097014
17.551246,-20,96,13,16,21,-89,-20,6,2.668097014
17.551276,-8,62,3,5,-81,-14,19,-27,2.668097014
17.561429,-17,7,19,-8,29,-30,-32,46,2.668097014
17.561436,-52,-24,-20,-14,12,30,14,-6,2.668097014
17.574777,-40,-48,-14,-25,3,7,-53,-18,2.668097014
17.574801,-32,-18,4,30,68,16,14,15,2.668097014
17.576408,24,-22,-6,-31,39,11,29,-27,2.668097014
17.576420,18,34,28,23,-20,14,-6,-3,2.668097014
17.597185,-11,-84,-14,5,9,14,22,-53,2.668097014
17.597209,-4,-104,-15,-12,-86,-48,-10,-27,2.668097014
17.598773,-70,-15,-3,17,108,-9,10,-39,2.668097014
17.598798,50,32,-8,-40,-69,-47,2,11,2.668097014
17.610793,38,57,-2,19,39,81,-23,22,2.668097014
17.610827,-26,-14,20,17,-109,-128,5,4,2.668097014
17.621170,80,45,10,-24,18,51,56,7,2.668097014
17.621188,-80,-77,1,48,127,-60,-9,59,2.668097014
17.635388,8,-69,-13,31,127,-49,-37,-29,2.668097014
17.635432,9,56,8,-12,-18,61,12,25,2.668097014
17.638071,28,127,-11,-2,-60,39,-18,-6,2.668097014
17.638085,-26,-74,-1,-44,-40,-84,-18,-36,2.668097014
17.657143,13,75,-1,6,-21,46,33,-40,2.668097014
17.657160,-8,-53,-18,-3,9,-11,-21,-12,2.668097014
17.658716,12,10,-10,-6,-33,-69,-3,-5,2.653089731
17.658729,13,97,26,16,30,63,21,6,2.653089731
17.672285,40,55,12,-26,-128,24,-11,-24,2.653089731
17.672300,-79,-96,-51,-15,-90,-106,-26,-69,2.653089731
17.681549,18,97,-5,-40,42,35,-9,-17,2.653089731
17.681555,60,27,2,67,80,68,-4,-53,2.653089731
17.695138,3,-40,20,11,-54,-41,100,108,2.653089731
17.695170,-29,56,6,0,110,-25,-44,-27,2.653089731
17.698278,-8,-115,-12,-21,-66,-74,-31,-2,2.653089731
17.698287,3,-11,-26,-29,10,101,-57,-49,2.653089731
17.717061,0,1,-1,-11,-3,-33,17,6,2.653089731
17.717069,-56,-4,12,13,6,43,6,10,2.653089731
17.718597,8,47,-2,10,-18,-29,41,54,2.653089731
17.718604,-56,-18,5,-3,-11,16,12,-68,2.653089731
17.731564,43,25,5,-4,5,41,-24,51,2.653089731
17.731580,-3,1,-1,3,2,-11,-19,1,2.653089731
17.741369,-4,3,11,3,-33,-13,-5,-14,2.653089731
17.741382,21,52,-9,-53,-128,-38,-14,-13,2.653089731
17.755068,-71,-44,-14,75,-50,-32,-42,12,2.653089731
17.755100,17,30,-7,-13,53,53,51,20,2.653089731
17.757568,15,79,5,3,24,47,11,41,2.653089731
17.757580,-43,-81,-2,-38,-67,-67,15,13,2.653089731
17.779094,37,-1,3,21,85,-76,-22,8,2.653089731
17.779105,39,20,25,37,-3,89,48,-17,2.653089731
17.779108,62,23,0,9,-15,13,0,-16,2.653089731
17.779111,-43,-44,-5,-7,-63,-12,52,-23,2.653089731
17.790911,35,2,-2,-45,-101,5,2,8,2.653089731
17.790931,-93,-3,4,16,52,-41,-26,-11,2.653089731
17.801730,27,29,4,3,28,-47,2,26,2.653089731
17.801737,52,61,11,26,47,46,23,4,2.653089731
17.814665,11,43,9,-34,27,35,12,17,2.653089731
17.814698,127,127,14,-9,-45,-3,-5,17,2.653089731
17.816511,-32,-128,-44,-12,-86,-67,-30,-69,2.653089731
17.816516,23,51,-5,32,13,-11,-6,54,2.653089731
17.837767,-9,21,-1,0,122,29,8,-20,2.653089731
17.837801,53,75,22,-1,-44,32,-45,-29,2.653089731
17.840209,46,43,20,20,-95,38,30,3,2.653089731
17.840223,15,-71,-12,-10,-14,-110,-19,-8,2.653089731
17.851385,-1,38,-6,-18,-61,99,31,-29,2.653089731
17.851409,7,-18,0,4,-4,-96,33,39,2.653089731
17.861021,-34,9,-9,3,36,-15,-103,-34,2.653089731
17.861033,36,43,-2,-16,18,73,-28,12,2.653089731
17.874658,-23,-52,-4,13,77,62,21,-30,2.653089731
17.874676,-13,20,-3,-12,-5,-19,-16,38,2.653089731
17.876517,-58,-122,-6,-2,13,5,43,-5,2.653089731
17.876544,69,46,6,-4,-42,14,-16,25,2.653089731
17.897319,-111,-52,-5,-10,-22,-59,-54,31,2.653089731
17.897337,98,-18,-23,-12,-13,-6,-16,-40,2.653089731
17.900008,78,101,26,1,-44,-6,53,-38,2.653089731
17.900022,-110,-30,-9,13,105,-46,10,20,2.653089731
17.911029,75,2,-17,-2,-15,-42,37,-13,2.653089731
17.911072,-15,-21,-25,-62,-88,28,-62,-38,2.653089731
17.919850,-75,-60,-5,0,3,47,26,18,2.685001614
17.919876,127,108,52,10,95,-65,-10,15,2.685001614
17.934636,6,-23,-43,30,64,66,40,-47,2.685001614
17.934658,-47,-128,-22,-2,98,3,15,-10,2.685001614
17.936182,29,84,-17,-24,-13,-46,-65,-19,2.685001614
17.936204,-49,80,13,32,83,127,-9,19,2.685001614
17.966054,-32,39,25,-55,-113,-43,-1,-8,2.685001614
17.966066,68,48,15,33,75,32,45,76,2.685001614
17.966121,-57,-6,-19,-9,52,13,8,-52,2.685001614
17.966123,21,64,35,23,-53,-83,-3,-36,2.685001614
17.979550,-75,-61,-63,-36,-101,-29,-42,-62,2.685001614
17.979568,63,68,-20,2,-22,9,38,-33,2.685001614
17.981155,112,118,44,11,11,-35,-36,69,2.685001614
17.981204,-42,-120,-38,-31,-125,50,14,-4,2.685001614
17.994922,-10,-32,15,18,97,-16,3,5,2.685001614
17.994954,-69,51,22,15,-6,49,-41,-62,2.685001614
17.996665,31,-20,-15,-14,-88,-36,37,30,2.685001614
17.996683,12,50,-13,-15,61,53,-67,-7,2.685001614
18.018373,60,106,37,63,124,58,80,35,2.685001614
18.018406,-117,-128,-46,-31,-42,-66,-30,-49,2.685001614
18.023520,59,59,8,-1,-43,51,-28,73,2.685001614
18.023583,45,68,33,17,63,77,45,22,2.685001614
18.039875,-59,-62,-39,-4,7,-45,-78,-33,2.685001614
18.039949,127,127,25,-9,-14,1,2,6,2.685001614
18.041637,-73,-113,-19,0,47,-64,6,-37,2.685001614
18.041653,28,20,0,-19,-72,-115,17,29,2.685001614
18.054389,95,104,36,21,67,31,-15,45,2.685001614
18.054427,-87,-86,-25,15,-47,-44,11,98,2.685001614
18.061040,-6,-15,-9,-37,-35,8,-27,29,2.685001614
18.061066,-3,64,6,56,32,62,46,15,2.685001614
18.077132,-8,-20,6,-59,-117,-83,-22,-21,2.685001614
18.077172,-79,-106,3,54,78,32,78,-31,2.685001614
18.078617,-28,1,13,60,107,-13,-5,-28,2.685001614
18.078632,-6,7,-14,-8,-107,41,-44,-67,2.685001614
18.099998,19,127,29,24,73,110,5,42,2.685001614
18.100030,-46,-52,-7,-57,-90,-57,-12,-12,2.685001614
18.102242,2,-69,-25,-10,-14,-12,23,-1,2.685001614
18.102249,43,25,4,19,-16,-86,-8,1,2.685001614
18.113985,-1,23,-1,-32,-67,31,17,23,2.685001614
18.115279,35,68,25,16,17,-10,-58,13,2.685001614
18.121083,-82,36,12,10,44,22,-3,3,2.685001614
18.121112,-116,-128,-67,-60,-112,-48,-32,-74,2.685001614
18.137596,32,46,11,21,65,-22,10,-3,2.685001614
18.137632,15,104,9,14,-10,51,9,54,2.685001614
18.151240,3,-40,12,13,48,-30,16,-32,2.685001614
18.151272,60,-29,13,55,106,-86,-60,0,2.685001614
18.159864,-91,-106,-25,-45,-93,19,10,-65,2.685001614
18.159888,53,33,8,28,65,53,15,-39,2.685001614
18.161604,0,-26,-6,-8,-50,-30,-62,-7,2.685001614
18.161611,21,-49,-2,-30,-85,52,39,-52,2.685001614
18.174663,-25,-24,-8,27,53,-6,-27,-68,2.655739663
18.174681,23,39,-4,-30,-12,17,-19,-24,2.655739663
18.181276,-38,-68,-7,-44,86,18,41,7,2.655739663
18.181306,7,14,-5,16,28,73,-53,20,2.655739663
18.197155,-27,-65,1,-10,-54,-60,45,15,2.655739663
18.197187,28,28,9,-25,-98,-27,4,-20,2.655739663
18.200530,-31,-63,-13,12,100,35,48,-44,2.655739663
18.200540,-92,-41,-15,5,115,-12,33,6,2.655739663
18.219904,38,101,12,28,20,-7,-2,-4,2.655739663
18.219951,11,18,-3,-81,-54,-33,-23,93,2.655739663
18.221177,127,29,15,85,43,89,37,-68,2.655739663
18.221197,-92,-63,-2,-1,-101,-100,8,24,2.655739663
18.233836,-5,-46,-7,12,-5,105,-26,17,2.655739663
18.233873,30,-26,-5,-2,-35,10,74,-6,2.655739663
18.243985,-13,68,7,-43,-107,-76,-21,1,2.655739663
18.243992,79,25,-3,-35,-25,30,52,6,2.655739663
18.257166,-43,-75,-7,12,46,3,-26,39,2.655739663
18.257186,15,79,6,10,-21,6,-34,-10,2.655739663
18.259057,-40,-98,-19,-38,59,16,-23,2,2.655739663
18.259070,21,22,4,27,-80,-51,-31,17,2.655739663
18.279643,48,90,11,-40,38,18,82,2,2.655739663
18.279683,-50,-48,10,18,7,50,11,-9,2.655739663
18.281140,27,31,7,5,15,-58,-42,48,2.655739663
18.281158,-63,-105,-35,-15,-80,32,-15,-20,2.655739663
18.293990,41,57,2,-6,48,62,7,-47,2.655739663
18.294006,-9,-18,-1,23,19,-75,-20,-63,2.655739663
18.301154,-1,39,11,16,-76,-14,78,46,2.655739663
18.301185,-7,55,6,-20,46,-26,-39,-35,2.655739663
18.317673,41,61,4,-12,-92,-20,-2,39,2.655739663
18.317705,-25,19,-10,13,38,22,-1,-24,2.655739663
18.320189,-26,58,10,-2,19,4,-42,4,2.655739663
18.320197,126,-27,5,-1,88,28,27,-25,2.655739663
18.341419,86,100,13,23,-3,-41,-14,69,2.655739663
18.341432,-68,-128,-12,24,127,-66,-44,14,2.655739663
18.341870,32,84,-1,-26,-67,89,105,0,2.655739663
18.341878,-32,58,-3,-17,-34,55,-48,-14,2.655739663
18.357124,0,-113,-11,43,91,98,87,13,2.655739663
18.357137,37,55,9,4,-90,-17,17,99,2.655739663
18.362278,-85,-60,-5,-19,-57,-30,15,1,2.655739663
18.362295,11,83,-4,-19,-41,-11,-13,6,2.655739663
18.377217,95,34,7,-33,-108,-128,-55,-68,2.655739663
18.377238,26,27,6,28,37,49,6,-9,2.655739663
18.379095,96,87,3,4,-74,13,1,-11,2.655739663
18.379103,-37,72,49,15,55,15,6,55,2.655739663
18.400320,81,-48,-39,-33,-61,-44,-20,-10,2.655739663
18.400348,20,87,48,43,104,16,10,24,2.655739663
18.403595,-34,-61,-66,-31,-19,3,-28,-53,2.655739663
18.403605,-1,87,4,51,84,-74,-3,-37,2.655739663
18.414706,-33,-121,20,-57,40,87,-15,-22,2.655739663
18.414730,25,58,-47,-23,-124,-105,-16,2,2.655739663
18.421346,82,43,16,3,119,-84,-16,86,2.655739663
18.421379,7,32,-4,33,125,108,24,4,2.655739663
18.437099,-34,48,11,19,-88,-68,14,-4,2.652156845
18.437137,6,18,8,-20,5,-1,-23,-39,2.652156845
18.438887,4,8,17,19,-90,10,-2,-15,2.652156845
18.438915,21,16,-15,-20,21,-9,43,8,2.652156845
18.459565,10,7,5,-6,-41,-15,-59,41,2.652156845
18.460762,-47,-101,-4,-4,70,-1,-1,-7,2.652156845
18.461425,104,113,-8,0,-66,15,-52,-48,2.652156845
18.461444,127,90,60,41,66,24,5,72,2.652156845
18.473380,-128,-116,-73,10,-3,-41,-67,-82,2.652156845
18.473398,82,88,2,-72,-76,-28,91,-8,2.652156845
18.484058,75,107,18,-12,127,43,33,88,2.652156845
18.484066,-73,-128,-56,-22,-109,-55,-24,-98,2.652156845
18.499339,23,49,26,25,-69,-45,-23,-8,2.652156845
18.499347,-16,-57,-10,23,-4,34,-31,-13,2.652156845
18.499350,-45,-64,-7,10,-78,39,-4,-28,2.652156845
18.499352,-14,8,4,-28,-30,4,14,23,2.652156845
18.520083,100,102,41,0,-35,-1,28,39,2.652156845
18.520109,-106,-94,-63,-18,-19,-39,-42,-107,2.652156845
18.521991,-16,58,15,10,18,38,11,17,2.652156845
18.522021,46,-26,21,-5,-15,11,-21,48,2.652156845
18.533641,-58,-79,-32,-20,95,8,44,11,2.652156845
18.533679,44,25,16,15,-59,-45,-44,-1,2.652156845
18.544746,-18,1,20,28,113,61,-2,48,2.652156845
18.544758,80,98,17,30,12,-90,-16,-5,2.652156845
18.557217,-72,-29,-4,-60,-23,-40,16,13,2.652156845
18.557242,-29,-45,-40,22,107,78,46,-5,2.652156845
18.559573,2,-33,-14,-15,-128,-100,-50,-17,2.652156845
18.559587,-4,73,2,-19,-74,0,-10,-38,2.652156845
18.579684,34,52,27,50,70,75,26,30,2.652156845
18.579707,-27,67,18,10,8,-24,12,-25,2.652156845
18.581107,-14,-88,-29,-8,-52,-49,-88,-59,2.652156845
18.581115,-4,-37,-13,-28,-25,36,56,19,2.652156845
18.593491,20,60,7,-5,-10,-26,-3,-10,2.652156845
18.593504,53,44,21,8,10,2,-29,13,2.652156845
18.605962,41,-25,0,18,10,57,66,63,2.652156845
18.605975,34,73,-31,-29,-12,-49,15,-63,2.652156845
18.617254,18,70,6,7,-68,30,25,38,2.652156845
18.617281,45,96,1,2,-63,-2,-29,18,2.652156845
18.620003,17,25,24,17,69,-18,69,1,2.652156845
18.620012,-59,-2,4,-11,-83,113,7,-42,2.652156845
18.639877,54,-102,-22,-54,6,1,31,20,2.652156845
18.639892,30,67,18,33,103,-41,62,-36,2.652156845
18.641285,-108,-34,11,52,72,63,-55,-53,2.652156845
18.641310,24,27,-1,29,-36,14,37,31,2.652156845
18.656046,-73,50,-6,14,101,13,-19,-34,2.652156845
18.656070,71,-30,0,-47,-9,40,23,14,2.652156845
18.662136,-15,-75,-15,-10,56,-49,-21,67,2.652156845
18.662953,-16,16,-17,-3,30,-6,27,19,2.652156845
18.677273,38,112,16,11,-41,-43,-15,-78,2.652156845
18.677304,-4,-6,5,-11,21,-4,-21,42,2.652156845
18.680022,-7,-32,-7,-6,-91,0,32,-35,2.652156845
18.680028,-18,-34,23,17,66,18,-68,22,2.652156845
18.699728,-43,-94,-33,9,-73,-93,-12,-25,2.612574572
18.699760,-27,-65,-7,-36,71,42,-77,-33,2.612574572
18.702340,61,88,15,25,-10,44,12,37,2.612574572
18.702349,-14,-64,-3,-16,-109,-19,71,28,2.612574572
18.713652,-31,13,3,23,127,5,-27,-9,2.612574572
18.713670,11,9,3,15,-25,-26,-6,-4,2.612574572
18.724470,-37,41,0,-32,-100,-76,-15,-62,2.612574572
18.724485,-6,-2,-4,-7,83,50,-2,5,2.612574572
18.737787,-15,-45,11,25,-41,-13,-23,23,2.612574572
18.737815,-34,37,-4,-26,-125,11,57,101,2.612574572
18.738795,26,-79,-26,-4,123,-12,-70,-5,2.612574572
18.738866,-73,7,-10,8,23,-31,31,-37,2.612574572
18.759661,8,-64,-8,-12,-16,24,2,3,2.612574572
18.759685,74,73,25,0,-37,41,-68,-22,2.612574572
18.762542,8,50,-8,-27,-52,17,37,-38,2.612574572
18.762555,50,-12,0,2,-55,-17,-58,26,2.612574572
18.773582,-18,-10,10,32,76,16,15,50,2.612574572
18.773601,8,-55,0,-8,-25,-6,38,16,2.612574572
18.783888,-32,-48,-8,-24,-59,-44,-36,-24,2.612574572
18.783895,52,-44,-15,-13,-22,-18,28,9,2.612574572
18.797613,3,8,16,5,85,28,-31,-29,2.612574572
18.797645,-8,0,-8,10,8,-5,-25,22,2.612574572
18.799217,85,22,26,-13,87,55,44,69,2.612574572
18.799297,-8,-51,-31,-13,4,-26,3,-63,2.612574572
18.818742,-18,11,-5,-20,-21,-43,-36,-14,2.612574572
18.818766,60,1,-4,38,26,-1,-1,-21,2.612574572
18.827477,-52,57,20,13,-115,-3,19,-35,2.612574572
18.827489,-46,-48,1,-5,121,126,-15,61,2.612574572
18.833637,-17,-38,-7,-21,-128,-120,37,28,2.612574572
18.833663,-65,-3,-7,30,9,88,2,-22,2.612574572
18.843630,-36,69,-12,-75,-96,-22,7,25,2.612574572
18.843644,-10,-14,14,86,105,4,-29,0,2.612574572
18.859382,43,82,-4,-10,-106,2,71,-10,2.612574572
18.859394,-90,-85,6,-5,116,-10,-46,-34,2.612574572
18.859397,68,-22,-23,-16,-62,-38,-6,-48,2.612574572
18.859399,74,-45,2,-26,-57,-30,-1,42,2.612574572
18.879886,54,51,-9,7,0,47,-16,-8,2.612574572
18.879920,6,1,5,-13,-93,-46,6,-12,2.612574572
18.882284,-43,9,5,23,33,-58,23,-45,2.612574572
18.882294,-3,18,4,-4,69,-57,-18,15,2.612574572
18.902083,101,79,13,-5,-81,-32,-12,-13,2.612574572
18.902098,-9,65,17,23,85,108,75,22,2.612574572
18.904813,-25,-39,-28,3,-56,-54,9,-56,2.612574572
18.904828,73,108,-6,-2,72,12,-16,26,2.612574572
18.917100,19,67,-5,-19,29,47,-3,-59,2.612574572
18.917118,-38,-79,-28,-52,-106,-88,29,-27,2.612574572
18.920026,79,109,40,33,86,29,-23,17,2.612574572
18.920043,-71,-35,29,1,-42,12,26,2,2.612574572
18.939924,34,14,-5,30,81,-9,-13,8,2.563356991
18.940040,-9,62,-8,-21,4,0,-7,-10,2.563356991
18.941140,29,15,12,28,114,67,53,27,2.563356991
18.941159,-58,-26,9,-10,-100,-23,0,69,2.563356991
18.962137,11,100,-3,-27,-17,36,-32,18,2.563356991
18.962154,-8,-117,-8,23,42,-33,10,49,2.563356991
18.963722,-14,64,-3,-5,-2,-5,-21,-4,2.563356991
18.963794,9,23,-1,-55,-78,-43,-36,-62,2.563356991
18.977368,-60,-85,-2,81,47,66,-5,60,2.563356991
18.977400,-105,-81,-19,-8,67,58,-63,-49,2.563356991
18.979967,3,6,1,-13,-58,22,9,-8,2.563356991
18.979976,5,-20,9,45,43,-33,14,-21,2.563356991
18.999738,-78,-80,-14,-29,43,6,44,-16,2.563356991
18.999748,127,42,18,35,56,9,-25,-15,2.563356991
19.001149,-39,-85,-7,14,4,20,-29,31,2.563356991
19.001181,-54,-22,-9,-33,-24,12,4,-33,2.563356991
19.029574,14,-9,60,5,-44,-8,21,64,2.563356991
19.029587,24,22,-59,-14,-71,-19,-22,-62,2.563356991
19.031029,-9,57,-9,-14,11,-34,-41,-60,2.563356991
19.031051,61,111,4,19,16,-19,43,36,2.563356991
19.036604,106,112,31,7,-27,20,15,90,2.563356991
19.036663,-32,-32,-17,-32,-63,-36,-24,2,2.563356991
19.043270,-75,-38,-19,27,-65,26,-64,-31,2.563356991
19.043292,51,107,-4,-26,-1,-84,63,-29,2.563356991
19.061174,22,-71,-11,29,72,-25,3,-10,2.563356991
19.061184,-3,14,24,-62,-62,63,73,18,2.563356991
19.061188,-58,-63,-14,50,118,-64,-22,25,2.563356991
19.061190,-8,-111,-39,-47,-93,-19,-14,-52,2.563356991
19.082622,-37,7,-4,32,60,20,-28,-58,2.563356991
19.082655,20,104,29,24,53,-11,46,-16,2.563356991
19.084776,-32,-69,-23,-50,-96,7,2,27,2.563356991
19.084784,-63,-104,-19,-18,-63,17,-71,-45,2.563356991
19.096410,35,67,2,-19,-57,-46,31,39,2.563356991
19.096428,-53,-65,-5,10,-31,-1,-31,-29,2.563356991
19.103951,54,-9,17,16,50,59,22,-1,2.563356991
19.103980,28,59,-2,4,12,-32,5,-7,2.563356991
19.120159,-51,-93,-15,-39,-79,61,-60,-39,2.563356991
19.122666,21,27,11,22,74,-46,46,58,2.563356991
19.122682,15,40,20,38,43,-67,-3,16,2.563356991
19.122684,-24,49,-8,3,127,98,-13,5,2.563356991
19.142139,-44,-30,-11,-15,-116,-128,9,-29,2.563356991
19.142156,45,10,12,46,91,-9,-19,11,2.563356991
19.143931,71,17,19,-7,19,43,41,-9,2.563356991
19.144049,-15,-22,-14,-7,-107,14,-36,-39,2.563356991
19.156478,-8,-13,-11,-10,127,-8,10,-21,2.563356991
19.156495,45,-16,-11,1,-19,-47,-7,33,2.563356991
19.163419,95,127,26,-4,-48,21,24,36,2.563356991
19.163443,-30,-100,8,17,12,5,5,-52,2.563356991
19.179689,-16,-35,-8,-27,-36,33,-11,-12,2.563356991
19.179713,-97,-63,-5,27,59,32,38,-40,2.563356991
19.182824,-48,108,-7,-14,21,-23,-57,-24,2.563356991
19.182832,85,-2,2,-15,-34,-28,69,34,2.563356991
19.201834,36,25,-15,15,-58,-15,-75,-46,2.534987365
19.201871,10,42,-8,-40,-11,27,19,-20,2.534987365
19.208440,21,70,19,-2,87,44,23,14,2.534987365
19.208459,-111,-78,-27,6,-32,3,-13,-73,2.534987365
19.217205,0,34,-1,-5,-20,-23,-12,58,2.534987365
19.217243,36,59,14,2,-35,-29,-21,-8,2.534987365
19.225251,-2,-19,-18,-20,25,-47,-42,-38,2.534987365
19.225266,7,-39,9,8,-35,-20,-9,39,2.534987365
19.239878,14,21,-7,-3,0,0,11,-101,2.534987365
19.239911,39,39,15,-1,-40,-8,-24,42,2.534987365
19.241650,10,-17,-20,-25,-47,19,66,-12,2.534987365
19.241658,-67,43,14,44,25,-2,-19,4,2.534987365
19.264667,0,-43,3,-1,-10,59,-27,18,2.534987365
19.264680,17,50,-12,-13,11,-30,-1,1,2.534987365
19.264687,50,62,22,-1,60,13,-1,37,2.534987365
19.264693,23,89,-15,-65,53,98,56,34,2.534987365
19.276476,48,-16,26,74,100,-32,7,11,2.534987365
19.276504,-93,-83,-41,-16,42,80,32,-31,2.534987365
19.283659,56,10,0,24,-23,-66,-48,20,2.534987365
19.283690,71,45,-9,-45,86,9,43,4,2.534987365
19.300062,23,85,7,21,-14,-28,-40,1,2.534987365
19.300094,-17,-46,5,-14,-18,40,17,-30,2.534987365
19.302403,-3,-81,-19,8,-30,-34,-5,20,2.534987365
19.302409,-10,10,13,3,-4,-16,5,14,2.534987365
19.322677,53,105,7,-23,22,51,0,8,2.534987365
19.322703,42,55,23,18,-77,-50,-10,-8,2.534987365
19.325041,-128,-128,-44,-42,-68,4,8,-102,2.534987365
19.325053,107,74,8,39,0,-58,-21,-2,2.534987365
19.336589,-3,-4,4,-2,-78,-20,45,25,2.534987365
19.336619,67,-1,10,-4,7,74,-45,79,2.534987365
19.343492,-18,3,0,44,92,61,39,10,2.534987365
19.343521,17,-10,8,-40,-69,-69,-37,1,2.534987365
19.359707,-26,-78,-12,48,100,99,12,-17,2.534987365
19.359723,40,-33,-3,-31,-98,-98,-11,45,2.534987365
19.361343,-69,-9,-13,-18,41,-33,-35,-58,2.534987365
19.361368,-31,17,3,17,-1,22,25,-6,2.534987365
19.382158,-71,-18,-5,-36,-52,-65,41,-30,2.534987365
19.382194,-16,-35,-3,30,105,47,3,62,2.534987365
19.384033,31,52,17,7,-50,0,13,12,2.534987365
19.384047,4,15,4,-7,-36,38,-5,3,2.534987365
19.395727,-48,59,-2,-29,-99,-51,-52,-16,2.534987365
19.396486,48,35,-8,0,18,6,38,-55,2.534987365
19.405814,-41,-79,-11,-19,-52,-15,-6,0,2.534987365
19.405828,-17,72,8,-2,84,-15,-16,-1,2.534987365
19.421732,-21,-128,-14,-28,-53,44,33,-19,2.534987365
19.421746,38,81,8,17,14,-59,-40,-4,2.534987365
19.421750,33,39,-3,-4,86,-1,-16,-5,2.534987365
19.421752,-118,37,-11,40,123,-62,-44,-47,2.534987365
19.442233,85,60,13,-4,21,57,43,11,2.534987365
19.442257,-8,9,7,-31,-98,-101,46,7,2.534987365
19.443854,-66,-104,-19,-36,-128,-11,-5,-12,2.534987365
19.443896,-36,-20,-1,32,67,59,-24,-31,2.534987365
19.455997,-43,30,-15,-24,-59,-87,-21,-3,2.559553345
19.456082,20,-98,-4,20,-18,73,-15,-4,2.559553345
19.466977,43,127,13,6,-27,23,62,27,2.559553345
19.466989,-9,-97,-13,-19,-70,-4,-27,48,2.559553345
19.480330,12,33,17,2,94,34,7,36,2.559553345
19.480362,-48,-90,-11,-7,-64,4,-8,-39,2.559553345
19.482784,94,54,23,3,-70,18,11,23,2.559553345
19.482795,-4,-88,-10,28,51,-8,17,-5,2.559553345
19.502289,-22,23,-8,21,111,20,0,11,2.559553345
19.502335,-12,72,-10,-20,-89,-9,-41,-47,2.559553345
19.505459,1,-15,16,-17,-32,-80,30,-5,2.559553345
19.505477,27,65,15,63,-102,56,-2,-9,2.559553345
19.515739,-29,78,4,0,43,-10,-9,62,2.559553345
19.515774,5,-53,-29,-74,-39,-46,36,48,2.559553345
19.526388,-4,29,14,44,119,-13,-13,33,2.559553345
19.526398,-33,-53,-5,-13,-38,57,-35,-11,2.559553345
19.539977,-102,-70,-21,-17,-17,-47,0,-54,2.559553345
19.540046,-22,64,14,15,-66,-6,-16,-70,2.559553345
19.541972,-24,24,13,-14,-5,45,-34,60,2.559553345
19.541984,-32,-76,0,-4,-34,-40,49,29,2.559553345
19.562152,98,57,3,10,-15,23,9,13,2.559553345
19.562171,-26,-84,-28,-15,25,-35,-5,-56,2.559553345
19.563666,77,-52,12,14,-58,39,18,48,2.559553345
19.563684,55,107,1,-16,-67,2,-20,-55,2.559553345
19.576317,63,-8,13,14,-25,-22,76,-14,2.559553345
19.576329,76,127,28,33,122,78,43,13,2.559553345
19.586144,-54,-128,-23,4,127,-13,-38,-55,2.559553345
19.586150,70,70,11,48,-36,-59,60,25,2.559553345
19.599649,-22,-23,-28,-51,-5,27,63,21,2.559553345
19.599680,16,77,21,37,-10,18,-52,53,2.559553345
19.601081,69,25,-8,-21,-111,-30,-19,-18,2.559553345
19.601095,-3,-48,-17,-70,-1,30,-27,-10,2.559553345
19.629646,21,26,-10,4,-48,-55,-53,-41,2.559553345
19.630831,35,14,22,16,96,19,15,-55,2.559553345
19.631068,-47,-84,-35,-5,-16,71,18,-40,2.559553345
19.631111,-48,21,-25,-24,-26,-59,-47,15,2.559553345
19.636110,69,-30,3,-17,-58,-8,77,31,2.559553345
19.636125,-13,85,-3,9,-25,-16,-64,-5,2.559553345
19.644970,-103,-64,-10,-67,-118,-98,-72,-10,2.559553345
19.644978,100,6,35,86,119,-15,3,17,2.559553345
19.659605,-44,65,13,21,122,54,-9,-15,2.559553345
19.659629,-16,-82,-6,-3,-80,-82,1,2,2.559553345
19.662128,-39,57,-25,-71,-39,127,83,-4,2.559553345
19.662138,-74,-84,16,65,79,-48,-19,65,2.559553345
19.683948,-20,-40,-11,5,-9,-9,-47,-17,2.559553345
19.683958,-28,10,1,-3,2,-40,-4,50,2.559553345
19.683961,34,77,8,11,-23,0,-14,16,2.559553345
19.683963,-4,-33,-7,-41,-24,-8,17,-100,2.559553345
19.695852,-24,-63,-12,-16,-18,26,-27,-22,2.559553345
19.695870,-40,-82,-3,-1,-5,-7,-14,-5,2.559553345
19.706871,50,-39,5,32,23,-22,15,-20,2.663752563
19.706885,56,13,-4,-44,-59,54,41,0,2.663752563
19.720162,-9,26,2,19,97,-38,-52,-41,2.663752563
19.720188,16,59,8,-10,-51,-20,67,0,2.663752563
19.722821,40,107,6,71,71,51,-62,1,2.663752563
19.722835,-31,-42,1,-6,-23,-35,89,10,2.663752563
19.742414,-55,-117,-18,-28,-115,-76,-49,-17,2.663752563
19.742439,46,32,0,-13,-46,46,23,53,2.663752563
19.744748,9,109,14,23,-9,-40,10,-37,2.663752563
19.744763,47,42,18,-8,-11,-20,30,80,2.663752563
19.756206,-71,-68,-32,-17,60,34,-84,2,2.663752563
19.756239,7,78,7,3,35,-85,-45,-24,2.663752563
19.764961,-81,-22,6,-36,-64,-32,8,59,2.663752563
19.764983,23,9,-25,-27,36,101,-51,-37,2.663752563
19.779880,52,55,31,44,-23,16,104,57,2.663752563
19.779904,10,27,-3,-14,-64,17,13,-7,2.663752563
19.781395,-6,-123,-7,-17,-47,-48,-1,10,2.663752563
19.781467,0,92,4,21,23,107,-43,20,2.663752563
19.802113,-25,17,2,14,-79,-81,-7,13,2.663752563
19.802133,40,21,-2,17,52,72,-19,15,2.663752563
19.805251,-9,-19,3,4,40,18,52,-48,2.663752563
19.805269,-6,48,-2,-18,38,-62,-22,-12,2.663752563
19.824663,49,77,17,7,38,22,-16,-71,2.663752563
19.824678,-34,-10,-7,-2,2,-16,-24,-20,2.663752563
19.826096,5,-20,-2,5,-57,2,29,-3,2.663752563
19.826107,-18,-25,-2,16,78,-12,-18,19,2.663752563
19.840535,85,116,20,-16,-69,21,-20,-65,2.663752563
19.840552,-128,-128,-32,-58,61,-34,37,-37,2.663752563
19.841331,21,103,8,65,127,-2,-21,-25,2.663752563
19.841348,11,-103,1,-10,-31,59,0,3,2.663752563
19.862069,24,12,-3,-11,-38,39,12,27,2.663752563
19.862088,15,72,14,-9,-34,-50,-8,10,2.663752563
19.863669,-37,-54,-36,-74,-97,90,39,-8,2.663752563
19.863687,29,-83,-12,79,83,-81,-89,-74,2.663752563
19.886906,-87,10,12,-1,-85,-16,30,28,2.663752563
19.886923,52,36,5,-13,14,43,-34,-28,2.663752563
19.886930,30,-30,-6,33,91,-48,33,30,2.663752563
19.886935,-53,102,22,-47,-128,-70,26,33,2.663752563
19.907134,34,-65,-27,-24,44,9,-2,24,2.663752563
19.907157,-77,-117,-31,3,-38,-36,3,-30,2.663752563
19.908757,48,109,25,2,15,3,-5,-17,2.663752563
19.908779,3,68,-8,-20,9,4,-6,0,2.663752563
19.922569,27,-18,21,11,-20,-13,10,27,2.663752563
19.922599,23,-10,11,13,-62,2,19,-27,2.663752563
19.924657,-86,-67,-27,-15,104,-79,-79,-44,2.663752563
19.924672,45,22,-13,-46,-122,9,51,-35,2.663752563
19.945164,3,-67,-7,32,103,18,3,-2,2.663752563
19.945196,42,53,10,5,-51,91,-19,-27,2.663752563
19.948477,59,10,73,89,36,87,102,81,2.663752563
19.948488,-5,-37,-76,-18,-1,-29,-21,-74,2.663752563
19.958996,-128,-98,-80,-67,-85,-14,-14,-87,2.663752563
19.959068,53,64,57,29,127,-37,-10,37,2.663752563
19.965813,-69,-109,-91,-43,-19,-22,-57,-79,2.667641836
19.965843,32,127,29,-9,-34,-2,-20,36,2.667641836
19.982046,-63,68,17,-18,-4,7,34,-30,2.667641836
19.982055,-33,12,-32,3,-89,2,18,36,2.667641836
19.983579,71,127,38,0,-40,-23,-31,-40,2.667641836
19.983612,2,-57,15,1,-60,12,3,39,2.667641836
20.005004,-2,-92,-25,12,59,9,-20,-32,2.667641836
20.005029,-15,6,7,-8,-7,-57,34,112,2.667641836
20.007755,-20,-8,7,-41,30,82,-18,-6,2.667641836
20.007768,-19,-60,9,54,50,-43,-38,-2,2.667641836
20.019106,82,127,30,-23,74,70,12,28,2.667641836
20.019130,-3,-21,-1,68,68,89,61,-2,2.667641836
