timestamp,sample_number,emg1,emg2,emg3,emg4,emg5,emg6,emg7,emg8
0.172830,0,-11,7,7,-3,-8,2,3,7
0.172979,1,-1,29,0,4,6,-2,-6,-2
0.176665,2,14,24,7,-1,2,1,4,6
0.176687,3,-14,-4,2,5,11,3,-2,-6
0.177639,4,18,43,-2,2,-6,-4,-1,2
0.177659,5,-17,-48,-9,-8,4,-2,2,-3
0.180396,6,17,-38,0,-1,-3,-2,-2,14
0.180422,7,7,25,10,2,-1,-1,-3,-26
0.182860,8,-36,74,-8,3,9,5,4,-8
0.182877,9,38,-82,-1,-12,-15,-6,-9,-2
0.194078,10,13,-36,-11,-2,8,-2,-3,0
0.194098,11,-4,35,8,2,8,1,-2,1
0.206966,12,8,-32,10,4,-7,-1,4,10
0.206991,13,5,38,1,0,-2,-4,-1,1
0.212703,14,-45,-16,-15,-5,-4,-1,-4,-6
0.212722,15,-11,-21,-10,-8,-8,-5,-3,3
0.221529,16,6,-34,-14,3,10,2,3,-3
0.221560,17,-2,19,7,3,6,3,2,5
0.251564,18,46,13,6,0,-17,-1,3,-12
0.251594,19,-64,-76,-18,-6,6,-6,-9,-1
0.252888,20,-5,20,2,-2,-6,0,-1,1
0.252912,21,-8,13,6,2,1,0,2,-3
0.266447,22,-28,74,-12,-2,1,2,3,0
0.266485,23,22,2,-1,-4,-12,0,-5,3
0.299122,24,-34,-3,-3,-3,-43,-3,-4,-3
0.299137,25,6,2,-12,4,9,2,2,11
0.299919,26,-7,10,24,8,4,3,3,2
0.299933,27,15,30,-5,4,14,3,-1,5
0.303012,28,-49,-97,-10,-3,-4,-3,0,4
0.303037,29,35,97,-8,-6,-8,-3,1,-1
0.303696,30,-30,-53,-5,0,-2,-4,-3,-3
0.303711,31,22,-25,-9,-5,-7,0,-2,-2
0.312316,32,6,34,12,9,18,4,3,7
0.312329,33,-27,-62,-15,-2,-2,-2,-2,-7
0.317694,34,27,68,8,4,4,4,6,12
0.317712,35,19,28,7,-4,-4,-3,0,-13
0.332813,36,13,-22,-6,0,12,2,-5,19
0.332836,37,-23,-94,3,-6,0,-3,-3,-25
0.340044,38,2,-9,-7,-5,-18,-4,-4,-7
0.340076,39,7,-9,-1,1,-5,-2,-1,9
0.350180,40,23,10,-4,-5,13,-1,2,-8
0.350192,41,19,31,17,8,5,4,2,8
0.371450,42,-37,-14,-11,3,12,4,2,1
0.371475,43,18,9,-10,-6,-15,-9,-4,7
0.372810,44,-4,30,17,0,-22,-2,-2,-2
0.372825,45,24,48,6,-1,-6,1,0,3
0.385018,46,-47,-108,-25,-2,3,-5,-7,-10
0.385038,47,-35,11,15,6,4,4,-4,6
0.394518,48,13,40,-6,-2,4,-3,0,-8
0.394533,49,34,11,-3,-10,-19,-4,5,11
0.408749,50,-26,-21,5,-1,3,-3,-10,-13
0.408775,51,-75,2,-5,5,32,9,3,-13
0.410234,52,-19,-53,2,-2,-40,-7,-4,-2
0.410248,53,3,-6,4,-1,-4,-4,-1,-1
0.431155,54,18,23,-4,-6,0,-1,3,14
0.431177,55,10,18,13,-1,16,-5,-1,-15
0.433005,56,12,-11,-6,3,16,7,1,-10
0.433034,57,-19,7,0,4,-4,2,-2,-1
0.453657,58,49,24,0,-11,-25,-9,-2,9
0.453699,59,-19,-6,1,4,5,2,7,23
0.455200,60,25,-8,-2,-3,8,-1,-2,-30
0.455212,61,9,-16,3,-1,0,-1,-5,-5
0.468791,62,-26,-41,-3,-4,5,-1,-9,-9
0.468824,63,-24,-23,-10,-7,-21,-2,2,-4
0.470292,64,-8,15,-6,-2,12,-6,-5,1
0.470306,65,-10,-13,-5,-1,6,-3,-3,-1
0.491382,66,13,33,6,4,3,7,8,-6
0.491407,67,36,21,-11,-5,-8,-2,-7,-1
0.493215,68,15,67,9,-6,-11,3,5,9
0.493228,69,-55,-33,-10,0,13,-2,-8,-20
0.513663,70,26,12,3,7,-6,-1,5,26
0.513688,71,-18,-30,-7,1,18,-5,-6,-33
0.515257,72,20,30,-1,-6,-4,1,1,11
0.515276,73,-3,-4,-5,-1,-9,0,1,3
0.528812,74,15,34,-3,-3,-13,-5,-6,-1
0.528841,75,-34,-25,12,-3,-8,-3,-1,-8
0.530346,76,38,-44,3,-3,4,-3,-5,1
0.530396,77,18,-12,-7,-1,2,-1,1,0
0.551251,78,0,14,-14,-4,5,-1,1,4
0.551267,79,56,24,23,6,-4,6,1,3
0.552745,80,-7,7,-11,-5,4,-8,-1,-10
0.552801,81,-1,13,-10,-3,-8,0,0,8
0.573585,82,28,34,6,1,3,-1,-2,-13
0.573597,83,14,-74,-4,1,-7,-1,-4,6
0.575246,84,-25,-20,-1,5,-10,5,4,16
0.575263,85,27,27,-3,-14,-9,-4,-3,-6
0.588720,86,-1,2,6,15,25,1,6,0
0.588732,87,4,38,1,-8,-21,-1,-1,3
0.594954,88,-3,-26,-8,5,19,1,7,4
0.595960,89,-17,30,5,-4,-6,-2,-8,2
0.611336,90,5,3,-5,-4,-5,-2,-5,-7
0.611358,91,8,-19,1,6,9,0,4,8
0.612731,92,-33,-51,-9,-11,-15,-5,-3,-8
0.612746,93,11,21,13,8,2,3,5,19
0.633736,94,0,31,1,-6,6,0,-2,-9
0.633752,95,18,17,-12,1,4,-2,-10,5
0.635291,96,-69,-47,-9,-4,-4,-2,2,-14
0.635304,97,-43,-26,8,7,-1,0,2,1
0.648104,98,35,9,-7,-8,-8,-3,-6,-5
0.648133,99,-26,-5,-25,-8,-7,-2,3,-4
0.654879,100,34,57,18,13,14,9,7,2
0.655441,101,-2,2,22,11,4,2,1,11
0.678839,102,7,-92,-21,-20,-25,-9,-11,-15
0.678860,103,9,45,5,-4,-22,-2,-3,4
0.680330,104,13,13,-11,-1,3,-2,-3,-6
0.680354,105,-8,-15,-12,2,12,2,4,1
0.693806,106,1,114,36,26,24,17,4,26
0.693826,107,21,-94,-12,-39,-19,-22,2,-12
0.695373,108,-9,-36,-11,7,2,-9,-14,-9
0.695388,109,3,-6,3,-2,-5,-3,-4,-9
0.708085,110,-24,15,-10,-4,3,2,4,7
0.708108,111,-3,27,6,5,10,8,1,2
0.714863,112,3,26,15,3,5,1,3,4
0.714885,113,-11,53,-6,-4,-22,-2,0,5
0.731606,114,-31,-20,-5,-4,1,-1,1,-8
0.731619,115,-76,-68,4,23,13,5,6,7
0.732714,116,45,76,-5,-9,-8,1,-2,-10
0.732732,117,5,-9,3,-10,-8,-11,-19,-8
0.753681,118,-19,-34,2,-4,-9,-4,-1,-20
0.753698,119,-8,-45,-7,6,-3,3,3,4
0.755465,120,34,127,43,16,14,5,10,36
0.755483,121,-46,-95,-23,-10,0,-4,-10,-31
0.768082,122,34,3,-11,-9,-5,-4,-5,-6
0.768139,123,31,35,-9,-2,7,4,-1,1
0.774853,124,-25,-11,0,2,10,-3,2,6
0.774876,125,48,31,14,-5,-4,6,5,21
0.792593,126,-37,16,-11,-2,0,-11,-14,-34
0.792607,127,-11,-18,-2,-2,-15,-1,-3,-10
0.792743,128,-1,-11,0,-4,-5,1,-1,4
0.792760,129,0,24,3,1,0,1,4,0
0.813742,130,-4,7,-8,1,3,2,4,11
0.813758,131,8,16,20,2,21,-3,0,13
0.815327,132,-13,-32,-2,-3,-12,1,-6,-25
0.815375,133,15,-9,-17,3,11,-4,-6,5
0.828471,134,1,2,-8,-7,-17,-3,6,2
0.828518,135,-8,-31,13,3,0,-4,-3,-6
0.834879,136,21,-57,6,-7,-16,-2,-1,13
0.834948,137,17,17,3,3,11,1,-2,-17
0.851208,138,10,-3,-2,0,2,0,1,10
0.852659,139,-24,-1,-5,-5,-5,5,6,33
0.852756,140,-26,25,-28,-6,1,-5,-14,-65
0.852792,141,20,6,-1,1,-15,-1,2,-1
0.873723,142,-15,-59,-6,-2,-8,3,-1,-12
0.873772,143,12,10,1,8,7,1,7,18
0.875326,144,13,65,10,-2,-1,1,0,13
0.875351,145,6,33,2,2,23,-6,-18,-2
0.888220,146,-22,-3,7,-6,-48,-6,4,-4
0.888257,147,7,37,-11,-7,-1,-2,0,-15
0.894905,148,-10,-66,-17,-1,5,1,-1,18
0.894928,149,-23,16,26,5,7,3,3,-14
0.911348,150,-23,-52,3,4,12,-1,0,26
0.911374,151,34,35,-13,-9,-13,-4,-6,-25
0.912708,152,-44,-60,-9,-5,12,2,-4,-3
0.912723,153,-7,16,-5,3,9,0,3,16
0.933760,154,39,24,5,1,8,5,-1,-13
0.933782,155,-77,-4,14,8,4,-1,-2,-16
0.935408,156,29,27,-25,-15,-14,-8,-6,-1
0.935425,157,0,-32,-8,1,14,2,5,0
0.949711,158,7,6,12,-3,-21,2,1,17
0.949728,159,35,71,10,1,0,-3,-3,5
0.955056,160,-77,-47,1,-1,-3,-4,1,-7
0.956213,161,-6,-48,-14,-7,-8,-6,-8,-11
0.971187,162,23,39,6,6,12,1,1,7
0.971206,163,17,7,-2,-1,-13,-1,-10,-4
0.972871,164,-31,12,2,-9,-3,1,7,4
0.972891,165,8,-7,-5,12,-10,-2,6,7
0.994313,166,7,-62,-8,-3,11,-1,-6,1
0.994332,167,20,-12,0,2,-3,-1,-2,10
0.995401,168,11,44,15,5,4,0,0,-12
0.995410,169,-52,-33,-13,-11,-7,2,3,-9
1.007402,170,3,4,0,5,10,-2,-4,-1
1.007423,171,-21,-6,-5,-6,-10,1,1,-11
1.016526,172,56,39,19,5,-9,-4,-1,29
1.016539,173,-39,-17,-1,-2,-1,4,5,-5
1.031112,174,16,-42,0,4,15,-2,-4,-1
1.031130,175,-26,-21,-2,-3,-9,-9,-10,-5
1.033308,176,1,5,-14,-5,4,2,5,-5
1.033321,177,25,33,5,4,0,0,1,5
1.054001,178,-24,17,1,-8,-1,-2,-2,-6
1.054024,179,42,-4,-12,-4,12,-1,-1,2
1.056149,180,38,13,22,14,-5,0,-3,0
1.056167,181,1,34,-5,-5,-2,1,4,19
1.067388,182,-14,-58,-10,-4,-2,-2,-4,-25
1.067417,183,9,13,-8,2,8,4,5,-6
1.077054,184,23,-69,22,2,-40,-4,1,13
1.077066,185,21,1,-4,-12,-23,-8,-12,-7
1.091168,186,-44,41,-5,-4,-9,-1,2,0
1.091189,187,-18,10,-2,1,15,2,3,8
1.092791,188,3,27,-11,-4,0,3,-4,-18
1.092814,189,19,-28,0,5,11,-3,-4,4
1.114358,190,-10,23,9,4,-1,0,7,-5
1.114378,191,38,5,-5,-6,-13,-4,-8,14
1.115816,192,-25,14,-8,1,2,-3,0,0
1.115829,193,-31,-63,8,-5,5,5,-1,-18
1.127371,194,44,30,-4,-5,1,-2,-5,4
1.127399,195,3,15,9,4,0,3,7,-2
1.136354,196,7,33,-4,-2,35,-5,-3,3
1.136365,197,-17,1,-5,1,-21,8,2,5
1.151498,198,9,9,3,-3,-7,-2,-4,-13
1.151513,199,-19,-34,-2,-6,-6,0,1,0
1.152913,200,-3,13,4,-4,-4,-4,-1,1
1.153041,201,23,28,6,7,40,-1,1,5
1.173774,202,-17,35,-5,-5,-7,-2,1,4
1.173795,203,-19,-77,-11,-6,-9,-2,-7,-14
1.175242,204,-12,-14,-18,-3,1,-4,-4,-3
1.175258,205,5,25,10,5,-7,-1,-1,2
1.187301,206,-12,-27,-2,2,1,3,5,11
1.187324,207,-1,23,7,-2,3,-3,-1,-4
1.197105,208,5,-17,-3,3,-2,6,5,12
1.197124,209,3,1,-9,-12,-13,-7,-4,-21
1.211185,210,16,14,4,2,2,1,0,7
1.211218,211,-8,-54,5,-4,-6,-4,1,-6
1.212806,212,10,16,-10,2,9,2,0,9
1.212827,213,35,31,8,3,4,-1,-1,2
1.233601,214,-10,-43,-11,-4,5,-3,-2,-1
1.233618,215,-1,49,2,5,10,2,5,10
1.235328,216,-1,-6,-4,-7,-16,-4,-8,-29
1.235340,217,-50,-33,1,3,6,0,1,-6
1.247339,218,-10,-74,-2,5,6,-1,1,9
1.247368,219,36,10,-10,-5,-11,1,-4,-2
1.257598,220,36,-7,-5,-10,-14,-3,0,4
1.257611,221,2,14,-8,0,-8,-2,0,-5
1.278780,222,-8,39,17,9,7,4,-7,4
1.278798,223,-38,24,-10,8,23,3,6,2
1.280224,224,10,-42,0,-4,-23,-2,-7,0
1.281098,225,-13,30,-6,-28,-38,-8,-3,-8
1.293272,226,10,-29,-7,18,24,-3,-3,-5
1.293303,227,8,19,7,-3,-1,1,-2,-3
1.299816,228,-23,15,-10,1,16,2,0,9
1.299834,229,8,21,10,5,6,2,1,-15
1.316387,230,20,41,0,-8,-20,-4,-3,5
1.316412,231,-23,-54,-27,-12,-8,-4,-4,-16
1.318100,232,-25,21,21,9,4,1,3,8
1.318113,233,1,-73,-4,2,6,1,2,17
1.339288,234,40,3,36,6,2,1,2,-14
1.339305,235,7,47,5,4,18,-3,-3,-1
1.340762,236,-5,-40,-7,-4,-19,4,-3,-9
1.340782,237,20,13,-9,1,24,2,11,11
1.352343,238,-7,40,-10,-5,4,1,-3,11
1.352365,239,-3,-30,-4,-11,-26,-10,-11,-18
1.362549,240,-26,-38,-5,4,25,4,2,-5
1.362566,241,9,11,1,-5,-14,-3,1,3
1.376303,242,21,21,5,7,17,7,8,16
1.376325,243,-16,13,5,-1,-26,-4,1,-1
1.377867,244,-27,-53,-8,-2,2,-9,-6,-10
1.377892,245,-3,-3,0,6,-6,0,-1,1
1.398659,246,-17,43,4,-11,-19,-4,-2,-10
1.398678,247,-5,-46,3,8,10,3,5,17
1.400147,248,78,13,-5,-1,8,-2,-3,-3
1.400160,249,-59,-12,5,0,-18,-2,-7,-25
1.412336,250,-2,-39,-31,-14,-15,-9,-10,-11
1.412357,251,23,91,19,7,4,5,4,-6
1.421756,252,-12,-34,-2,-1,-6,-1,3,13
1.421768,253,27,-37,-18,-2,7,0,1,-2
1.436277,254,-17,-17,-6,-6,-12,-2,-2,-11
1.436293,255,10,17,-5,5,21,5,5,6
1.437985,256,-13,39,0,2,7,-1,-1,0
1.438009,257,3,21,-2,-3,-10,-5,-3,1
1.458667,258,-34,-55,0,-13,-34,-5,-3,-4
1.458684,259,22,-13,-3,7,26,-1,-3,2
1.460477,260,-1,18,3,1,5,0,-5,-7
1.460505,261,-48,-7,-2,-1,5,0,-3,-4
1.472802,262,11,16,-5,2,8,3,6,2
1.472825,263,-22,-11,2,-2,-20,-4,1,-4
1.481614,264,14,-1,-1,-1,-3,-1,-1,2
1.481632,265,43,63,5,1,-5,0,0,19
1.496060,266,-41,-67,-4,-8,4,3,3,0
1.496071,267,-1,25,31,9,-7,0,-7,-19
1.504529,268,-28,28,-1,0,10,-4,2,1
1.504540,269,40,-10,-2,-4,-7,-6,-8,0
1.518725,270,-20,14,-9,-2,7,4,5,1
1.518746,271,-17,-16,-10,0,-2,3,-2,1
1.520218,272,2,5,8,6,12,3,5,3
1.520233,273,3,2,1,-4,-7,-4,2,5
1.532261,274,16,26,0,-3,-10,-3,-5,-1
1.532289,275,34,17,-3,6,1,1,3,1
1.541465,276,-24,-46,-13,-12,-19,-7,-7,-6
1.541476,277,-45,-77,-8,-3,12,-3,-8,-11
1.556265,278,24,-4,2,5,-11,-1,-1,-3
1.556287,279,-4,14,-3,-6,-4,-4,-1,1
1.557708,280,14,-1,9,2,-1,1,6,8
1.557730,281,-24,-12,-8,1,10,2,0,-6
1.578695,282,26,30,8,3,6,0,4,7
1.578717,283,-44,3,0,-5,0,-2,-2,6
1.580337,284,93,5,-4,-9,-14,-6,-13,-5
1.580394,285,-54,-56,-12,-5,11,1,-1,-6
1.592337,286,32,40,6,3,-6,-4,-3,5
1.592355,287,-12,-30,-17,-6,-6,-2,0,1
1.601555,288,4,41,3,2,-1,1,7,4
1.601568,289,20,26,9,4,6,4,3,7
1.616299,290,-14,4,2,4,9,0,-2,-5
1.616323,291,42,-48,6,3,-2,2,4,18
1.617800,292,-105,-59,3,1,10,2,2,-23
1.617814,293,44,0,-16,-21,-58,-7,-8,-6
1.638644,294,-4,-15,-10,-6,0,-4,-3,-4
1.638657,295,8,10,3,-7,-22,-6,-7,-3
1.640256,296,-4,25,10,10,22,2,3,6
1.640273,297,5,16,1,11,18,3,6,11
1.652450,298,28,49,5,0,3,-1,-1,3
1.652472,299,-50,-53,-12,-4,-7,-2,-2,-9
1.662058,300,7,-25,-1,-1,-5,-3,-10,5
1.662204,301,-10,51,13,5,-2,1,7,-6
1.684394,302,8,-46,-20,-9,-18,-4,-8,-2
1.684406,303,15,34,-6,-4,10,0,1,0
1.685155,304,-30,-8,-6,5,-3,6,5,0
1.685167,305,7,26,3,-10,-14,-13,-13,-9
1.699201,306,6,9,8,-2,20,-6,-1,6
1.699214,307,-7,-12,-6,-4,-9,-2,-7,-12
1.700618,308,10,-9,-2,-2,6,-1,2,6
1.700665,309,59,74,13,10,13,10,5,12
1.712356,310,-42,-90,-4,2,-8,-4,3,-13
1.712372,311,36,41,-10,-11,0,-2,-11,9
1.721490,312,-31,13,-4,-7,-9,-3,-1,-39
1.721501,313,19,13,10,8,16,1,6,23
1.736237,314,-49,-69,-22,-6,0,-1,-6,-23
1.736259,315,-6,46,15,2,-3,-5,-1,5
1.738344,316,27,-8,-2,-3,-11,-1,-2,16
1.738355,317,-17,38,9,2,2,1,3,-4
1.758850,318,-3,44,-4,1,3,1,1,6
1.758870,319,-5,-54,-4,12,4,4,5,-3
1.760682,320,2,6,-22,-8,-10,-3,-4,0
1.760702,321,-5,-31,13,0,-11,-4,-6,-5
1.772601,322,5,51,8,-2,-4,-1,-8,8
1.772629,323,12,-30,-11,-12,-27,-4,0,-21
1.782531,324,-40,-32,-3,2,0,0,1,11
1.782542,325,-5,-12,-14,-6,-3,-1,-3,-21
1.796254,326,-56,-59,-4,0,-4,-2,1,0
1.796275,327,2,44,11,2,7,-1,-4,-1
1.797782,328,38,21,-5,-3,-8,-2,2,2
1.797799,329,-20,-39,-4,4,10,4,-2,5
1.818758,330,33,-2,0,0,6,2,2,11
1.818779,331,-13,0,0,-3,1,-2,1,-11
1.820442,332,3,-45,4,1,2,1,0,5
1.820481,333,-3,-14,6,3,10,2,0,6
1.832268,334,-13,41,0,3,4,1,-3,-5
1.832284,335,1,-39,-23,-10,-12,-5,-1,4
1.841296,336,8,58,14,6,-1,-3,-7,-11
1.841310,337,-7,-27,-7,-4,-2,-2,1,0
1.856555,338,31,22,-2,-8,-5,-2,4,5
1.856578,339,-39,-1,14,6,9,3,0,0
1.857740,340,38,18,-9,-1,-2,0,1,-5
1.857758,341,-4,-34,-24,-11,-24,-11,-10,-6
1.879024,342,-9,5,4,7,14,3,-3,5
1.879046,343,17,74,-1,-2,0,0,7,10
1.880522,344,10,-42,4,-3,8,-3,0,5
1.880534,345,3,26,4,-2,-17,-2,-3,-4
1.901303,346,-6,-24,-6,-4,-10,-4,-5,-14
1.901324,347,20,19,9,0,5,-1,0,9
1.903075,348,-19,10,-7,2,7,4,0,1
1.903092,349,-17,-22,14,4,8,4,3,8
1.916315,350,-35,15,14,-1,-6,-2,2,-4
1.917774,351,20,-3,8,3,-12,2,-9,0
1.917849,352,-42,-22,-20,-1,6,-1,0,-1
1.917876,353,20,-37,-18,-8,1,-1,-6,-21
1.938702,354,14,25,1,0,-13,-1,1,2
1.938728,355,0,-22,-8,-3,7,0,0,-4
1.940905,356,17,47,17,1,1,0,0,10
1.940929,357,-22,-9,7,5,3,-1,2,-2
1.961456,358,36,-6,2,-2,3,-1,-1,2
1.961491,359,-41,-16,-6,-2,-3,-3,0,-5
1.962982,360,-18,-26,2,-4,-17,-3,-3,-3
1.963002,361,-13,44,-7,2,20,3,0,-1
1.976511,362,-3,-43,4,2,-1,-2,-5,-7
1.976554,363,11,-4,1,-1,9,3,6,6
1.978021,364,24,55,10,0,10,1,-1,-2
1.978040,365,-27,-68,-11,3,-15,-1,2,-2
1.998849,366,30,44,2,0,12,2,-2,7
1.998872,367,-25,-66,-4,4,4,-2,-4,-8
2.000525,368,-13,13,-1,-3,-4,-6,1,-6
2.000555,369,32,35,-1,-2,-6,4,5,8
2.021439,370,-3,-47,-13,-2,21,-5,2,0
2.021466,371,-8,-2,-4,-12,-29,-7,-20,-11
2.023043,372,14,13,-5,-5,1,-4,-2,-2
2.023111,373,-16,2,2,-3,16,2,-4,-6
2.035414,374,-12,12,-8,1,-3,-2,7,-1
2.035460,375,-14,16,12,4,7,0,6,-1
2.044313,376,15,-46,-2,-3,-20,-1,-10,22
2.044326,377,26,29,-2,4,11,-1,10,-7
2.058765,378,-2,7,15,0,-7,-1,-30,-20
2.058793,379,-52,-2,-13,-5,-4,-4,2,0
2.060378,380,4,-11,-2,-3,-9,3,-1,-5
2.060396,381,28,26,-5,1,4,-1,4,7
2.080296,382,-6,-17,5,0,-8,2,8,5
2.080315,383,38,8,9,5,6,-1,-3,5
2.089396,384,-41,20,-1,-5,4,0,4,-6
2.089408,385,1,-19,-2,0,-26,-2,-3,3
2.095514,386,-17,-10,1,0,13,-3,-3,8
2.095530,387,-8,-8,-11,5,3,4,3,-8
2.109762,388,5,11,5,-6,-14,-7,0,-3
2.109781,389,-9,-6,-6,1,0,-3,-5,-7
2.118871,390,2,21,-10,1,9,6,5,13
2.118892,391,13,31,17,-6,-13,-2,1,-6
2.120271,392,-6,-56,-21,-4,-6,-7,-8,-14
2.120310,393,17,-25,0,-2,11,0,-5,19
2.141580,394,20,-42,-10,-7,0,-2,-2,-32
2.141620,395,32,9,-6,1,13,0,1,10
2.142757,396,-53,10,2,3,-4,1,0,-16
2.142786,397,17,14,3,-5,1,-2,-1,7
2.155757,398,-47,42,6,2,-11,0,3,7
2.155774,399,-14,-41,-15,-5,5,-4,-2,-8
2.162412,400,29,25,-6,1,-19,0,-4,0
2.162492,401,1,-38,25,4,-1,0,2,0
2.178629,402,29,26,-2,-3,-6,-1,-5,-2
2.178648,403,4,51,-3,-8,-16,-4,-2,-2
2.180311,404,0,-7,6,9,26,5,5,8
2.180329,405,-28,20,-7,-6,-9,3,1,0
2.208955,406,24,-24,4,-1,-12,-1,1,-4
2.208998,407,33,29,19,12,0,-1,4,23
2.211311,408,38,-43,-19,-8,1,1,-6,-18
2.211326,409,5,17,14,1,11,-1,-4,-9
2.215580,410,-16,-55,-11,-1,-5,-4,2,-6
2.215606,411,19,35,2,-1,8,2,-1,14
2.222631,412,-18,-11,7,6,6,0,4,1
2.223967,413,11,-17,-8,-1,-7,-8,-12,-1
2.238752,414,5,40,5,-4,-4,0,5,3
2.238836,415,9,-30,-9,3,0,2,4,4
2.240530,416,-1,-58,-17,-9,-9,-4,-6,-8
2.241738,417,-5,-39,5,1,3,-1,-1,0
2.261324,418,-5,27,-1,0,-11,-1,-4,2
2.261346,419,5,5,2,1,11,6,4,-2
2.262873,420,-30,50,23,14,12,6,12,13
2.262900,421,44,-1,-30,-17,-33,-9,-19,-24
2.275638,422,6,-6,1,4,14,1,6,8
2.275657,423,-27,-5,-9,-4,-2,0,-5,-8
2.282643,424,12,-10,5,-3,5,-4,0,6
2.282668,425,-7,24,11,8,0,1,2,5
2.298887,426,-18,-24,-2,-4,-17,-2,-3,-5
2.298920,427,-7,-20,-7,-2,6,-1,1,-2
2.300575,428,19,35,6,0,-6,0,-1,5
2.300604,429,-27,17,-12,-3,11,-1,3,-2
2.321925,430,-30,-31,0,-4,3,0,-1,-3
2.321958,431,-15,-23,-5,-1,7,-3,4,-6
2.323302,432,25,4,-6,-3,-20,0,-7,-7
2.323321,433,20,2,13,2,6,4,5,8
2.335780,434,7,15,-14,1,8,0,-6,-9
2.335812,435,31,-50,-9,-15,-20,-13,-8,-9
2.343589,436,-48,-8,8,-3,2,-4,-2,2
2.343605,437,-15,29,4,-3,-1,-4,-4,-13
2.358659,438,13,21,0,2,-8,0,2,2
2.358674,439,-7,-23,-5,2,10,3,-4,-8
2.360249,440,33,70,-3,-3,4,-2,-1,4
2.360268,441,-23,-52,-2,-2,-10,1,7,8
2.381203,442,-30,-15,5,-3,11,-5,-6,-6
2.381222,443,9,29,1,1,-6,-1,-1,-2
2.382886,444,-4,10,6,-1,2,-3,-4,1
2.382906,445,-39,-27,-14,-4,7,2,-1,-2
2.394893,446,-13,-7,6,-2,-7,-2,2,-1
2.394913,447,0,54,14,9,34,2,0,5
2.404537,448,-4,-10,-3,-3,-13,3,4,-2
2.404552,449,10,-39,1,-1,2,-1,1,0
2.418762,450,11,11,2,4,-4,-1,0,4
2.418784,451,-5,13,-2,-7,-4,-3,-2,-5
2.420356,452,2,-21,-6,-2,14,5,-3,-3
2.420375,453,0,47,1,0,8,-1,3,3
2.441286,454,16,-35,-11,-8,-20,-2,-2,8
2.441309,455,-19,0,2,-5,-10,-5,-7,0
2.442784,456,-20,-30,-7,-1,-3,-3,-2,-11
2.442800,457,23,31,3,3,-4,-1,-8,0
2.455273,458,-16,-31,-9,-1,3,1,3,-2
2.455305,459,23,17,14,4,-2,3,3,7
2.463760,460,-5,-5,-8,0,3,-3,-2,-6
2.463772,461,-21,4,-3,-6,-4,-5,1,-2
2.478766,462,26,38,-5,-6,0,-3,-13,-11
2.478782,463,-31,-43,-7,-4,-28,1,-1,-6
2.480246,464,39,18,11,5,2,-1,1,11
2.480263,465,-10,30,3,4,-10,2,7,4
2.501144,466,29,-17,-4,1,3,0,5,-3
2.501165,467,-17,-9,0,-3,-2,-5,-8,-3
2.502752,468,14,-18,4,0,3,4,11,1
2.502768,469,-4,-11,-9,-7,-14,-8,-16,-11
2.515020,470,-1,22,5,3,12,0,1,7
2.515038,471,3,-3,-9,-2,-11,-5,-5,-1
2.523887,472,-17,23,11,-1,-1,-2,4,-1
2.523899,473,14,-42,-8,-2,4,0,-1,-4
2.538897,474,-24,7,-3,3,-1,2,4,4
2.538918,475,-7,14,9,-6,19,-4,-1,-9
2.540222,476,1,2,6,4,-21,3,0,12
2.540237,477,-19,42,-11,1,3,0,3,0
2.561230,478,-31,-6,12,1,1,0,-4,-9
2.561250,479,19,-59,-2,2,-3,2,4,2
2.562920,480,21,3,-7,-5,9,-4,-7,-7
2.562939,481,-14,-10,8,4,5,1,2,5
2.574864,482,16,67,1,3,-7,1,1,8
2.574880,483,24,11,-11,1,-6,2,-5,-4
2.584420,484,2,-8,2,-7,-7,-6,10,6
2.584439,485,-38,-1,-4,-2,-11,-2,-10,-10
2.622486,486,33,-9,-2,-1,11,-1,6,2
2.622507,487,-21,-33,-6,4,0,0,-12,0
2.624105,488,-21,13,9,-2,3,2,-1,-11
2.624121,489,17,4,0,2,5,-1,8,5
2.625035,490,-29,-5,8,-1,3,1,0,15
2.625054,491,-6,-96,-25,-9,-20,-7,-4,-19
2.628849,492,16,51,-6,-4,11,-6,-10,-5
2.628867,493,-30,-15,9,6,11,4,3,1
2.634934,494,25,-31,-10,3,-7,5,2,5
2.634966,495,-16,51,17,2,-21,0,10,8
2.643777,496,-33,-24,-14,-12,-14,-10,-8,-8
2.643819,497,24,-8,0,-3,-3,0,-3,-2
2.658639,498,14,-5,-1,6,12,0,0,-1
2.658654,499,-28,53,3,-2,-7,0,-2,-3
2.660262,500,-7,-26,2,6,6,0,-2,6
2.660427,501,14,-39,-12,-9,-2,-4,1,-5
2.681263,502,-2,37,5,-1,-2,1,1,-3
2.681282,503,-16,-4,4,3,1,6,12,10
2.682824,504,-2,-33,-8,-11,-4,-12,-20,-16
2.682846,505,-19,3,2,7,6,0,-2,2
2.694968,506,7,-30,-9,-7,-5,-3,-4,-5
2.694989,507,8,31,-6,4,13,5,6,4
2.704530,508,44,-30,-6,-9,-14,-3,-4,-4
2.704550,509,5,50,18,-2,-7,-3,-1,-4
2.720514,510,-28,-36,-6,-5,-8,-5,-8,-3
2.720527,511,-22,5,15,6,16,1,3,-14
2.720530,512,-37,22,-29,-8,-5,3,1,-1
2.720531,513,57,4,3,0,3,-8,-5,12
2.741225,514,-52,28,10,-2,-10,1,9,-14
2.741242,515,39,-12,-11,-4,17,-9,-13,-7
2.743166,516,18,-3,5,8,-19,6,3,5
2.743204,517,-13,19,4,0,-4,-3,-1,-3
2.754887,518,-12,-16,-13,-12,-21,-10,-10,-5
2.754908,519,18,-12,-6,-5,6,-2,0,5
2.764302,520,-2,4,0,0,9,-1,-4,-8
2.764315,521,-10,-4,-5,-1,3,2,3,2
2.779481,522,13,7,6,11,5,2,-2,-2
2.779511,523,-7,13,0,-5,-6,-1,0,3
2.781074,524,6,0,2,6,1,-1,0,4
2.781093,525,-12,-43,-5,-2,-2,4,-6,-2
2.801163,526,4,-14,1,-3,0,1,3,-1
2.801180,527,-21,-19,0,0,-11,-2,-1,1
2.802674,528,0,-4,-7,-2,6,2,10,0
2.802692,529,-11,22,4,-6,8,-2,-11,-7
2.823473,530,22,22,-12,8,0,3,-2,-1
2.823491,531,15,15,-20,-6,12,-2,2,7
2.830451,532,-12,-33,21,8,-8,0,0,6
2.830468,533,29,6,-10,-1,3,2,8,0
2.838123,534,-7,-23,4,-6,-5,-5,-7,-5
2.838145,535,-13,30,-2,-1,-5,0,-3,-4
2.839107,536,-38,1,4,1,18,0,-3,0
2.839118,537,-12,-15,-8,0,-5,-1,5,4
2.861130,538,15,34,5,-3,4,-2,3,9
2.861149,539,24,-44,19,3,-22,-6,-6,-1
2.861256,540,3,-58,-6,0,17,6,-2,-5
2.861307,541,-12,15,0,-2,9,-3,-9,-6
2.883210,542,-5,16,3,-1,6,6,6,20
2.883236,543,-10,-31,-4,3,2,-1,2,-18
2.884226,544,21,54,-23,-5,-13,-2,-2,-1
2.884250,545,7,-1,17,6,17,2,13,4
2.898339,546,9,22,-1,-6,-14,-7,-17,0
2.898370,547,11,-21,-1,-1,4,-2,-3,-3
2.899374,548,-21,0,9,1,2,-1,-3,4
2.899391,549,-1,-12,-16,-6,-15,0,8,-2
2.920533,550,-39,-29,-8,-4,10,0,1,-6
2.920550,551,2,2,3,1,-8,1,-3,-7
2.921353,552,-17,-6,1,-3,-9,-4,-4,-1
2.921359,553,12,33,-1,1,-8,-5,-3,4
2.943053,554,4,1,3,-1,-9,-5,0,-4
2.943071,555,11,30,-5,-4,13,6,-1,12
2.943700,556,-10,-3,3,6,2,1,12,-2
2.943716,557,39,-17,-5,-8,-11,0,-4,-3
2.957280,558,-17,-52,-10,1,3,-6,-11,-21
2.957296,559,-19,-15,2,-1,3,-1,0,-3
2.965583,560,5,46,8,2,-5,-5,-4,-4
2.965624,561,-16,-64,0,-3,-8,-2,-2,3
2.980448,562,24,26,-1,-5,4,2,4,-3
2.980465,563,-1,-4,-8,-3,-9,-6,-3,-4
2.981295,564,0,21,-1,1,3,1,2,4
2.981308,565,5,0,-2,4,1,0,-2,2
3.003905,566,-7,25,10,1,6,-1,3,2
3.003916,567,-8,-23,3,2,-16,3,5,17
3.010823,568,22,8,-7,-8,14,-11,-9,-10
3.010856,569,-75,-41,-19,-12,-29,-5,-9,-22
3.018832,570,15,4,-3,-1,-2,0,-2,0
3.018844,571,-4,9,3,2,8,0,12,7
3.018845,572,17,16,2,4,6,1,-15,5
3.018847,573,-16,17,2,1,-1,0,3,3
3.040463,574,-10,38,6,9,4,0,6,4
3.040480,575,-11,-43,4,-5,1,2,-4,5
3.041342,576,24,30,-13,-12,-19,-8,-2,-11
3.041348,577,34,-16,-4,-7,-5,-5,-5,-5
3.063325,578,13,7,-5,-1,-2,-1,-6,-6
3.063345,579,8,31,0,3,9,-2,1,4
3.064601,580,0,8,9,2,-1,1,4,2
3.064625,581,-4,16,6,1,5,3,2,3
3.078353,582,9,-13,-5,-5,-1,-3,2,4
3.078373,583,4,11,-5,1,23,-5,-7,-9
3.079780,584,7,-6,10,10,-20,8,8,4
3.079792,585,5,76,13,6,27,8,9,10
3.100566,586,-41,-50,-16,-19,-57,-19,-16,-30
3.100590,587,8,5,-12,-4,30,1,-4,-1
3.101123,588,-6,-50,-5,0,-19,-9,0,4
3.101136,589,29,25,6,8,11,3,1,5
3.122756,590,23,76,8,-2,3,2,4,9
3.122774,591,-8,5,4,1,-11,-1,0,0
3.130478,592,-12,-2,6,-1,11,3,2,0
3.130497,593,5,22,1,1,-8,-2,-3,2
3.138134,594,-6,-78,-17,2,10,3,1,1
3.139273,595,0,27,9,-3,-16,-4,-4,-8
3.139285,596,-8,5,2,0,8,2,1,1
3.139287,597,-17,4,2,-3,-25,-8,-8,-9
3.160909,598,-3,-6,-8,-3,3,1,-6,-1
3.160923,599,0,-23,-10,-8,1,-4,-2,-4
3.161249,600,6,-7,4,4,-2,1,0,-3
3.161401,601,8,10,4,1,4,-3,0,-2
3.183178,602,3,15,5,5,12,0,1,5
3.183195,603,30,20,6,2,6,7,6,4
3.184247,604,-8,24,12,8,8,-2,1,10
3.184255,605,-30,-96,-32,-14,-15,-7,-10,-23
3.198399,606,-30,28,9,-1,-4,-2,1,8
3.198421,607,-9,-101,-32,-15,-30,-11,-12,-20
3.199703,608,-7,3,-6,-6,12,-2,-4,-5
3.199716,609,34,38,13,10,12,3,7,10
3.220565,610,21,14,8,1,5,3,3,4
3.220581,611,-14,31,4,2,-1,1,2,1
3.221689,612,1,2,6,-1,-4,1,1,1
3.221704,613,-15,5,1,0,12,-2,-2,-1
3.242923,614,7,-75,-7,-4,-16,2,-4,-7
3.242944,615,-20,42,1,2,-4,0,1,7
3.244027,616,18,-33,-19,-5,-2,-4,0,-6
3.244049,617,-16,9,7,-6,-10,0,-4,0
3.257980,618,1,35,8,4,9,0,4,-1
3.257998,619,6,-18,0,6,-3,-1,-1,-7
3.258893,620,16,20,2,-4,-11,-3,-1,0
3.258901,621,9,-51,-25,-11,2,-5,-7,-10
3.280461,622,-18,3,7,-2,-2,0,3,0
3.280484,623,19,22,7,5,-5,1,1,2
3.281591,624,-17,12,6,7,16,2,1,3
3.281604,625,13,7,1,-1,-6,1,2,-1
3.303833,626,2,-9,1,0,3,2,-1,9
3.303845,627,19,7,-6,-7,-12,-2,-2,-3
3.303847,628,0,64,5,-11,-17,-2,-1,-3
3.303849,629,-14,-25,-6,2,12,2,-1,3
3.318943,630,18,7,-2,4,6,3,5,-7
3.318955,631,-13,50,9,1,20,-3,-4,10
3.318957,632,3,3,-7,-3,-9,2,-5,3
3.318958,633,35,-5,-6,0,-4,-3,0,2
3.340730,634,-30,-8,0,-1,7,1,-10,1
3.340764,635,-5,-1,3,3,-4,-3,-2,-7
3.342735,636,2,-68,-11,-5,3,-1,6,4
3.342748,637,-9,40,-1,-1,-6,0,6,-6
3.363005,638,7,-6,-3,0,12,3,-10,-4
3.363021,639,-11,3,-3,-1,-8,-3,1,-17
3.363880,640,1,-31,-6,-6,-9,-3,-5,2
3.363889,641,5,13,9,0,2,0,-1,7
3.378085,642,29,29,5,13,5,3,13,8
3.378111,643,-24,-28,-10,-6,-8,-5,-7,-2
3.379287,644,-38,-19,-6,-3,12,-3,-6,-13
3.379303,645,12,6,10,4,-3,7,10,11
3.400606,646,4,-10,-8,-2,2,-2,0,-3
3.400622,647,22,11,1,-7,-9,-6,-5,-2
3.401168,648,14,2,-6,2,9,0,5,1
3.401204,649,-29,-16,0,-3,-7,-2,-7,2
3.431166,650,1,3,5,-2,2,-6,-2,-10
3.431183,651,10,12,-2,5,18,9,6,4
3.431851,652,-5,22,-5,-2,-6,-4,1,-3
3.431861,653,-8,-10,9,-3,-22,-9,-15,-9
3.437365,654,17,21,0,0,4,5,6,4
3.437395,655,-30,-76,-10,-7,-1,0,2,-6
3.445552,656,24,27,8,5,-8,7,5,1
3.445575,657,-67,-19,-14,0,-3,-9,-5,-5
3.460533,658,-22,-1,-5,-5,-5,-5,-8,-3
3.460558,659,2,20,8,2,-12,1,-2,-1
3.461172,660,10,-10,-4,0,8,0,3,1
3.461209,661,13,83,5,3,7,3,4,2
3.483076,662,-9,-26,-8,1,3,-1,0,2
3.483096,663,8,-7,-11,-12,-10,-3,1,-1
3.484105,664,24,-28,2,2,-14,-1,-4,-3
3.484115,665,2,33,12,7,17,0,0,-7
3.497336,666,-25,-24,-9,-9,-11,-6,-7,-6
3.497360,667,21,33,9,2,7,3,-2,13
3.506225,668,-8,5,-2,2,1,0,2,-6
3.506240,669,-14,-28,-5,-9,-8,3,-2,-3
3.520399,670,25,-28,-4,8,0,-3,0,5
3.520419,671,-21,-1,13,4,7,-2,8,3
3.521674,672,-53,-24,-3,-6,-28,0,-21,-12
3.521686,673,10,-16,-8,-5,-3,-4,-2,5
3.543048,674,15,27,5,-1,4,1,1,-11
3.543075,675,-16,25,4,1,-15,-1,5,2
3.544506,676,-5,-27,-12,-2,9,-1,-2,5
3.544517,677,7,-13,3,-2,8,-1,-1,-6
3.557460,678,11,26,9,-1,-12,2,2,5
3.557491,679,-21,-35,-13,-6,-15,-6,-8,-3
3.565740,680,-15,-51,4,-6,3,-4,2,-7
3.565775,681,0,-32,-24,5,-6,0,-3,3
3.580493,682,41,18,0,1,1,-2,5,1
3.580515,683,-20,-22,12,5,9,2,-1,0
3.581414,684,-15,40,-9,-3,3,-1,-3,-1
3.581422,685,17,-5,3,-2,6,0,2,8
3.602970,686,-57,-76,-18,-5,-2,0,1,-1
3.602987,687,23,24,5,1,-3,-2,-4,-7
3.603739,688,-1,71,10,-5,5,-6,-1,6
3.603781,689,-29,-54,-6,0,-12,0,-2,-2
3.618864,690,-1,20,-1,-7,-1,4,-5,-1
3.618883,691,3,9,-3,1,1,0,1,4
3.625563,692,1,-40,-6,-4,5,1,-1,-7
3.625582,693,19,31,1,-4,5,-3,0,1
3.640642,694,-23,9,9,3,-1,-2,-5,-4
3.640658,695,-58,-26,-15,-7,-14,-7,-13,-15
3.641526,696,12,49,6,4,10,2,1,4
3.641532,697,0,-2,4,-1,-6,-3,-1,0
3.663934,698,30,-15,-2,2,23,-3,8,10
3.663946,699,20,14,-1,-3,4,6,-9,-1
3.663947,700,-18,24,3,5,-1,1,11,5
3.664045,701,43,37,1,-10,-9,0,-3,-2
3.677449,702,-37,-16,-12,-7,-13,-8,-7,-10
3.678100,703,3,-18,15,8,7,2,3,0
3.685604,704,-16,-92,-13,-4,4,-3,-8,-8
3.685625,705,-5,27,-2,2,6,2,5,4
3.700284,706,29,36,19,-1,4,3,0,4
3.700331,707,25,13,-2,1,-10,-1,1,-2
3.707946,708,-2,-21,-3,-6,-19,-4,-2,-2
3.707962,709,-5,-20,0,1,2,0,1,-6
3.723210,710,-22,-14,0,1,-10,1,2,10
3.723229,711,38,48,-3,2,-1,-1,1,1
3.724481,712,6,7,-3,1,38,1,-3,0
3.724491,713,25,13,6,-1,-10,2,0,-4
3.746456,714,5,18,-6,0,-5,-1,-5,-2
3.746486,715,-11,-13,-1,-5,4,-1,-3,1
3.746957,716,-14,22,-1,2,-12,-5,4,-1
3.746976,717,-12,-12,-11,-3,6,0,8,-1
3.760551,718,26,-10,-3,-1,-8,-1,-5,1
3.760563,719,14,-2,4,3,3,1,-2,-6
3.761113,720,10,17,-5,-1,-7,2,1,7
3.761127,721,-17,8,12,1,9,-4,-3,-7
3.783198,722,-4,45,8,0,-17,1,6,-4
3.784580,723,37,-21,-22,-6,18,4,5,0
3.784596,724,-4,-25,5,1,-6,-1,-5,-6
3.784598,725,4,8,-8,-1,3,-2,-2,5
3.806357,726,-5,4,3,1,3,-2,-2,1
3.806379,727,-31,10,-9,-10,-33,-3,-3,-6
3.807043,728,8,-64,5,4,8,5,2,5
3.807066,729,7,-27,-14,-3,3,-6,-8,-13
3.820670,730,-47,52,5,-4,5,1,2,-5
3.820699,731,20,-2,11,5,3,-2,2,8
3.821809,732,-42,21,2,-6,-14,-5,-7,6
3.821823,733,15,15,9,2,-12,-1,1,-5
3.842952,734,6,-67,-5,-3,1,-2,-4,-10
3.842969,735,-22,13,-2,-1,4,-2,-1,5
3.844151,736,25,63,4,5,7,6,8,0
3.844166,737,-13,-28,8,3,8,2,-14,-1
3.866275,738,3,-19,-10,-6,5,-5,-2,-2
3.866296,739,-7,25,-8,-6,-8,-4,1,5
3.868476,740,18,-2,-3,1,5,-3,0,-1
3.868495,741,-3,23,6,-1,-21,3,4,4
3.880643,742,-11,-21,-5,-1,-2,-2,0,-7
3.880660,743,50,5,5,2,3,0,1,0
3.881710,744,-83,-38,-14,-6,-4,-5,-8,-7
3.881719,745,-4,-72,-4,-4,-1,-5,2,-9
3.903096,746,26,-12,2,-6,-6,-1,-3,-9
3.903117,747,2,20,5,5,-2,-2,1,7
3.903714,748,39,6,-2,-2,-13,0,0,7
3.903774,749,2,24,1,3,19,0,-2,-3
3.926410,750,-35,6,-5,2,-5,-2,0,-1
3.926448,751,-8,-48,-6,-1,8,-2,-3,-3
3.928044,752,11,6,10,4,4,2,7,-2
3.928058,753,-37,1,-3,-1,-9,-2,-2,6
3.940664,754,30,27,-6,-2,-6,-1,1,3
3.940699,755,-50,-52,0,2,12,4,2,-9
3.941772,756,2,12,-1,-6,-12,-7,-7,4
3.941780,757,8,13,-2,-3,-1,2,2,0
3.964809,758,15,10,14,8,1,-1,1,10
3.964822,759,-13,-14,-14,-12,-24,-8,-14,-14
3.964824,760,13,10,-2,1,-13,-1,0,-9
3.964825,761,11,-47,2,0,0,-2,3,6
3.986298,762,-9,-32,-3,0,5,2,4,-4
3.986320,763,-19,-29,1,0,2,-1,1,8
3.988149,764,13,-35,-13,-4,-3,-1,-3,-12
3.988161,765,-38,62,8,3,6,-1,-2,-4
4.000549,766,12,-2,-7,-11,-16,-6,-5,4
4.000571,767,4,18,7,3,4,1,1,1
4.001287,768,-2,28,-2,0,8,-2,0,0
4.001303,769,0,-39,-4,1,3,2,-2,3
4.038859,770,13,-33,-3,-4,-8,-3,-3,4
4.038875,771,-6,39,4,1,17,3,-3,-20
4.039965,772,5,6,9,0,3,1,6,4
4.039976,773,15,34,-4,-6,-9,-4,-6,4
4.053757,774,-52,-60,-8,-4,-7,-1,-4,-8
4.053781,775,0,13,-3,0,-2,3,4,3
4.055338,776,18,-10,-12,-2,3,-3,-4,-2
4.055358,777,13,-6,12,3,1,0,-1,-2
4.060577,778,6,51,-2,-3,5,-4,0,6
4.060593,779,8,12,4,4,-21,-1,3,8
4.061133,780,-25,-19,-7,3,4,-1,-3,-9
4.061151,781,14,9,-9,-8,-9,-1,3,0
4.083055,782,-4,0,3,1,7,-1,-3,-3
4.083077,783,-2,-7,1,0,-2,-1,1,1
4.084323,784,21,8,-5,-5,0,0,-3,5
4.084334,785,11,9,12,0,-3,-1,3,-1
4.107017,786,-31,1,-4,12,6,1,0,10
4.107052,787,14,-41,-10,-5,-2,-6,-14,-10
4.107986,788,-17,3,-5,-9,-12,-5,-2,-2
4.108024,789,-7,-47,-4,-2,5,1,-2,-6
4.121593,790,33,38,-4,-6,-7,2,5,-4
4.121616,791,-32,-1,6,5,11,-2,0,9
4.121618,792,16,35,1,-3,17,0,0,1
4.121620,793,-21,-25,-5,-4,-13,7,3,-6
4.143221,794,29,18,5,3,-9,-3,-10,-4
4.143242,795,-10,-43,-8,0,8,1,5,7
4.144539,796,55,17,10,3,5,-1,-6,-6
4.144550,797,-44,-45,-9,-3,-9,-5,-1,-15
4.167117,798,10,-17,-2,-4,0,-1,-4,-1
4.167130,799,-11,4,-5,-1,-4,-3,-4,-2
4.167132,800,-7,-3,3,-1,-10,-3,1,2
4.167177,801,33,51,-4,1,6,0,-1,8
4.180728,802,-6,-10,10,4,2,-1,-1,-4
4.180748,803,18,44,-10,-10,1,2,6,10
4.182098,804,-29,-50,6,6,3,4,0,-5
4.182112,805,2,-38,-3,-2,-7,-4,3,9
4.203360,806,-29,-10,-10,-6,-11,-4,-9,-13
4.203386,807,17,1,3,-6,-26,0,-5,-8
4.204400,808,-24,35,2,1,-15,-4,4,2
4.204423,809,4,51,-2,6,36,4,-2,4
4.226211,810,17,1,-3,2,-10,-4,8,0
4.226228,811,6,8,6,4,15,1,2,2
4.227182,812,-61,-24,-5,-1,-4,3,-5,-5
4.227192,813,1,-11,-3,-3,-9,-5,0,-8
4.240416,814,7,32,8,-1,9,1,2,10
4.240440,815,12,-4,-2,-2,-4,-5,-4,3
4.248405,816,7,30,2,2,-3,-5,-4,-22
4.248430,817,21,18,-2,0,2,-1,0,9
4.263068,818,-14,-11,-4,-4,7,0,-2,-4
4.263089,819,19,46,4,2,4,-1,0,2
4.263734,820,-5,-82,-1,-1,-20,0,4,11
4.263757,821,-29,18,-14,-4,-10,-1,-7,-7
4.286237,822,-7,-17,-5,-2,1,0,-2,-4
4.286253,823,31,8,11,5,4,1,0,3
4.287732,824,10,37,-3,-4,6,-4,-1,2
4.287746,825,-29,-36,4,3,4,6,1,-1
4.300553,826,-21,9,4,-3,-11,-2,4,8
4.300578,827,-66,-47,-21,-9,5,-5,-7,-19
4.302124,828,27,14,4,0,5,0,0,0
4.302136,829,11,-22,-1,-3,-16,-4,-4,3
4.323674,830,-5,-44,2,0,7,2,3,-3
4.323685,831,-32,-12,1,2,0,-1,1,2
4.323687,832,-3,-7,-1,4,1,0,-4,-1
4.323737,833,24,40,-4,-4,2,-2,-1,0
4.346266,834,-25,8,5,-3,-4,-3,-3,-5
4.346282,835,48,-4,3,-2,1,-1,-1,2
4.347723,836,-46,19,-8,-1,25,1,-2,-4
4.347745,837,30,-7,3,3,3,6,0,6
4.360106,838,13,10,-1,1,-4,-1,-1,-6
4.361005,839,-5,21,-5,-10,-18,-9,-3,-1
4.367953,840,20,15,7,3,6,1,0,3
4.367973,841,-13,-31,-4,-6,-5,-3,4,-7
4.383122,842,-7,9,-5,3,8,2,-10,0
4.383144,843,-24,0,8,5,6,4,-2,-2
4.384473,844,27,-21,-4,-2,-7,-5,-2,-6
4.384486,845,-14,-13,0,-2,4,1,-1,2
4.406408,846,50,10,-3,-2,-5,-1,0,1
4.406435,847,-26,39,1,-5,1,-1,-2,-3
4.407418,848,21,-13,-4,1,-10,-1,-1,8
4.407430,849,-8,20,-3,-6,19,-4,-6,-9
4.419901,850,0,7,3,2,-13,6,7,5
4.419924,851,39,33,4,2,-7,-6,-5,-2
4.428195,852,-25,-40,-7,-6,-5,-3,-5,-6
4.428218,853,10,36,-6,3,-1,-3,7,10
4.443528,854,-53,-67,7,-2,1,-4,-3,-10
4.443550,855,18,-13,-10,-7,-4,-2,-2,5
4.450508,856,48,17,2,0,-1,4,0,-2
4.450529,857,-33,-37,3,0,5,0,-1,-2
4.466209,858,17,55,-2,3,5,-1,1,8
4.466230,859,0,-38,4,0,-4,3,-2,1
4.467028,860,23,4,-7,-7,-2,-1,13,3
4.467040,861,-28,-32,1,1,-5,-1,-19,-8
4.479899,862,10,20,-3,-1,4,0,4,-2
4.479930,863,-11,-6,1,2,-2,0,0,-1
4.488160,864,-49,23,0,-2,-2,1,-1,4
4.488190,865,15,13,8,0,-5,0,6,1
4.503120,866,6,-4,4,5,3,1,0,1
4.503145,867,18,-9,-7,-4,-7,-5,-4,-2
4.503693,868,-7,-10,8,1,-10,-1,2,-1
4.504986,869,-26,-22,-9,-12,-13,-8,-4,-1
4.526311,870,18,-17,-10,-10,1,-6,-5,-5
4.526335,871,0,40,-4,4,7,7,9,6
4.527659,872,-27,-45,8,8,11,0,-1,0
4.527673,873,15,-8,-14,-7,-18,-2,-3,-5
4.539789,874,-17,6,1,1,12,-5,-3,-1
4.539846,875,-3,21,-1,1,16,3,-1,-4
4.548017,876,-4,-16,2,-5,-4,-1,2,1
4.548066,877,18,10,0,4,-1,1,-2,-1
4.562936,878,-25,-10,5,-2,-6,3,0,-2
4.562955,879,17,5,1,1,9,1,-2,0
4.563619,880,8,24,-8,-6,-25,-1,-2,-4
4.563656,881,39,9,3,-6,-11,-9,-3,-4
4.586300,882,13,-12,-1,2,5,-1,-1,1
4.586317,883,-33,24,2,0,4,3,0,0
4.587272,884,26,-20,3,-3,3,1,1,7
4.587283,885,-4,7,0,5,3,0,0,1
4.599808,886,-12,27,13,2,-5,0,1,0
4.599830,887,3,-71,-22,-3,-10,-2,-1,-5
4.608188,888,25,55,16,5,8,2,2,4
4.608215,889,-22,47,1,0,-2,-2,-3,-5
4.624147,890,3,-13,-8,-9,-7,-4,1,-2
4.624160,891,19,-20,4,-2,-4,-2,-5,-5
4.630637,892,-43,-50,-14,-2,-7,-1,-7,-4
4.630658,893,18,26,5,5,25,7,12,1
4.646210,894,10,5,-8,-3,-24,-3,-11,-1
4.647911,895,-10,-2,-1,-5,-8,-4,4,6
4.647925,896,-7,21,-5,-5,-1,-6,-7,-13
4.647927,897,20,-36,6,1,-7,0,-1,0
4.668828,898,-23,-10,-5,0,7,0,4,-6
4.668850,899,9,-18,5,-5,-4,-2,1,0
4.669779,900,4,33,7,0,-2,-1,-2,2
4.669854,901,-17,2,-8,1,6,-2,5,4
4.682947,902,46,-6,-8,7,7,0,1,8
4.682963,903,-61,-1,4,0,0,-1,0,-8
4.683695,904,21,11,-3,-2,17,3,1,7
4.683759,905,-20,0,0,-2,-4,0,4,-2
4.706335,906,-25,2,1,-2,1,-1,-8,-8
4.706350,907,24,18,3,-2,-9,-4,-2,0
4.707012,908,-17,-35,-9,1,24,-4,1,6
4.707051,909,-6,-7,-3,2,-3,5,-6,-3
4.728993,910,24,-24,-5,-9,-10,-3,1,-4
4.729009,911,-37,9,-7,0,5,2,2,-4
4.730589,912,-13,-5,0,-5,-6,-4,-5,-8
4.730598,913,15,36,-3,-1,7,1,-4,4
4.743172,914,1,-15,8,11,12,2,-1,-4
4.743199,915,23,-12,0,-4,-18,-4,-2,7
4.745090,916,11,-2,-10,-4,10,3,-2,-2
4.745101,917,0,-9,11,3,-10,-2,3,-1
4.766202,918,-50,16,-5,-5,-1,-1,-1,1
4.766214,919,-7,-48,-11,-4,-2,0,-7,-6
4.766961,920,23,22,1,-1,-8,-1,-4,-5
4.766978,921,4,-61,5,5,-1,0,-4,0
4.788938,922,37,5,-9,-9,0,-1,7,3
4.788962,923,-6,9,16,10,29,1,3,-1
4.790996,924,-9,-17,-9,-1,-38,1,-5,0
4.791007,925,18,33,13,-3,-6,-7,1,0
4.803398,926,-27,4,-4,-3,-3,3,1,-1
4.804462,927,-20,-14,-10,-4,-3,-1,-1,-1
4.804475,928,-43,-8,-4,-3,7,-5,-2,-9
4.804479,929,17,-3,-4,-3,1,-1,-4,-1
4.826757,930,31,62,14,9,-1,3,4,7
4.828425,931,10,-32,-15,-6,-2,-1,-1,-10
4.828440,932,-14,16,-4,-1,1,-1,0,-1
4.828442,933,-13,15,3,3,0,-1,-2,-1
4.848775,934,15,0,-6,-2,3,-3,-5,2
4.848791,935,-3,61,1,-2,-1,-1,1,-9
4.849510,936,18,-30,7,2,-2,0,-2,11
4.849611,937,20,20,-9,-6,-1,-1,-2,-2
4.863009,938,-56,-35,4,-2,0,-1,-4,-9
4.863025,939,42,23,-4,6,-3,-2,3,12
4.863736,940,-37,-1,2,2,-5,-3,0,-10
4.863759,941,-12,6,-9,-7,-3,-2,2,5
4.886149,942,1,29,2,-1,6,1,1,-1
4.886166,943,22,-31,1,-5,-16,-4,-1,-2
4.887470,944,12,46,6,6,10,7,0,1
4.887485,945,-6,-12,-6,-10,-19,-8,-7,1
4.908688,946,0,-12,2,-3,-3,-8,-2,-3
4.908712,947,-42,-1,6,1,7,4,0,-3
4.909472,948,-10,-15,2,-2,-17,-1,4,-3
4.909496,949,-9,-16,-11,0,28,2,0,-3
4.922942,950,19,9,-2,0,-3,-2,-4,3
4.922957,951,-14,23,16,9,4,0,2,5
4.923718,952,58,26,-6,-4,4,-2,-2,-3
4.923736,953,-34,-6,-4,7,-5,0,-1,1
4.946316,954,2,-8,2,-2,-1,1,-1,0
4.946338,955,9,12,-2,-7,18,-2,0,-2
4.947390,956,20,21,-5,-2,-14,-2,-3,2
4.947402,957,-54,-58,-1,1,2,0,2,-10
4.968604,958,10,1,-3,1,2,2,2,4
4.968618,959,3,24,4,1,3,-1,-6,1
4.969455,960,5,-9,2,1,3,3,2,1
4.969471,961,13,18,5,2,-1,1,2,3
4.983115,962,-13,-28,-6,-7,-11,-6,-5,-2
4.983143,963,-9,6,-5,-4,-15,-4,-2,-3
4.984089,964,7,38,-9,-4,10,-1,-1,5
4.984102,965,-28,-15,-3,3,1,2,-4,-6
5.006131,966,29,19,13,-3,0,-4,-3,-6
5.006153,967,14,-25,0,6,-4,-2,1,5
5.007252,968,-32,0,4,0,10,1,-2,-2
5.007265,969,-2,14,-5,-4,-1,-3,1,-1
5.028562,970,8,-5,-2,-3,-2,-1,-4,-2
5.028578,971,-15,-33,-9,-10,-8,-3,-4,-6
5.029561,972,3,-3,12,2,-1,-3,0,-2
5.029571,973,41,-11,-9,4,-1,0,0,1
5.042976,974,10,7,0,4,4,0,-2,0
5.042997,975,-49,-21,-5,-1,2,1,-3,-3
5.044078,976,1,-37,-6,-7,-18,1,3,-3
5.044092,977,15,7,2,-5,-12,-2,6,3
5.066410,978,9,23,-4,-2,-29,-6,-3,1
5.066432,979,44,-7,-1,-2,20,4,16,6
5.067019,980,-13,-3,-1,0,6,-5,-24,-6
5.067094,981,-32,-14,18,2,8,1,-2,-15
5.096143,982,9,1,-5,1,4,1,4,0
5.096159,983,-15,-44,4,4,-7,-1,1,1
5.097064,984,1,10,-11,-5,-3,1,7,3
5.097099,985,43,27,1,-1,-2,-4,-8,-5
5.102983,986,29,-8,-2,1,4,0,3,10
5.103001,987,-6,51,-6,-4,-2,-3,-4,-8
5.103866,988,0,-32,-8,0,8,0,3,2
5.103878,989,-4,15,5,-2,-6,-1,-3,1
5.126205,990,-6,-5,8,5,7,-1,-1,-3
5.126224,991,-7,4,-15,-3,7,7,-2,-5
5.127008,992,22,42,10,1,-4,-3,-4,8
5.127062,993,-5,-34,-8,-8,-9,-6,-1,-13
5.148597,994,-17,-10,-15,-3,-18,-5,-5,-7
5.149491,995,-13,-29,4,-1,-6,-2,-2,4
5.149503,996,-18,20,4,1,1,-6,-2,-3
5.149504,997,41,6,-19,-5,-3,0,1,6
5.162957,998,-45,-33,11,2,13,2,-3,-9
5.162974,999,26,13,3,3,1,0,0,7
5.164083,1000,22,10,5,2,0,4,5,4
5.164133,1001,-4,18,-2,-1,-1,-4,1,14
5.186356,1002,-19,-20,-5,-3,0,-1,0,-23
5.186370,1003,-23,29,4,3,-5,-3,-1,0
5.186864,1004,-7,-8,-10,-3,17,1,-5,-6
5.186877,1005,-1,8,15,3,9,4,-1,3
5.208657,1006,11,-30,-6,-10,-7,-3,-4,1
5.208675,1007,0,-6,-7,-3,-16,-6,-9,-6
5.209768,1008,36,42,11,5,2,2,10,1
5.209786,1009,-62,3,-11,-3,-8,-5,-3,9
5.223121,1010,-33,-7,-8,-1,8,4,-4,-7
5.223139,1011,0,18,5,-2,-4,-3,-3,-4
5.224056,1012,27,-33,-9,-1,-3,-1,-3,2
5.224066,1013,7,71,4,4,5,0,1,-4
5.246271,1014,-4,-45,-6,-2,-6,-3,1,4
5.246289,1015,12,9,-1,-7,21,-2,0,3
5.247175,1016,-28,-5,0,4,-11,3,-1,-4
5.247185,1017,0,-54,-2,-6,-1,0,0,-3
5.268843,1018,10,20,11,2,1,2,-1,5
5.268861,1019,-4,13,-1,6,10,1,2,0
5.269730,1020,-17,-13,-3,-9,-3,-4,-4,-9
5.269741,1021,32,6,-1,-3,-10,-7,-10,-4
5.282321,1022,-32,-19,-11,-3,1,-1,4,2
5.282349,1023,15,-13,8,4,-3,1,-4,2
5.290505,1024,-15,-14,-2,1,4,2,3,-2
5.290528,1025,24,24,-1,-3,-8,-2,0,-1
5.306203,1026,-41,-32,-10,-2,5,-2,-4,-3
5.306221,1027,22,4,5,1,-4,2,6,10
5.307089,1028,-47,-77,-13,-5,-6,-5,-3,-12
5.307099,1029,-3,-34,0,-2,2,0,-2,4
5.328653,1030,37,72,-8,-1,4,1,3,8
5.328672,1031,10,11,4,-2,-5,1,0,-3
5.329424,1032,-10,-8,0,-3,9,-5,-1,2
5.329443,1033,-40,-34,-11,4,2,7,3,0
5.343071,1034,50,30,27,12,17,3,-1,1
5.343083,1035,-63,-51,-28,-23,-37,-11,-10,-22
5.350788,1036,30,-34,-2,-2,5,-3,-1,3
5.350810,1037,10,12,3,5,-6,0,2,0
5.374374,1038,36,60,-5,-5,-8,-1,4,3
5.374386,1039,-47,-27,-4,7,13,2,0,-2
5.374440,1040,4,12,12,-2,-7,-4,-2,0
5.374471,1041,16,-11,-4,0,2,0,0,0
5.389206,1042,14,26,-1,1,-2,0,2,4
5.389219,1043,-16,-10,1,-1,-3,1,-3,0
5.389462,1044,11,13,-2,1,1,2,1,2
5.389495,1045,-9,54,1,-5,-3,-2,-4,-3
5.402380,1046,-18,-34,-4,-8,-8,-6,-5,-12
5.402396,1047,-1,22,-8,-2,-2,-2,-3,-2
5.410528,1048,-32,-23,-7,3,0,2,5,5
5.410544,1049,31,24,9,6,1,1,-2,1
5.426183,1050,3,-9,3,-1,-24,0,0,-1
5.426202,1051,36,37,4,-5,12,4,7,9
5.427026,1052,16,0,-4,-5,-17,-8,-7,-9
5.427039,1053,-22,-17,-18,-5,3,-4,-3,-15
5.448804,1054,-15,17,10,2,4,1,2,5
5.450360,1055,-14,-8,6,4,-2,1,0,1
5.450376,1056,34,53,0,-3,6,0,0,4
5.450378,1057,-7,-41,1,-3,3,-3,-4,-1
5.462448,1058,31,31,3,2,8,2,-5,-1
5.463124,1059,-37,-56,0,4,4,0,0,-4
5.470461,1060,-29,-2,5,0,0,1,10,5
5.470477,1061,-7,14,-7,-5,0,-2,-10,-5
5.486239,1062,-11,-39,-3,-2,-2,0,-2,-5
5.487302,1063,52,76,-4,-2,-7,-1,0,8
5.487313,1064,-3,-21,-2,-5,-7,-6,-11,-13
5.487316,1065,3,29,9,5,-14,1,8,3
5.508877,1066,5,8,4,0,2,-1,5,8
5.508893,1067,46,-42,-6,1,7,1,2,4
5.509811,1068,-103,-47,-9,3,-4,-1,-4,-8
5.509819,1069,-52,-13,5,-11,-12,-6,1,-3
5.531269,1070,3,-44,-4,-3,-1,-2,0,-1
5.531287,1071,-16,30,3,0,-9,-3,-4,-6
5.531987,1072,51,16,-4,0,6,3,6,10
5.532000,1073,6,26,10,5,-7,0,-3,0
5.545411,1074,-60,3,-12,-1,15,-2,-3,-7
5.545426,1075,37,7,3,-1,-4,-1,1,5
5.546179,1076,29,-9,0,4,1,-2,-7,5
5.546252,1077,16,-13,-8,-2,6,4,3,-4
5.568740,1078,-19,11,0,-7,-17,-6,-2,-4
5.570368,1079,19,50,4,-1,2,-3,-1,-2
5.570380,1080,6,-13,6,5,8,4,-1,-1
5.570382,1081,-9,-19,-5,2,15,1,0,0
5.582361,1082,-7,9,-8,-6,-18,-8,-4,1
5.582377,1083,21,-65,1,1,7,1,4,3
5.590515,1084,-1,70,8,-2,-8,0,-3,-3
5.590531,1085,15,-43,-5,1,9,0,-2,2
5.606173,1086,-4,3,-8,2,10,7,0,-3
5.606194,1087,-16,-8,-2,-5,4,-7,-9,-5
5.606784,1088,-15,-23,9,4,-7,2,6,0
5.606794,1089,10,-25,-3,6,12,3,0,1
5.628775,1090,18,104,12,1,0,2,6,5
5.628791,1091,-2,-96,-23,-11,-16,-10,-10,-14
5.630669,1092,-1,25,-5,-6,0,-3,-2,0
5.630685,1093,11,26,-4,-3,-5,-1,-2,0
5.651120,1094,-6,-37,-10,2,8,2,3,6
5.651132,1095,10,48,6,1,4,5,4,2
5.651811,1096,9,-7,5,-2,-5,-1,-3,-5
5.651819,1097,-74,-32,3,-7,-8,-2,-2,-3
5.667692,1098,0,-39,-10,-3,0,-4,-5,-10
5.667707,1099,-22,-10,1,3,-4,1,1,-5
5.667709,1100,7,35,4,3,6,2,-6,1
5.667766,1101,40,42,22,4,7,4,9,8
5.688871,1102,-3,-75,-22,-13,-20,-12,-13,-13
5.688905,1103,-9,5,-10,-4,-7,-3,-6,-12
5.690846,1104,22,54,6,4,5,1,4,2
5.690858,1105,-19,-63,-8,0,22,-2,-2,1
5.711314,1106,-3,7,6,-4,-17,1,0,-2
5.711329,1107,-20,23,-1,-6,-8,0,-2,-2
5.713034,1108,10,4,-15,-3,-7,-5,-1,0
5.713045,1109,3,23,24,8,2,0,6,4
5.726726,1110,-60,-40,-6,3,16,2,-9,0
5.726752,1111,23,-6,5,4,1,0,0,1
5.728902,1112,-4,-13,-12,-4,0,0,1,1
5.728915,1113,30,48,-11,-13,-22,-8,-11,-16
5.748924,1114,29,42,6,5,9,3,4,6
5.748971,1115,-7,-50,4,-1,-4,0,-3,-2
5.749797,1116,-10,-7,-2,2,3,0,2,0
5.749830,1117,8,-10,-18,-4,-9,-4,-2,7
5.771562,1118,-10,7,13,3,6,0,-5,-6
5.771580,1119,-5,24,18,11,11,3,11,4
5.773680,1120,-3,-18,-13,-16,-29,-10,-17,-12
5.773692,1121,9,-47,-10,-1,-2,0,-3,-9
5.785522,1122,46,24,-3,0,3,4,8,17
5.785540,1123,-7,6,-5,-2,1,1,-2,1
5.794463,1124,-23,-64,-3,3,6,0,3,4
5.794474,1125,12,2,15,-4,-10,-2,-3,-7
5.808622,1126,-11,1,-9,4,-2,3,4,2
5.808638,1127,31,31,8,3,-17,0,-2,0
5.810095,1128,4,3,7,-1,12,-2,2,0
5.810135,1129,-23,-16,-19,-2,-7,-4,-4,-8
5.831190,1130,18,1,9,0,7,1,6,-2
5.831205,1131,-21,-61,-14,-4,2,-3,-8,-2
5.833056,1132,22,47,5,0,-10,-2,-6,1
5.833067,1133,-19,-32,-10,-4,3,0,4,-8
5.845067,1134,15,-4,-1,6,6,-3,-3,4
5.845095,1135,28,63,19,-1,-12,-3,3,1
5.854257,1136,-65,-77,-5,-4,0,1,1,5
5.854269,1137,50,32,8,3,5,4,3,15
5.871213,1138,-99,-81,-26,-8,-3,-4,-8,-29
5.871228,1139,3,46,5,-3,-7,-4,-5,-7
5.871230,1140,0,-42,-4,2,4,-1,0,-1
5.871231,1141,28,66,11,-2,-2,2,3,14
5.891233,1142,11,-11,-4,1,-1,1,-1,3
5.891249,1143,-7,6,-4,1,18,-2,2,-2
5.893099,1144,-16,-1,-8,-3,-7,-1,-2,-8
5.893110,1145,-1,11,-2,2,1,0,-4,-4
5.904798,1146,-10,9,6,0,-2,1,2,9
5.904813,1147,34,-9,-1,3,9,3,4,3
5.914389,1148,6,110,5,-4,2,2,2,-1
5.914399,1149,-7,-47,-9,-3,-6,-1,0,3
5.928670,1150,32,19,11,0,3,-5,-7,-7
5.928687,1151,-10,9,-7,-6,-17,-4,3,5
5.930191,1152,9,8,6,4,7,0,0,-9
5.930205,1153,2,13,5,7,4,3,2,3
5.951134,1154,-28,8,4,-7,-4,-5,-3,-4
5.951150,1155,-7,-34,-17,-6,-8,-2,-8,-14
5.952806,1156,19,21,0,1,0,1,2,25
5.952822,1157,-59,-25,-9,-2,-1,-5,-3,-11
5.965494,1158,43,62,14,3,24,1,6,13
5.965515,1159,-47,-89,-21,0,-5,7,0,1
5.972849,1160,-2,-3,15,-4,-3,-5,-9,-20
5.972867,1161,-18,-7,-4,2,4,1,4,-1
5.988779,1162,14,1,-9,-4,-9,-1,-6,-2
5.988796,1163,-28,27,3,-2,0,-6,-4,-6
5.990179,1164,23,-49,-13,-3,-2,2,0,1
5.990193,1165,-24,-46,5,-1,4,0,7,2
6.011089,1166,12,52,14,3,-3,0,-6,-6
6.011101,1167,14,19,-2,0,-2,-1,4,8
6.012703,1168,-52,-77,5,2,1,0,-2,-6
6.012748,1169,43,33,-9,-4,-3,-3,-3,-10
6.026424,1170,11,-15,-13,-9,-14,-6,-1,4
6.026436,1171,-23,59,7,1,6,-1,-4,-4
6.032612,1172,16,-37,-2,-1,1,-2,1,9
6.032635,1173,-7,6,-9,0,-3,0,1,-5
6.048775,1174,-2,-1,6,5,1,0,4,-6
6.048791,1175,-9,6,8,5,8,3,-5,7
6.050391,1176,20,50,-9,-2,-9,-3,2,-7
6.050406,1177,-8,-29,-2,-5,-10,-3,-7,-5
6.071160,1178,33,-2,-12,-8,-14,-6,-2,1
6.071181,1179,14,13,8,2,6,3,6,6
6.073261,1180,-14,-63,0,2,-12,-6,-5,-14
6.073272,1181,3,-5,-4,-7,8,-3,-8,5
6.085499,1182,-14,-5,-6,3,4,4,2,1
6.085518,1183,26,28,23,4,2,0,8,8
6.092492,1184,-4,38,-4,-1,-2,-2,3,-3
6.092514,1185,-10,-20,6,0,-4,-3,-10,-4
6.109808,1186,-8,-36,7,5,1,4,4,0
6.109832,1187,-6,-38,-11,-6,0,-7,-4,-6
6.111415,1188,25,43,-6,-2,4,3,2,11
6.111427,1189,-20,20,4,5,3,0,4,1
6.131290,1190,-22,-17,-4,-1,10,-4,3,8
6.131313,1191,39,-21,-12,-9,-27,-6,-12,-29
6.132922,1192,27,32,9,0,10,-4,1,-6
6.132932,1193,30,65,-2,0,10,4,-1,3
6.145343,1194,-61,-80,2,3,2,2,1,-5
6.145372,1195,4,58,-1,0,5,-2,0,0
6.155426,1196,-3,-37,-17,-8,-14,-3,-6,1
6.155443,1197,43,53,18,13,3,3,2,3
6.168640,1198,-16,-31,-3,-2,-11,0,2,-7
6.168659,1199,28,32,9,1,1,-1,2,8
6.170183,1200,-49,-63,-13,-4,-3,0,-8,-14
6.170280,1201,-16,15,-6,-5,1,-5,1,-3
6.191701,1202,-6,3,-3,-1,-18,-9,-7,-8
6.191724,1203,4,44,-4,-2,-2,0,3,5
6.193301,1204,-4,0,10,5,21,5,2,14
6.193313,1205,-32,-31,-6,-4,-5,0,-1,-5
6.204979,1206,23,20,-3,-2,8,-4,0,-2
6.205001,1207,-12,-18,-1,0,3,4,-4,-4
6.214025,1208,23,-12,1,1,-1,-5,-7,4
6.214036,1209,-20,-8,2,0,-3,1,-1,-4
6.228600,1210,28,-3,-5,-8,2,-1,-1,-2
6.228612,1211,-22,-38,-1,2,0,0,3,3
6.230272,1212,-17,27,1,-1,1,-3,0,-4
6.230286,1213,0,-62,-4,-4,-17,-5,0,-2
6.251257,1214,12,21,0,-2,-3,-4,-6,2
6.251272,1215,-3,15,-13,-2,11,4,3,6
6.252697,1216,-11,-16,9,6,-2,1,2,-11
6.252708,1217,30,17,-8,-5,2,0,-1,-1
6.264778,1218,24,60,0,-2,-1,0,-1,-3
6.264800,1219,-47,-35,-6,3,-6,-3,-6,13
6.273837,1220,48,41,4,-2,5,-2,-2,-7
6.273847,1221,-30,-19,-2,4,2,1,-1,6
6.289880,1222,14,-9,-6,-8,-6,-1,-3,-2
6.289898,1223,61,37,2,0,11,8,3,1
6.290214,1224,-60,-53,2,-1,0,-7,4,4
6.290221,1225,-25,-16,2,2,-6,-3,-6,-5
6.311129,1226,-39,13,-5,-1,0,2,-1,1
6.311144,1227,26,-21,-13,3,12,2,1,2
6.312800,1228,1,36,13,-5,-29,-3,2,-3
6.312815,1229,15,-28,-9,-7,-12,-7,-8,-5
6.325395,1230,-9,-23,2,-1,-1,1,1,0
6.325419,1231,-12,-31,0,-4,-7,-6,-7,-6
6.335590,1232,16,31,-5,5,13,8,9,14
6.335606,1233,-9,-3,-3,-2,-5,-4,-1,-2
6.348667,1234,13,19,6,5,23,0,-4,5
6.348688,1235,-3,-13,7,-3,-9,0,-2,-8
6.350585,1236,-2,-36,-24,-11,-11,-5,-2,-1
6.350606,1237,-28,-18,2,1,-1,-2,-7,-4
6.371367,1238,-1,-22,-5,0,-1,-5,0,3
6.373338,1239,-7,8,9,3,14,0,-1,1
6.373353,1240,25,60,-2,0,1,1,-2,-1
6.373355,1241,20,-2,4,2,10,6,6,4
6.384867,1242,-14,-26,-8,-2,-13,1,1,4
6.384888,1243,-11,-1,-2,3,-3,-1,1,-3
6.394451,1244,-14,-2,1,0,-4,0,-1,0
6.394462,1245,17,-10,0,-6,-8,-3,-2,-2
6.416176,1246,6,-10,-7,-3,-6,-3,-2,-5
6.416246,1247,36,31,9,0,-5,0,3,3
6.417777,1248,-5,16,7,4,8,2,2,0
6.417792,1249,-21,15,-3,4,5,0,4,-2
6.431230,1250,44,-2,-6,-9,-18,-3,-12,-9
6.431245,1251,-23,-10,-4,-7,-10,-7,-4,-5
6.432666,1252,14,34,-2,-1,5,3,4,7
6.432681,1253,-11,-19,3,-6,-6,-2,-3,-1
6.444948,1254,-20,1,1,-1,-1,-1,0,-6
6.444986,1255,-14,-2,-6,-3,-3,-5,-3,-11
6.454625,1256,-3,-3,0,-3,-5,0,-5,-1
6.454637,1257,50,38,0,0,1,-2,4,9
6.468800,1258,-22,-9,4,7,5,4,2,-2
6.468823,1259,-16,-41,0,-3,-11,-6,-2,2
6.470189,1260,-24,-23,-8,-2,8,4,-4,-11
6.470200,1261,41,51,6,7,2,0,2,3
6.491471,1262,-14,-57,-11,-4,-5,-3,-2,-6
6.491482,1263,-20,-14,10,2,-3,-1,-5,9
6.492784,1264,12,15,1,0,1,-1,1,-11
6.492803,1265,20,47,-5,-6,-11,-2,-5,0
6.506171,1266,23,30,8,-2,7,-2,0,-1
6.506182,1267,-85,-27,-7,-2,14,-1,-4,-2
6.514439,1268,54,-14,-9,-4,-21,1,-4,-4
6.514450,1269,12,11,2,4,-7,-1,1,1
6.528797,1270,-11,-23,-6,-2,2,-1,-1,0
6.528812,1271,-5,18,3,1,8,3,2,4
6.530289,1272,62,31,-3,-4,-2,-2,2,8
6.530363,1273,-105,-48,4,-1,-17,-6,-6,-12
6.551524,1274,31,47,10,3,3,4,3,8
6.551545,1275,-18,-39,-4,-9,-15,-3,1,-6
6.553110,1276,28,60,-7,3,7,0,0,4
6.553125,1277,-5,-83,-1,0,6,0,-2,2
6.573700,1278,-17,7,-4,-6,-2,-2,-1,1
6.573722,1279,-35,-15,8,10,4,-1,-6,-27
6.575785,1280,-21,-7,1,-7,-11,-6,0,-4
6.575796,1281,10,17,-3,-3,5,-3,-6,5
6.588736,1282,-32,-8,0,-1,5,-2,-2,-1
6.588751,1283,23,17,-7,-5,-2,4,4,4
6.590145,1284,-45,-80,-2,5,5,0,1,0
6.590158,1285,10,89,-4,-6,-5,-1,1,0
6.611455,1286,18,-10,13,2,2,-3,-3,-5
6.611483,1287,24,-23,-3,-5,-12,-4,1,3
6.613306,1288,-18,-7,3,2,1,-1,-8,2
6.613314,1289,-16,-14,-6,-4,9,0,3,-1
6.633715,1290,18,-9,-9,0,0,3,-12,-18
6.633733,1291,25,27,-9,-4,-5,-4,7,6
6.635294,1292,-11,-22,4,7,23,6,-1,1
6.635381,1293,2,-6,4,-4,-4,0,2,3
6.648633,1294,26,24,-5,-3,-12,-3,2,4
6.648656,1295,-20,-85,-8,-3,1,-2,-2,0
6.650125,1296,8,24,8,1,-5,-3,-3,2
6.650214,1297,2,20,-5,3,9,3,1,3
6.671626,1298,37,62,14,4,13,1,7,12
6.671654,1299,-55,-30,-10,-2,-2,3,-4,-13
6.672904,1300,-35,-68,-12,-6,2,-7,-5,-2
6.672969,1301,38,-35,2,-2,-10,-2,-5,-19
6.695600,1302,-31,22,2,-2,-1,-1,2,8
6.695616,1303,37,25,-5,-3,-2,-3,-1,1
6.695621,1304,-7,18,12,4,-1,2,6,4
6.695624,1305,0,-30,-7,-4,0,-4,-5,-8
6.709782,1306,32,19,3,3,-5,4,6,2
6.709796,1307,-25,3,1,-2,-9,-5,-6,0
6.710240,1308,-17,-67,-12,-6,-3,-2,-5,-7
6.710255,1309,34,64,7,-5,-7,-2,1,3
6.731332,1310,-40,-54,1,6,-6,0,4,-1
6.731354,1311,20,65,-3,2,2,0,3,4
6.732643,1312,35,66,10,-3,-3,-6,-6,-1
6.732655,1313,-40,-15,-1,1,4,4,3,9
6.761543,1314,2,-15,-7,-4,-16,-3,-5,-21
6.761578,1315,6,-24,9,1,1,-1,-1,-3
6.763434,1316,-16,13,-14,0,-2,0,2,-1
6.763446,1317,-1,-9,1,2,-4,1,0,3
6.768419,1318,12,23,4,-5,0,-2,-1,1
6.768447,1319,-31,-35,-3,3,5,-1,-3,1
6.775003,1320,34,46,4,-2,-14,-5,2,6
6.775025,1321,20,-18,-7,-1,6,-1,-2,-13
6.791738,1322,-39,33,-6,-4,20,6,-9,1
6.791769,1323,42,-2,10,2,-7,0,5,11
6.792898,1324,-7,-18,-7,-6,0,-3,-5,-5
6.792921,1325,23,16,3,5,10,-1,4,5
6.813778,1326,2,1,-1,-3,-13,-6,-3,-1
6.813804,1327,12,66,-1,1,13,5,-2,3
6.815477,1328,-60,-9,4,4,0,4,6,3
6.815503,1329,-7,-5,11,-3,-12,-5,-5,-5
6.828095,1330,-7,-23,-19,-3,-5,-4,-6,-4
6.828128,1331,-9,-33,-9,-7,-5,-6,-5,-8
6.834824,1332,64,78,12,6,24,0,5,9
6.834849,1333,-57,-52,-9,-3,-6,1,-6,-7
6.851435,1334,-12,-9,3,2,-1,0,3,2
6.851447,1335,2,-7,-5,-7,-7,-3,-4,-7
6.852551,1336,12,55,-15,-1,1,0,1,-4
6.852562,1337,7,-3,11,6,7,-2,0,5
6.873724,1338,-17,-12,10,3,-1,2,3,4
6.873744,1339,47,-9,-13,-5,-2,-1,-6,-1
6.875059,1340,25,-8,-5,-5,-17,-5,-2,-2
6.875073,1341,-31,9,1,-2,-2,-3,2,1
6.888410,1342,17,14,-2,4,3,3,-8,-4
6.888437,1343,-4,-12,-1,-3,6,0,4,1
6.894892,1344,-2,-20,6,1,-20,3,0,-2
6.896103,1345,7,17,-9,-3,12,-4,0,1
6.911488,1346,16,-35,8,0,-8,-5,-1,-2
6.911504,1347,-71,-6,-5,-3,-5,-5,-5,-10
6.912569,1348,-7,-42,-4,-4,-1,-1,-4,-8
6.912586,1349,33,57,1,0,-4,1,-1,10
6.933796,1350,-36,-32,-8,0,7,-3,3,-2
6.933811,1351,-17,13,13,2,-7,4,0,1
6.935142,1352,-15,-57,-1,1,-6,-2,-2,-4
6.935158,1353,10,-23,-5,-3,6,2,4,2
6.948107,1354,-15,-23,3,2,11,1,1,-3
6.948148,1355,18,-4,4,-1,-7,-6,-4,-2
6.954993,1356,-16,3,5,-4,-3,-2,-1,-5
6.955010,1357,-15,6,-11,1,3,4,2,4
6.971680,1358,33,67,10,0,-17,-1,3,0
6.971708,1359,-2,-9,-3,2,14,1,-1,6
6.973811,1360,-83,-89,-4,-2,-1,-5,-9,-13
6.973823,1361,26,7,-6,-11,-10,-6,-2,-5
6.993615,1362,-35,19,-14,-3,9,-3,4,2
6.993659,1363,42,5,6,3,5,8,-1,-2
6.995113,1364,24,96,3,0,8,0,4,8
6.995126,1365,-10,-48,-9,-2,-17,-7,-6,-7
7.007890,1366,-11,12,-3,-5,4,-2,-3,-2
7.007902,1367,-1,-29,2,1,4,0,4,2
7.014866,1368,18,12,5,8,9,4,4,6
7.014884,1369,0,3,-3,3,-3,0,-2,-3
7.031279,1370,26,74,10,1,-5,0,0,3
7.032248,1371,20,12,-13,-8,-4,-5,-3,-8
7.032666,1372,-41,-38,-13,-5,-7,1,2,0
7.032674,1373,-39,19,28,2,2,-1,-1,-6
7.055346,1374,5,-11,-3,3,-3,-2,-2,5
7.055357,1375,34,45,-1,-1,-7,0,4,5
7.055359,1376,-12,-47,-8,-5,-6,-6,-6,-3
7.055360,1377,1,26,0,4,11,3,1,1
7.069370,1378,36,7,4,-4,0,0,-3,-7
7.069381,1379,-23,27,-7,-5,-16,-9,-6,-8
7.075276,1380,45,47,-9,-7,-8,-3,-4,-3
7.075305,1381,17,2,-7,4,8,3,4,4
7.091374,1382,-6,-15,1,-1,-3,-1,-4,-1
7.091397,1383,3,-6,0,1,0,-3,-8,-1
7.092653,1384,-11,-1,9,-3,-2,-2,4,-4
7.092665,1385,14,7,9,0,2,-1,-1,-1
7.113843,1386,-27,-29,-10,-2,5,-5,-4,1
7.116002,1387,5,-29,-3,-3,8,0,-2,-12
7.116014,1388,-7,43,9,8,-2,1,1,12
7.116016,1389,5,-56,-18,-10,-9,-4,-10,-21
7.127270,1390,-11,-21,-7,2,0,3,9,2
7.127286,1391,-102,-89,-11,-2,-1,-2,-3,-5
7.136952,1392,34,12,0,-9,-3,-2,-5,-6
7.136963,1393,-8,40,4,5,4,2,4,5
7.151168,1394,-1,-59,-10,0,-6,0,-4,0
7.151185,1395,30,65,10,3,-2,1,3,3
7.152582,1396,-28,-48,-7,3,6,0,4,0
7.152595,1397,-54,-27,-3,-9,-16,-5,-4,-5
7.174337,1398,21,21,-7,-7,-9,-4,-1,5
7.174353,1399,17,4,4,2,-1,1,1,-5
7.176366,1400,31,-10,3,0,10,5,4,1
7.176425,1401,-37,-7,-3,3,1,-2,-2,1
7.187505,1402,-20,-31,4,-2,-3,1,0,-2
7.187527,1403,-13,42,11,-1,-1,-2,3,3
7.197428,1404,17,-12,-9,-7,-4,-4,-8,-3
7.197439,1405,14,86,14,5,5,2,4,2
7.211165,1406,-39,-50,2,0,-4,-1,0,0
7.211184,1407,17,12,-12,-2,5,1,-5,-1
7.212612,1408,-55,-24,8,1,-6,-2,-4,-8
7.212624,1409,19,-6,-8,-6,-3,-2,-3,5
7.233837,1410,44,40,7,0,-5,-3,-3,4
7.236168,1411,-9,-2,-12,4,6,4,7,3
7.236180,1412,-13,46,-2,0,-5,0,3,2
7.236181,1413,3,-44,6,0,-2,-2,-7,-7
7.247422,1414,-54,-15,-4,-8,-7,-2,1,-2
7.247442,1415,-5,16,1,0,-3,-5,-3,0
7.256385,1416,46,-52,8,7,13,6,7,2
7.256395,1417,3,35,-3,-9,-6,-7,-12,-11
7.272645,1418,13,32,7,8,20,4,1,0
7.272657,1419,34,11,4,1,-15,-1,0,6
7.272659,1420,0,-19,-8,-6,-13,-8,-5,-5
7.272661,1421,25,38,-4,-1,-4,2,2,-2
7.294126,1422,10,1,-11,-10,-4,0,-3,-1
7.294143,1423,6,65,10,4,10,2,4,8
7.295186,1424,-13,-10,1,0,-8,-2,-2,2
7.295195,1425,5,-31,-12,3,8,-1,2,-6
7.307476,1426,-46,-8,2,10,22,-1,3,8
7.307495,1427,0,54,6,-11,-26,-5,-13,-11
7.317095,1428,50,21,-1,-2,-4,5,7,3
7.317111,1429,-95,-97,-9,-3,-2,-5,-7,-5
7.331510,1430,24,-27,-12,-9,6,-4,0,-7
7.331538,1431,-19,-34,-3,3,9,-3,0,0
7.333510,1432,-9,37,2,3,27,9,-1,1
7.333521,1433,52,10,5,-1,-18,-7,2,20
7.354541,1434,23,32,11,-2,-7,0,-5,-12
7.354556,1435,-45,-35,-11,-11,-18,-3,-2,-4
7.355238,1436,-15,-39,3,3,5,-5,-5,-5
7.355259,1437,8,-8,-3,2,15,2,6,5
7.367509,1438,-5,27,6,2,-26,-3,-12,-2
7.367528,1439,68,17,-1,-3,4,2,11,5
7.377037,1440,-71,-72,12,-1,-9,-6,-3,-8
7.377048,1441,4,-33,-14,-2,7,5,2,-3
7.391174,1442,-40,-52,0,2,-9,-2,-1,-1
7.391190,1443,30,0,-3,-5,11,-7,-7,-7
7.392668,1444,41,71,1,2,-20,1,-3,5
7.392675,1445,-21,6,0,-2,-9,-3,-1,-2
7.413720,1446,39,4,-1,-3,0,2,2,-1
7.413733,1447,-31,-19,1,-1,4,-1,-4,-9
7.415125,1448,-2,27,1,4,14,3,5,8
7.415144,1449,-45,-33,1,-2,-5,-3,-9,-14
7.427273,1450,34,-21,-18,-4,-7,-2,-1,-2
7.427288,1451,-41,-26,9,0,-3,-2,0,-3
7.442243,1452,7,-34,-6,-3,-3,-5,-5,3
7.442264,1453,21,0,-4,-2,2,3,5,0
7.451251,1454,9,44,-2,11,6,0,0,-3
7.451269,1455,20,-42,6,2,-5,1,1,5
7.452691,1456,-50,84,-8,-10,-13,-1,0,-9
7.452699,1457,31,-16,-2,1,15,2,0,8
7.474727,1458,4,27,-2,-5,0,-2,0,2
7.474739,1459,-16,2,-5,8,2,0,2,-2
7.475194,1460,7,13,-2,-2,-32,0,0,6
7.475207,1461,-2,35,4,-3,-6,1,1,2
7.487578,1462,-4,-15,-9,-9,-1,-6,-8,-9
7.487595,1463,-14,0,3,4,13,7,0,3
7.496817,1464,1,-37,1,-3,6,-7,-7,-6
7.496828,1465,26,22,-2,-1,-4,-1,5,12
7.511403,1466,11,19,8,5,-2,1,0,-2
7.511419,1467,-17,-20,-3,-2,0,1,0,2
7.512735,1468,5,-59,-5,6,13,2,0,1
7.512771,1469,6,-7,11,-4,-11,-3,-2,-8
7.534325,1470,-16,21,-2,-4,-1,1,5,4
7.534355,1471,46,18,-3,-5,3,2,-1,-2
7.536116,1472,7,-22,-11,-5,5,-3,-5,-5
7.536128,1473,22,21,5,-5,-20,-3,4,7
7.556494,1474,-5,-10,6,0,-10,-3,-6,2
7.557552,1475,18,62,2,3,21,1,4,7
7.557661,1476,-3,-35,-6,-6,-23,0,-7,-17
7.557667,1477,1,17,2,4,5,0,0,-2
7.570496,1478,4,-18,1,-5,-7,-1,1,1
7.570514,1479,-29,23,0,0,-24,-4,0,-2
7.577693,1480,27,22,3,10,10,0,5,-1
7.578979,1481,1,-10,-3,-2,-2,-3,-2,2
7.594149,1482,1,16,4,4,0,3,0,1
7.594172,1483,-16,-57,-4,-1,6,6,6,5
7.595727,1484,12,12,2,-9,-2,-1,5,2
7.595737,1485,-13,-8,6,-4,-10,-9,-16,-18
7.616204,1486,10,15,0,-2,7,0,4,5
7.616258,1487,9,-8,-6,-2,-1,-1,-4,2
7.617729,1488,21,35,1,2,6,1,0,1
7.617787,1489,-1,-25,1,3,11,6,6,10
7.631145,1490,-79,-9,-12,-9,6,-5,-8,-27
7.631162,1491,46,-23,-1,-6,-9,-1,-2,1
7.632772,1492,-26,3,3,7,12,1,2,5
7.632790,1493,2,26,-4,-2,-7,-3,-5,-1
7.653780,1494,48,49,10,4,-3,-2,3,12
7.653797,1495,-25,-59,-5,-4,-5,-1,3,-3
7.655139,1496,-11,55,6,-2,-1,-4,-11,-4
7.655216,1497,-6,-28,-27,-10,1,-4,-5,-11
7.676046,1498,-4,-51,32,4,-13,3,-3,2
7.676065,1499,7,19,-6,7,18,-1,3,-3
7.677699,1500,-20,-24,-7,-6,-4,-2,-1,11
7.677762,1501,10,38,-5,-3,-6,-3,-6,-9
7.690707,1502,-2,-5,-8,-2,-9,-3,2,3
7.692339,1503,-13,-29,3,-2,-4,1,-4,-1
7.697306,1504,11,47,-3,-6,-2,-4,-3,-4
7.699668,1505,-14,-11,-1,3,9,2,1,0
7.713023,1506,-45,-67,-14,-4,4,-4,-4,-8
7.713040,1507,21,9,5,-1,2,-4,-1,5
7.721412,1508,-20,27,-2,2,4,0,1,2
7.721423,1509,-30,-11,0,-3,3,2,-9,-6
7.736823,1510,31,-20,-10,0,-1,1,3,-2
7.736844,1511,-10,41,4,-1,-8,-1,-3,1
7.738216,1512,-28,-38,-5,-6,-3,-1,-9,-1
7.738226,1513,31,-5,-7,9,10,7,13,8
7.750651,1514,-2,13,6,4,5,1,0,14
7.750667,1515,-27,-13,-7,-6,-17,-7,-6,-18
7.757760,1516,-35,2,-2,-3,2,0,2,3
7.757782,1517,-20,0,13,3,-5,-3,-4,-9
7.774513,1518,37,7,-15,-3,6,3,1,11
7.774535,1519,17,32,1,-2,-5,0,1,7
7.776197,1520,13,-42,-4,0,-5,-7,-6,-11
7.776209,1521,6,16,10,0,3,0,2,4
7.796500,1522,-24,-2,-4,-3,-25,-6,-9,-12
7.796528,1523,23,19,-7,-5,22,3,-1,4
7.798148,1524,-2,-34,-3,0,4,2,4,-5
7.798158,1525,10,18,2,1,21,-4,1,6
7.810646,1526,10,41,-3,-2,-15,4,2,3
7.810672,1527,-1,-38,5,0,-11,-4,3,-2
7.817305,1528,-9,-22,-13,-11,-5,-2,-7,-19
7.817326,1529,28,-17,6,2,-14,-3,1,15
7.833703,1530,-44,-20,-5,-2,17,0,-3,-9
7.833745,1531,24,-11,-8,2,-5,-2,-7,-3
7.835227,1532,14,-38,3,2,1,-1,3,2
7.835269,1533,26,65,6,-2,-6,1,4,4
7.856285,1534,-81,-50,3,3,15,3,-4,-11
7.858088,1535,27,54,-5,-2,-10,-2,-2,-3
7.858098,1536,-2,-30,-2,0,-6,-5,-2,8
7.858100,1537,-50,-23,10,4,-5,1,0,0
7.870660,1538,102,22,-6,-6,-3,-1,0,1
7.870676,1539,-27,5,5,-1,17,7,1,-5
7.877459,1540,-7,24,-12,-5,-18,-3,-7,0
7.877474,1541,16,-4,-3,-3,-17,-10,-2,-1
7.893599,1542,-27,-18,1,4,22,3,0,-5
7.893611,1543,-10,-28,-5,-2,-12,-2,2,6
7.895109,1544,17,2,4,1,3,0,-8,-7
7.895140,1545,-7,26,-2,0,1,1,2,-3
7.916490,1546,34,33,-2,0,-14,-4,1,11
7.916521,1547,-1,-19,-3,-4,9,-2,-3,-2
7.918253,1548,33,54,1,11,14,6,10,0
7.918265,1549,-7,-27,-7,-8,-18,-9,-13,-2
7.930686,1550,-32,16,6,-4,-3,-4,2,-1
7.930702,1551,29,36,6,0,-16,-2,-2,3
7.937823,1552,-17,-4,4,-1,-3,2,5,-4
7.937894,1553,0,-22,-3,7,17,7,4,4
7.953786,1554,3,-2,-2,-5,-4,-2,2,7
7.953803,1555,-2,39,6,0,-1,-4,-6,1
7.955911,1556,-19,-56,-1,3,1,-3,4,2
7.955922,1557,5,46,0,-9,-10,-2,-6,-9
7.976248,1558,-48,-102,-14,-5,-7,-6,-7,-8
7.976262,1559,-11,4,-2,-2,-4,-3,-1,-5
7.977656,1560,9,48,3,4,15,1,0,2
7.977669,1561,-5,-32,-7,-2,9,0,1,-2
7.990929,1562,9,31,6,0,-3,-4,0,-3
7.990944,1563,-3,-15,-3,-1,0,0,-2,-3
7.999660,1564,20,11,3,0,0,0,-3,7
7.999677,1565,-5,1,-2,-1,3,2,4,-2
8.013786,1566,-10,17,-3,-2,-5,-1,-2,-7
8.013803,1567,-10,-30,-8,-3,-8,-2,4,4
8.015289,1568,16,-5,14,7,8,3,-2,0
8.015301,1569,41,54,-7,-2,-5,-3,-4,-3
8.036150,1570,4,-51,-9,-2,-12,-1,-3,-6
8.036166,1571,11,-53,-8,-2,-5,-3,-7,-10
8.037649,1572,-7,23,-8,-10,-19,-6,5,2
8.037664,1573,24,10,19,4,-6,-1,2,9
8.050864,1574,48,33,6,0,1,2,3,4
8.050880,1575,-33,12,-1,1,22,1,2,0
8.059362,1576,4,13,-6,0,-11,-2,-4,0
8.059373,1577,3,-21,2,1,8,2,3,-2
8.073835,1578,-73,-80,-8,-8,-6,-7,-10,-13
8.073855,1579,-3,-5,-7,-5,-3,-2,-6,-11
8.075130,1580,7,31,2,0,-8,0,3,0
8.075139,1581,-34,-37,-5,-8,12,-5,-6,-3
8.098272,1582,4,-15,4,6,17,1,6,11
8.098284,1583,12,-17,5,8,-4,5,-1,-3
8.098286,1584,-2,-17,-7,-7,4,-1,-2,2
8.098287,1585,10,50,-4,1,-16,-3,6,-1
8.110271,1586,26,44,4,-3,3,-3,-5,-5
8.110301,1587,-47,-32,0,-3,0,-4,-5,-2
8.120883,1588,17,12,10,1,-3,-5,-3,1
8.120894,1589,-41,7,-15,0,9,6,3,2
8.133727,1590,7,12,6,5,3,1,-1,-1
8.133754,1591,-6,-18,1,-6,-8,-3,0,0
8.135597,1592,-17,-32,-7,-4,2,2,-1,3
8.135608,1593,-22,-9,4,-4,-22,-3,-8,-9
8.156220,1594,59,58,4,6,5,1,-2,6
8.158321,1595,-18,-58,-5,-4,-9,-2,0,-9
8.162265,1596,20,26,0,2,0,-1,2,1
8.162280,1597,-40,-62,-3,-1,12,6,-1,-2
8.169812,1598,29,6,4,-5,-32,-8,-3,-7
8.171101,1599,-37,51,-6,-2,-6,-2,-11,10
8.180059,1600,-1,-9,3,-2,0,-2,2,-7
8.180117,1601,21,16,-1,7,8,-2,0,4
8.193726,1602,-78,-20,-6,-4,5,3,6,3
8.193750,1603,28,-26,-7,-1,-2,-4,-3,-4
8.195201,1604,1,-5,0,-3,-1,0,-3,-5
8.195221,1605,14,50,14,1,-3,-1,2,4
8.216303,1606,-40,-32,-9,1,5,2,-2,-3
8.216324,1607,-37,-7,0,-3,2,-2,-2,-7
8.218115,1608,21,-3,-11,-7,-4,-2,-2,-1
8.218127,1609,0,6,16,1,4,3,-1,-8
8.230129,1610,-31,-5,-6,1,8,-1,0,6
8.230146,1611,38,6,7,7,3,5,1,3
8.239723,1612,-19,-1,4,-8,-19,-9,-1,-10
8.239739,1613,21,-41,-9,-6,3,2,5,6
8.255355,1614,1,10,-6,-7,-12,-8,-15,-20
8.255366,1615,8,58,14,5,4,1,3,10
8.255368,1616,-8,-37,-12,0,3,0,-7,-11
8.255370,1617,23,46,3,4,2,0,1,3
8.276562,1618,-12,-25,-10,-4,-2,-3,0,-6
8.276588,1619,27,42,-1,4,6,7,13,15
8.278173,1620,16,64,12,1,-8,-4,-4,-7
8.278184,1621,-41,-78,-10,-3,-10,-1,-3,-7
8.289818,1622,57,51,4,6,17,7,6,11
8.289839,1623,22,-8,1,-6,-18,-10,-11,-13
8.300427,1624,-40,-29,10,0,2,1,3,7
8.300446,1625,17,77,-3,-1,13,2,0,-6
8.313741,1626,-36,-53,-1,-7,-10,-3,-4,4
8.313757,1627,30,44,-6,8,11,-2,1,0
8.315182,1628,-4,-37,6,3,9,3,-1,-4
8.315190,1629,30,-3,-3,1,-6,-4,-3,7
8.336212,1630,18,12,4,-4,-11,2,4,1
8.336233,1631,-33,-9,-7,-7,-9,-8,-9,-11
8.338591,1632,-16,-4,-2,1,3,1,0,4
8.338601,1633,-30,-14,-8,2,-1,1,3,-2
8.350219,1634,37,-39,-1,1,12,4,1,5
8.350241,1635,-40,-46,-18,-11,-21,-8,-9,-13
8.359243,1636,33,-28,-6,-1,0,-1,-12,3
8.359260,1637,-9,9,13,-2,17,2,8,7
8.373757,1638,-29,-7,2,6,-3,4,3,-15
8.373772,1639,-30,14,10,-2,2,-4,-7,-6
8.375268,1640,3,-19,-7,0,4,3,1,1
8.375283,1641,1,-22,-11,-3,-10,-4,-2,1
8.396039,1642,2,14,9,4,5,2,0,10
8.396059,1643,17,-15,-7,-6,-5,0,4,-6
8.397741,1644,3,9,-12,-6,1,-1,0,6
8.397756,1645,-25,-24,-1,4,-7,-1,-3,-6
8.411662,1646,77,57,14,1,-31,-8,-4,5
8.411673,1647,-1,-18,2,3,24,8,7,3
8.419965,1648,2,16,-6,-6,-15,-3,-3,-3
8.419977,1649,44,10,2,-2,7,-4,-5,-5
8.442179,1650,-30,6,-9,0,-2,-3,-2,-2
8.442197,1651,1,-7,1,0,-3,4,5,13
8.442691,1652,-9,-3,7,0,-2,-1,6,-6
8.442705,1653,8,-11,-9,-7,-12,-2,-9,-2
8.456980,1654,-42,25,8,4,11,1,-1,-7
8.456992,1655,17,8,5,3,-4,-2,2,7
8.457660,1656,11,0,-3,-4,-2,-1,2,0
8.457675,1657,-22,2,-1,-3,-11,-3,-8,-10
8.470007,1658,0,60,-4,0,11,1,2,3
8.470022,1659,-5,-71,-11,-6,-14,-2,0,0
8.479974,1660,31,24,2,-5,-26,-3,-6,-9
8.479985,1661,3,3,1,-4,-5,0,4,17
8.493778,1662,-23,-52,-9,3,5,2,1,-11
8.493805,1663,36,72,8,-2,3,0,-1,0
8.496673,1664,-7,13,3,1,6,-3,0,3
8.496684,1665,-13,-17,-8,-2,0,-2,-6,-9
8.516122,1666,3,11,1,1,0,3,6,3
8.516138,1667,23,-6,7,-1,2,0,0,8
8.517809,1668,-59,-36,-12,-2,5,0,-1,-2
8.517825,1669,24,-7,8,6,7,2,2,0
8.538616,1670,21,-24,-8,0,9,0,-1,4
8.538658,1671,-61,5,3,-8,-11,-4,0,-12
8.540130,1672,-8,-12,-5,-5,-6,-2,-3,1
8.540186,1673,-14,-52,-12,-8,-19,-11,-8,-7
8.553685,1674,6,-38,-6,-6,-5,-3,-7,-10
8.553701,1675,-12,13,4,6,-6,-2,2,1
8.555099,1676,5,41,18,5,30,13,9,6
8.555111,1677,-15,-22,-12,4,1,-1,0,9
8.576397,1678,-24,15,3,-6,-3,-6,-6,-10
8.577333,1679,-4,-25,-6,1,1,1,1,0
8.577763,1680,22,9,-2,2,-3,-3,-2,2
8.577778,1681,-12,3,-3,-5,-2,1,-1,-10
8.598589,1682,33,2,-5,-3,-4,-4,2,9
8.598605,1683,-8,19,0,-2,3,0,-8,-1
8.600111,1684,-28,-8,-2,2,-1,-2,4,-3
8.600127,1685,22,1,1,0,4,1,-8,-1
8.613673,1686,18,4,11,5,21,7,3,4
8.613684,1687,28,81,2,8,15,1,8,9
8.615128,1688,-20,-41,-6,-8,-26,-5,-6,-11
8.615141,1689,-29,-49,-10,-11,-16,-12,-8,-17
8.637298,1690,16,17,-5,-5,-4,-3,-2,3
8.637319,1691,20,-2,-2,2,9,5,0,0
8.638919,1692,25,29,0,8,13,0,2,6
8.638928,1693,-16,27,11,1,2,1,4,3
8.660251,1694,2,2,-18,-3,-7,-2,-1,-1
8.660267,1695,11,-20,6,0,9,1,0,2
8.660272,1696,9,0,1,-1,-15,-1,1,7
8.660276,1697,-31,9,4,3,22,4,-3,2
8.673567,1698,40,-7,14,6,6,10,3,2
8.673596,1699,-59,-97,-17,-15,-37,-13,-5,-3
8.680513,1700,-29,36,-6,-8,-18,-14,-14,-22
8.680627,1701,32,-1,-3,-7,20,4,0,7
8.696541,1702,38,30,13,7,-3,-2,-1,-8
8.696568,1703,16,18,6,7,15,5,1,-1
8.697621,1704,-15,-6,-2,1,5,2,0,4
8.697635,1705,5,23,-4,-2,-14,-1,6,7
8.718591,1706,-9,-7,-5,-8,-2,-3,-2,1
8.718608,1707,5,8,3,3,-7,0,-2,-5
8.721725,1708,-2,-2,5,0,9,0,-1,1
8.721737,1709,19,20,8,12,7,4,4,-1
8.733119,1710,-16,-15,-13,-2,-11,-5,-2,-3
8.733136,1711,-3,-3,-11,-11,-10,-3,-6,-3
8.740240,1712,-29,-18,-7,2,13,4,1,-1
8.740270,1713,-29,-18,-1,-5,-20,-6,-6,-13
8.757152,1714,11,15,-4,-8,-5,-8,-4,4
8.757171,1715,8,36,8,5,3,-1,1,6
8.758841,1716,26,33,6,6,8,3,-1,1
8.758852,1717,7,-28,-3,-1,3,0,3,4
8.778798,1718,-23,47,3,-3,-1,-2,-1,0
8.778814,1719,10,9,0,-1,0,-2,0,-4
8.780395,1720,-15,-80,0,-1,2,1,-2,-1
8.780406,1721,29,22,-7,-2,-5,-1,-1,-2
8.793444,1722,-39,-5,-1,0,-3,0,1,-1
8.793472,1723,28,56,13,6,15,7,2,12
8.799916,1724,-49,-73,-12,-7,-12,-6,2,-4
8.799932,1725,56,45,-1,-11,-25,-8,-2,-2
8.816059,1726,5,-84,-13,-9,-24,-6,-12,-19
8.816075,1727,-28,-3,-10,-1,6,3,0,-5
8.817562,1728,10,46,8,5,21,2,0,5
8.817623,1729,-21,-37,1,3,6,-2,1,-1
8.838795,1730,-11,9,1,-2,2,0,2,5
8.838811,1731,-13,-9,3,1,-1,-1,3,-1
8.840627,1732,28,11,4,-1,-3,-1,-2,2
8.840644,1733,-2,12,3,2,4,3,0,5
8.853089,1734,5,29,-5,-7,0,-4,0,-3
8.853104,1735,-44,-100,-15,-6,-17,-5,-7,-4
8.860188,1736,-49,-41,-1,3,-3,-1,0,-1
8.860218,1737,-12,12,-3,1,5,1,-2,-9
8.877750,1738,15,13,12,9,10,4,5,10
8.877761,1739,9,-2,-6,-9,-10,-6,-3,-3
8.877763,1740,48,31,5,1,-1,0,0,2
8.877765,1741,-6,10,-15,-1,0,3,0,1
8.898828,1742,-39,-64,-4,-2,-11,-7,-1,-5
8.898850,1743,15,-22,-10,-3,-14,-1,-7,-14
8.900213,1744,22,35,-9,-4,-3,1,3,4
8.900224,1745,-8,-18,4,3,3,-1,1,-2
8.913157,1746,14,40,0,1,-3,-3,-8,2
8.913181,1747,18,27,1,-2,13,1,1,-2
8.919900,1748,-3,-6,-4,-3,3,0,-7,-10
8.919920,1749,-3,38,12,8,-4,0,-2,-2
8.936485,1750,17,-25,8,-6,-5,-3,3,4
8.936513,1751,-38,-15,-3,0,3,-2,-9,-7
8.939221,1752,10,-18,-13,-3,1,0,4,-5
8.939232,1753,20,17,0,-5,-4,-4,-1,9
8.958887,1754,-33,-8,-5,-3,-4,-2,-3,-10
8.958902,1755,22,49,7,9,7,0,0,2
8.960251,1756,6,24,2,0,7,4,2,4
8.960271,1757,-28,-10,-3,-3,-2,-1,-2,-5
8.973106,1758,9,51,8,8,1,2,8,9
8.973148,1759,17,-103,-10,-7,-6,-7,-9,-6
8.980123,1760,-20,17,1,0,-9,-5,-7,-6
8.981129,1761,-5,-23,-7,-7,-4,-2,-4,-10
8.996690,1762,-3,25,4,-2,7,2,1,2
8.996706,1763,9,57,0,2,5,1,6,3
8.998171,1764,-5,-5,0,-2,-3,-1,0,5
8.998182,1765,19,17,13,-1,13,-5,-1,4
9.018650,1766,20,4,0,19,12,9,3,9
9.018669,1767,-2,-1,11,1,4,8,19,10
9.020102,1768,-18,-80,-16,-11,-23,-12,-14,-17
9.020121,1769,-21,5,-13,-12,-8,-8,-5,-8
9.033591,1770,-32,-103,-21,-11,0,-7,-19,-26
9.033607,1771,3,77,19,9,7,2,0,10
9.042576,1772,9,9,-7,4,7,1,2,6
9.042589,1773,2,22,17,1,-2,-1,0,-1
9.056468,1774,9,7,4,3,-1,3,2,4
9.056493,1775,-13,11,-5,-1,5,1,-2,1
9.057629,1776,3,24,18,-3,-17,-5,4,-2
9.057678,1777,-27,-53,-16,-5,-11,-4,-3,-5
9.079610,1778,23,14,1,-7,-8,-2,1,-6
9.079623,1779,14,1,-23,-11,5,1,0,1
9.080133,1780,8,75,17,15,6,0,-2,2
9.080142,1781,8,-74,-8,5,-2,2,1,1
9.092443,1782,-7,-15,1,-6,1,-2,1,-1
9.094266,1783,-3,3,-10,-7,-17,-6,-5,0
9.102301,1784,44,15,6,4,14,6,6,7
9.102314,1785,-43,7,-3,-4,-3,-1,-3,-7
9.116515,1786,8,53,-1,0,17,-2,-1,2
9.116530,1787,11,-51,-1,8,-9,6,2,-3
9.117602,1788,6,14,-14,-17,-29,-16,-14,-13
9.117608,1789,-29,-40,1,-5,-13,1,4,8
9.139277,1790,7,-2,-5,-1,9,-1,-1,3
9.139306,1791,10,29,9,3,13,1,-3,14
9.141329,1792,-52,-36,-1,4,12,4,2,-24
9.141341,1793,3,-63,-13,-1,-3,1,-2,-2
9.152356,1794,11,57,7,-4,-16,-3,-2,9
9.152378,1795,5,-42,-1,0,-7,-6,-5,-14
9.162081,1796,-8,-29,-1,0,5,3,4,12
9.162096,1797,24,53,0,0,1,-1,-1,-5
9.176251,1798,-72,-22,-10,-2,-2,-2,-3,-12
9.176266,1799,49,39,2,-4,-5,-5,0,10
9.177668,1800,-13,-39,-3,-8,-2,-1,0,-2
9.177729,1801,17,-2,1,12,19,7,6,10
9.198844,1802,5,16,17,0,-8,-1,2,4
9.198861,1803,18,37,-1,-8,-11,-8,-11,-9
9.200873,1804,-45,-24,-3,0,4,4,8,2
9.200884,1805,65,43,2,-5,1,0,-1,-2
9.212443,1806,-1,5,-4,-1,-5,-3,-8,-6
9.212459,1807,-43,9,-9,-1,5,-6,-6,-15
9.221522,1808,26,12,9,1,-22,2,0,6
9.221535,1809,0,51,-3,1,-1,-1,4,8
9.236254,1810,39,7,18,6,1,5,10,5
9.236297,1811,-35,-42,-13,-7,-10,-6,-7,-18
9.237626,1812,40,24,7,4,12,-1,-2,9
9.237665,1813,-27,-43,-13,-11,-2,-6,-5,-12
9.258626,1814,31,25,-5,-4,-15,-2,1,4
9.258648,1815,-37,-74,-10,4,4,1,-6,-11
9.260048,1816,18,23,7,4,2,0,1,2
9.260060,1817,39,51,12,4,4,1,1,11
9.272695,1818,-47,-71,-12,-9,-2,-4,-4,-15
9.272714,1819,-3,-8,11,0,6,2,5,4
9.282221,1820,3,14,-7,0,1,4,3,2
9.282232,1821,18,27,21,7,2,-4,-5,-2
9.296412,1822,-42,-67,-24,-8,-9,-3,-3,-4
9.296427,1823,1,29,3,-5,5,2,0,1
9.298287,1824,5,10,-2,-2,-4,-2,1,2
9.298298,1825,-22,-29,7,6,-2,2,-6,-6
9.319252,1826,16,51,14,5,1,0,3,10
9.319280,1827,-16,-30,-15,-9,8,-9,-10,-15
9.320923,1828,32,-4,-11,-2,-12,2,8,6
9.320934,1829,0,56,7,-3,-2,1,0,3
9.332927,1830,-21,-33,-1,-3,5,0,-1,-8
9.332946,1831,23,65,8,5,6,3,1,-2
9.342223,1832,-57,-95,-11,0,8,-2,-6,6
9.342234,1833,30,18,-11,-4,-14,-3,0,0
9.363704,1834,-62,24,7,-2,-4,2,-2,-8
9.363718,1835,5,-49,3,0,-7,0,6,7
9.365101,1836,15,35,5,-2,5,-4,-9,-8
9.365113,1837,9,10,-1,1,-1,3,2,-1
9.378678,1838,22,-53,-17,1,1,-1,3,6
9.378692,1839,2,31,15,2,-6,-1,1,0
9.380125,1840,11,14,-1,-3,-9,-1,1,3
9.380137,1841,-35,-33,-12,-2,15,-5,-6,-5
9.393149,1842,21,71,2,6,13,4,4,-3
9.393160,1843,-4,-6,3,-1,-17,-3,5,3
9.402027,1844,4,3,-16,-6,-6,-3,-7,13
9.402039,1845,-20,-36,10,0,8,-2,2,-15
9.416500,1846,20,53,15,2,-3,0,-5,-3
9.417439,1847,-10,-46,-30,-8,-2,-3,-3,-8
9.417703,1848,19,41,8,1,3,-2,-2,-5
9.417737,1849,11,0,-2,1,-18,-1,3,10
9.440177,1850,-21,-28,-5,-8,-1,-5,-6,-9
9.440188,1851,7,40,13,10,8,6,8,14
9.440190,1852,18,18,0,-6,-2,-4,-6,-16
9.440191,1853,-65,-74,-7,-1,-1,1,2,5
9.461372,1854,93,28,-6,-3,-9,-5,0,2
9.461393,1855,-74,-44,1,-2,-3,0,5,8
9.463176,1856,-10,-4,4,3,10,5,-2,-3
9.463187,1857,25,34,-1,-2,11,-10,-4,-11
9.476249,1858,1,48,0,1,1,7,-3,6
9.476264,1859,5,-35,-10,-3,3,1,-3,-12
9.477928,1860,4,1,0,1,-3,-3,2,3
9.477940,1861,6,20,3,-8,-18,-2,3,8
9.506651,1862,-89,-56,-16,-4,8,1,1,-9
9.506679,1863,23,12,11,3,-5,-8,-11,-10
9.507739,1864,-19,15,10,6,0,4,9,6
9.507762,1865,-33,-33,-17,-10,-6,-6,-12,-14
9.521349,1866,60,-9,-4,-4,-8,-6,-1,3
9.521378,1867,28,65,-4,-2,-3,1,0,1
9.523636,1868,-21,-12,-1,2,2,0,-1,4
9.523647,1869,-47,-52,5,7,-1,3,-2,0
9.536122,1870,42,39,-10,-1,-2,0,3,9
9.536139,1871,51,-9,12,-2,1,-5,2,5
9.538065,1872,-2,9,1,-1,-2,-1,-2,-10
9.538079,1873,1,34,-3,-1,1,4,-2,-2
9.558733,1874,-12,-9,7,0,-2,-1,2,-4
9.558748,1875,-53,-68,-15,-4,-9,-3,-5,1
9.560062,1876,16,-32,-17,-15,-11,-8,-6,-15
9.560075,1877,24,16,11,6,-18,7,3,7
9.581288,1878,-14,-50,0,4,1,-2,-1,3
9.581314,1879,8,77,9,1,-11,2,5,9
9.582689,1880,-14,-24,-4,-3,1,-2,-8,-9
9.582706,1881,4,3,-4,-6,7,-2,-1,1
9.596085,1882,19,28,5,5,5,-1,-4,-5
9.596098,1883,27,11,-3,0,-5,3,5,8
9.602541,1884,-55,-3,7,2,-1,0,2,-4
9.602557,1885,48,31,-2,-4,-1,-2,-6,-1
9.618774,1886,-65,-40,-7,-5,2,1,9,3
9.618797,1887,10,-17,13,9,5,-2,-2,-7
9.620169,1888,-15,52,0,1,1,-2,-10,3
9.620208,1889,23,-7,5,1,10,1,2,-10
9.641174,1890,12,-8,-1,0,-7,-3,-2,12
9.641194,1891,-89,-35,-8,-7,7,2,-1,-17
9.642593,1892,25,-19,-5,-6,-2,-6,1,1
9.642608,1893,-14,-45,-8,0,0,-4,-3,-2
9.656124,1894,53,73,11,0,4,1,-2,3
9.656138,1895,-30,-24,-6,-1,0,-1,-3,-4
9.662567,1896,0,-4,4,5,5,-1,-3,7
9.662591,1897,-35,-36,-14,-6,-13,-6,-4,-9
9.678921,1898,21,-4,-1,-8,-21,-5,-2,-1
9.680004,1899,22,25,9,12,25,4,3,1
9.680192,1900,-10,11,5,-2,-2,2,1,7
9.680265,1901,8,23,-5,-5,-5,-3,3,7
9.703345,1902,13,-3,2,-5,-1,-3,-7,-11
9.703362,1903,34,64,-7,2,-6,1,1,1
9.703366,1904,-44,-35,1,-2,7,-2,1,-3
9.703370,1905,-51,41,5,3,-16,1,-8,-2
9.715695,1906,13,-49,5,3,-5,-4,3,5
9.715716,1907,-17,23,-6,-1,11,4,1,1
9.722705,1908,18,25,-8,-2,-5,0,2,-7
9.722752,1909,20,21,2,-1,18,0,0,0
9.739024,1910,-24,-39,-10,-11,5,-8,-10,-13
9.739052,1911,19,14,2,-13,-29,-2,0,6
9.741531,1912,13,4,-5,15,19,1,4,10
9.741547,1913,-49,-37,6,-13,-8,2,0,-3
9.761143,1914,16,1,-2,31,34,5,3,4
9.762253,1915,2,33,-5,-13,-13,-9,-3,-2
9.762697,1916,-5,-54,-1,-4,-3,1,0,-3
9.762706,1917,29,39,-2,-3,-14,-2,1,0
9.775482,1918,-4,10,4,-1,-4,2,-2,-2
9.775499,1919,-12,11,10,0,-2,-3,-3,5
9.789855,1920,13,-6,-11,-5,-4,0,-8,-6
9.789876,1921,7,22,0,8,10,0,9,-10
9.798845,1922,-34,-57,-7,-6,2,5,4,10
9.801065,1923,15,-21,-9,-3,4,-7,-5,1
9.801078,1924,4,14,2,-6,-5,0,-1,-1
9.801080,1925,26,18,11,2,-3,0,0,1
9.828804,1926,-5,3,-19,-8,-9,-3,-5,6
9.828848,1927,-33,-52,7,9,16,0,-3,-23
9.830286,1928,43,37,2,0,-1,0,3,6
9.830301,1929,11,-6,-6,-1,-4,-1,0,4
9.835805,1930,-44,-53,-14,-10,0,-2,-4,-13
9.835826,1931,69,30,18,16,15,5,4,15
9.842281,1932,-56,-22,-6,-12,-18,-6,-5,-13
9.842298,1933,18,4,1,6,-5,-4,-3,4
9.858570,1934,19,45,2,-14,-13,-3,-3,-5
9.858583,1935,-4,-20,1,9,7,0,2,8
9.860236,1936,-8,18,9,9,34,5,8,4
9.860276,1937,-30,11,-16,0,3,4,1,-8
9.881564,1938,39,-28,12,-10,-28,-9,-2,7
9.881593,1939,-32,-40,-18,-5,-1,-3,-5,-13
9.883489,1940,20,40,16,0,-4,-1,-9,-2
9.883501,1941,-15,-32,-7,-2,7,-2,-1,-2
9.895898,1942,-24,19,5,5,3,2,2,-4
9.895928,1943,-9,-13,3,2,0,5,3,6
9.903036,1944,10,47,-17,-11,-22,-11,-10,-12
9.903074,1945,-21,-59,1,-6,2,-1,0,-1
9.920091,1946,-4,-14,-5,1,8,-1,-5,-12
9.920104,1947,10,35,-4,-4,-10,-6,1,1
9.920161,1948,20,-12,-2,1,-5,0,2,2
9.920167,1949,-15,7,7,0,-6,-3,-2,1
9.941269,1950,18,103,25,5,14,3,5,19
9.941289,1951,-49,-96,-25,-12,-11,-5,-6,-12
9.942694,1952,-22,-54,1,3,-3,0,-2,-6
9.942772,1953,36,20,-9,2,4,-1,-1,-4
9.954947,1954,-11,40,0,6,20,-1,0,4
9.954970,1955,17,13,14,-9,-36,-4,-3,3
9.965163,1956,8,-7,7,5,7,3,4,2
9.965175,1957,13,-29,-3,1,12,0,-4,3
9.978719,1958,-42,-33,-10,-7,-7,-3,2,-11
9.978734,1959,18,48,2,-3,-4,2,1,6
9.980953,1960,-5,-81,-17,-7,-8,-5,-2,-5
9.980969,1961,31,70,11,7,14,2,0,5
10.001190,1962,-55,-60,-11,-3,-10,-2,-3,-12
10.001207,1963,36,-5,1,-2,3,-2,-2,-9
10.002622,1964,68,61,2,-6,-3,-1,0,9
10.002638,1965,-41,-3,-4,5,-5,-2,-3,-3
10.014875,1966,18,-13,5,1,-3,1,-1,-6
10.014896,1967,5,33,0,3,11,1,4,18
10.024566,1968,-14,-53,-12,-10,-4,3,2,-12
10.024583,1969,1,25,13,6,-8,-8,-6,4
10.038794,1970,-27,-7,-15,-4,-14,-4,-5,-11
10.038819,1971,-9,1,-2,-7,2,-2,-3,1
10.040134,1972,12,8,-5,3,16,-3,1,2
10.040147,1973,-22,-71,-3,-3,-12,5,6,-2
10.061214,1974,3,1,9,9,-7,5,5,6
10.061234,1975,23,-15,-16,-12,-3,-10,-15,-11
10.062640,1976,0,37,9,3,-7,-4,2,9
10.062661,1977,-23,-31,-14,-8,-3,-3,-2,-10
10.074834,1978,-18,-1,4,4,18,7,1,-2
10.074849,1979,19,40,10,12,7,5,6,6
10.084760,1980,1,19,3,-6,-25,-11,-5,-1
10.084774,1981,-4,-10,-21,-7,2,-1,0,-2
10.098726,1982,47,22,-2,-3,-8,-2,-3,-1
10.098742,1983,-19,-13,-3,-2,7,1,-2,-11
10.100096,1984,-7,6,5,5,5,3,1,1
10.100132,1985,16,18,0,0,3,1,1,7
10.121071,1986,29,82,19,6,8,2,4,8
10.121085,1987,-37,-37,-4,-8,-16,-1,-3,-4
10.122633,1988,-53,-34,-16,-5,-2,-7,-5,-8
10.122646,1989,36,22,-3,-6,-7,-1,-3,3
10.134830,1990,-6,-25,-11,-2,20,-4,-6,-7
10.134847,1991,15,36,6,3,-12,1,-3,-1
10.145034,1992,16,20,10,2,1,4,4,13
10.145045,1993,8,-8,7,5,5,1,-1,2
10.158941,1994,25,17,3,-2,2,-3,-2,7
10.158970,1995,-26,-32,-1,7,14,4,1,5
10.161044,1996,-11,-8,-5,6,5,2,3,-12
10.161059,1997,-19,-87,-4,-14,-30,-11,-1,-6
10.182695,1998,-52,-34,-6,-3,1,-1,-5,-12
10.182708,1999,24,8,2,-6,-7,-4,0,3
10.182710,2000,-1,19,-9,1,6,3,-2,2
10.182757,2001,11,36,7,7,10,1,3,6
10.195390,2002,38,23,9,0,-1,1,1,4
10.195433,2003,-20,63,12,9,-7,8,9,7
10.205238,2004,-5,-86,-11,-10,4,-8,-9,-16
10.205250,2005,38,40,-2,2,18,-5,-5,-8
10.218699,2006,-33,-71,-31,-15,-24,-5,-4,-5
10.218725,2007,12,27,5,6,8,3,-2,3
10.220130,2008,11,61,14,7,-1,4,2,5
10.220148,2009,-5,-5,-3,-4,1,2,-2,-1
10.241615,2010,11,-34,2,2,1,-1,-4,-3
10.241644,2011,-3,-17,-4,-5,-3,-2,3,0
10.243404,2012,29,21,0,-2,-4,0,0,9
10.243422,2013,-3,1,6,5,11,5,0,3
10.255377,2014,-44,4,-4,10,-6,1,3,-4
10.255394,2015,9,-54,2,-5,-15,-1,-3,-6
10.265785,2016,-79,-69,-23,-22,4,-13,-11,-14
10.265798,2017,19,46,-1,-3,-7,-3,-5,-4
10.279383,2018,19,45,9,-5,-9,-4,0,4
10.279397,2019,11,10,-5,3,6,0,-1,0
10.280893,2020,13,10,1,8,8,5,1,7
10.280912,2021,1,-7,8,9,28,3,4,-6
10.302003,2022,13,54,13,-2,-25,-1,3,8
10.302033,2023,-20,-76,-27,-11,-11,-5,-9,-26
10.304397,2024,3,2,8,9,3,1,2,1
10.304409,2025,-16,10,-7,-9,-12,-2,-4,-3
10.315191,2026,-19,-57,-22,-5,3,-2,-1,-2
10.315231,2027,21,24,12,-1,2,-2,1,14
10.323693,2028,-1,25,-3,7,-3,2,-1,-1
10.323709,2029,-7,2,17,0,-16,-2,3,-2
10.339691,2030,-5,-1,0,-2,8,-4,-6,-10
10.339703,2031,1,22,2,1,2,-1,-1,3
10.340158,2032,-19,-15,2,1,7,5,4,1
10.340167,2033,20,-12,-6,-2,-1,-1,-1,5
10.361350,2034,26,8,-2,-5,-2,-4,-2,0
10.362827,2035,10,13,1,1,-5,-3,3,2
10.362839,2036,-7,39,9,-4,-18,0,-2,-1
10.362841,2037,-8,-49,-16,0,16,-7,-9,-10
10.383693,2038,-2,-11,3,2,-24,4,0,-1
10.383711,2039,4,-38,-5,1,14,0,-3,2
10.385188,2040,-7,25,6,4,-5,4,6,5
10.385200,2041,28,4,-6,-4,-16,-2,1,-1
10.398080,2042,-6,5,7,-5,4,-6,-2,-1
10.398098,2043,-21,-11,-11,-6,-13,-4,-5,-2
10.404834,2044,2,-4,-4,1,2,0,0,-8
10.404853,2045,-5,26,10,2,8,5,-1,16
10.421255,2046,25,0,1,6,7,2,5,-15
10.421275,2047,0,30,1,-3,-5,-2,-1,3
10.423103,2048,16,-12,-10,-7,-6,-4,-6,-8
10.423114,2049,-42,-26,-5,-1,-2,-1,-1,-6
10.444167,2050,22,16,3,0,2,1,-2,12
10.444183,2051,-17,19,0,0,5,4,2,-1
10.445681,2052,10,-11,0,3,11,3,3,2
10.445693,2053,40,58,-4,-4,-11,-3,-3,-4
10.458914,2054,-63,-66,-1,-4,-10,-8,-9,-5
10.458930,2055,5,-5,-10,-8,13,-9,-5,-13
10.460771,2056,28,-1,-2,-1,-12,-1,-1,3
10.460788,2057,0,1,2,3,2,6,7,6
10.481652,2058,9,36,5,-2,3,1,-1,-1
10.481664,2059,18,7,-2,7,29,2,2,7
10.482694,2060,-13,-26,6,-2,-16,0,0,-4
10.482731,2061,-41,-23,-7,0,-8,-5,-9,-3
10.502970,2062,-53,-89,-11,-8,0,-7,-2,-16
10.502988,2063,-11,1,1,-1,-10,-1,-3,-8
10.504052,2064,31,16,8,-1,1,-1,-2,7
10.504059,2065,-12,5,2,-1,-5,2,3,3
10.518684,2066,29,28,0,2,1,0,-2,5
10.518701,2067,0,13,-3,-4,-3,2,1,-3
10.520151,2068,-6,5,17,13,15,6,10,16
10.520193,2069,33,21,-1,-3,-9,-1,-4,-5
10.541501,2070,-67,-82,-24,-12,-25,-12,-15,-23
10.541512,2071,28,4,-7,-11,-14,-5,1,-9
10.542612,2072,9,17,-11,-4,-12,-5,-7,3
10.542627,2073,16,15,7,3,41,3,6,9
10.563707,2074,45,82,9,7,3,9,8,15
10.563725,2075,-52,-27,3,-1,3,-1,-3,-7
10.565098,2076,6,-11,-9,-5,-10,-7,-5,-3
10.565111,2077,-6,-22,6,6,8,3,4,5
10.577955,2078,48,80,1,3,16,3,3,2
10.579092,2079,-50,-72,1,-3,-18,0,-2,-5
10.585204,2080,24,21,8,4,6,-4,0,3
10.585232,2081,-48,-3,-11,-12,-13,-1,-7,-9
10.601356,2082,40,23,-14,-18,-22,-13,-12,-11
10.601372,2083,11,-15,-1,0,1,4,6,7
10.603381,2084,-17,-7,-4,-4,-1,-4,-1,-5
10.603392,2085,7,2,3,7,-4,-1,3,4
10.623703,2086,-6,28,1,15,12,5,4,4
10.623719,2087,16,9,9,-2,-1,-4,-4,-4
10.625323,2088,-11,-24,-2,-6,-3,-1,-2,-4
10.625367,2089,14,30,6,1,5,0,4,8
10.638074,2090,-44,-4,0,6,4,2,0,5
10.638097,2091,43,-7,-9,-5,-11,-6,-8,-18
10.644938,2092,-6,-25,-8,-9,-9,-4,-8,-5
10.644954,2093,-6,-35,-5,-9,-12,-2,-1,-7
10.661114,2094,9,23,9,2,5,-1,0,9
10.661131,2095,3,34,1,10,3,5,1,10
10.663183,2096,-11,30,-3,-2,3,-3,-1,-9
10.663196,2097,14,-14,-4,1,-10,-6,-3,-4
10.683627,2098,10,-8,4,4,30,10,6,10
10.683666,2099,-14,32,19,7,-10,3,5,4
10.685090,2100,48,11,0,6,-12,0,13,18
10.685143,2101,-21,-50,-18,-19,-25,-14,-21,-13
10.698261,2102,-87,-62,-6,-7,-27,-6,-2,-13
10.698278,2103,19,-42,-11,-7,12,4,-6,-6
10.713646,2104,2,-28,-1,2,19,5,7,6
10.713659,2105,16,6,10,8,4,5,7,10
10.721366,2106,18,10,5,-2,-6,-4,1,1
10.721383,2107,18,36,-6,4,4,-5,-2,6
10.722821,2108,-40,-14,6,-2,0,2,-1,-3
10.722832,2109,-42,7,5,6,2,0,-2,-5
10.745529,2110,29,-72,-4,-3,7,-1,-3,-3
10.745541,2111,3,16,-3,-3,-23,-5,-3,-1
10.745543,2112,0,18,-4,0,8,0,-9,-10
10.745545,2113,2,22,9,-6,-8,-1,1,-1
10.758041,2114,22,44,-5,-1,13,6,6,7
10.758064,2115,-14,-30,-2,5,12,-7,-2,5
10.765196,2116,-9,27,-2,-6,-22,-1,-8,-12
10.765223,2117,-8,-22,1,1,2,-1,1,-1
10.781691,2118,55,18,-2,-1,1,0,-6,1
10.781723,2119,-26,24,0,-1,3,1,9,4
10.783650,2120,-42,-68,-3,-7,-3,-5,-6,-15
10.783662,2121,-47,-10,0,0,-3,0,-4,-6
10.804700,2122,51,51,-5,0,-7,0,3,5
10.804728,2123,38,69,3,0,0,2,3,14
10.807212,2124,-89,-88,-8,-4,0,-2,-7,-15
10.807232,2125,40,28,1,-2,2,0,0,4
10.818099,2126,-6,22,5,-3,-5,-4,-3,-10
10.818123,2127,-5,-56,-8,-7,-11,-3,-1,3
10.824877,2128,11,34,-3,4,3,-4,-7,-3
10.824893,2129,14,-23,-5,2,9,7,5,7
10.841274,2130,-33,-6,2,-4,-19,-7,-3,-3
10.841317,2131,1,-4,8,5,-11,-4,0,0
10.842663,2132,27,16,4,-6,15,-9,4,6
10.842677,2133,11,-43,-4,-4,-26,6,-2,-3
10.863631,2134,11,-5,-2,4,20,-1,-2,2
10.865138,2135,-57,-21,-7,-7,5,-1,-4,-17
10.865149,2136,66,48,4,7,-2,-2,-1,0
10.865151,2137,-79,-46,-3,1,4,-6,-2,-2
10.877357,2138,6,17,-7,-5,-6,1,-1,-10
10.877380,2139,-6,-101,-9,-4,-5,-1,-3,-2
10.886472,2140,8,52,18,1,-3,1,1,-1
10.886484,2141,41,-1,-9,-1,6,-1,1,4
10.901673,2142,-78,-47,1,6,-3,0,0,4
10.901684,2143,-52,9,0,-2,4,-3,-3,-8
10.901686,2144,45,13,-7,0,1,6,4,12
10.901688,2145,-55,-42,1,-2,-8,-6,-7,-14
10.923495,2146,20,39,5,-1,1,-2,-1,2
10.923523,2147,16,10,-4,-3,3,-1,-2,-6
10.923915,2148,-26,-16,-7,-3,0,-1,-1,1
10.925320,2149,33,55,-1,1,10,1,1,4
10.945801,2150,8,-14,-1,3,-30,-3,-1,1
10.947187,2151,7,24,6,3,8,3,-7,8
10.947197,2152,-27,-47,-7,-1,-7,0,3,-6
10.947199,2153,39,29,2,-6,-1,-4,-1,-3
10.960608,2154,-11,32,7,0,1,0,-1,0
10.960625,2155,19,-5,-4,2,12,-1,3,7
10.961977,2156,-32,-19,-5,0,3,1,-6,-11
10.961985,2157,20,20,-2,-2,16,3,-1,5
10.983051,2158,-56,-66,-7,-4,1,-3,0,-7
10.983080,2159,46,35,6,-1,-6,-1,-1,2
10.983685,2160,-28,86,-2,-3,-10,-6,-2,8
10.983693,2161,-1,-49,-5,-5,-10,-2,-1,-13
11.005821,2162,11,14,1,2,10,1,-1,1
11.005850,2163,14,11,-5,1,1,3,1,-3
11.007731,2164,15,-10,7,2,23,-2,-5,8
11.007744,2165,-22,4,-4,-1,-22,-1,-2,-7
11.020600,2166,-3,-46,-8,-4,2,0,0,-6
11.020626,2167,17,18,9,3,-4,-3,4,5
11.021886,2168,11,26,-6,2,8,5,-2,-2
11.021897,2169,23,11,5,-2,0,-2,-3,4
11.043696,2170,25,-42,-4,-4,-8,-3,0,0
11.043710,2171,-48,-28,-21,-15,-26,-10,-8,-4
11.043712,2172,23,9,4,-3,-6,-1,3,-5
11.043713,2173,-13,-29,3,7,3,2,1,7
11.065714,2174,-2,13,-11,-1,2,2,-2,-2
11.065746,2175,18,25,12,1,9,1,1,-1
11.067498,2176,14,12,-9,-1,-17,-4,-1,5
11.067510,2177,-16,-13,11,6,7,5,5,1
11.080503,2178,-4,-13,-1,-8,-5,-9,-8,-13
11.080519,2179,-41,-8,-1,-1,4,-1,-6,-1
11.081257,2180,3,3,6,3,-2,3,7,6
11.081266,2181,22,75,-24,-7,-7,-5,-4,-9
11.104692,2182,-23,-45,8,6,11,4,6,8
11.104703,2183,12,15,6,-7,-21,-3,-2,-8
11.104705,2184,28,8,-11,2,19,4,-1,1
11.104707,2185,-28,-11,-1,2,24,0,3,5
11.126341,2186,31,28,-8,-8,-20,-7,-10,-3
11.126359,2187,10,9,5,8,-2,1,-3,-2
11.126362,2188,11,-13,5,-1,-10,1,4,0
11.128027,2189,-26,32,-2,2,7,0,-6,-10
11.140556,2190,13,-55,-1,-4,8,2,1,9
11.140580,2191,-8,-19,4,3,8,-1,0,-11
11.142139,2192,-15,-16,-7,-5,-17,-1,-12,-2
11.142155,2193,-24,36,13,8,0,4,15,3
11.162904,2194,-30,-51,-15,-15,-16,-9,-10,3
11.162921,2195,26,56,9,10,2,3,3,2
11.164573,2196,-27,-46,2,0,5,-3,-2,-9
11.164583,2197,34,25,-3,-13,-8,-5,-8,0
11.185563,2198,-9,20,-14,9,7,5,3,-2
11.185586,2199,32,44,22,-1,3,-1,-1,3
11.186229,2200,-47,-6,1,-2,-8,-2,1,3
11.186303,2201,38,33,4,-3,-5,-2,-3,-3
11.200919,2202,-57,-15,5,4,8,0,4,-2
11.202754,2203,5,-36,-21,-8,-5,-2,-4,-2
11.202771,2204,22,-13,8,1,-3,-3,-1,4
11.202775,2205,10,-63,-7,-7,-29,-1,-3,-10
11.223077,2206,37,62,3,5,9,-3,-2,6
11.223094,2207,-41,-14,-9,2,8,2,2,2
11.225160,2208,-21,-9,5,-2,-13,-2,-7,0
11.225172,2209,19,-6,-2,4,26,5,4,-7
11.245360,2210,67,94,17,5,0,3,2,13
11.245374,2211,-72,-96,-12,-14,-17,-5,-1,-9
11.246294,2212,9,-41,-21,-18,-13,-10,-7,-12
11.246315,2213,-33,-7,-9,0,-1,0,-1,2
11.260552,2214,17,16,19,4,19,7,4,-1
11.260564,2215,-8,22,2,12,-6,-2,-4,-3
11.261058,2216,3,19,2,3,3,0,1,0
11.261067,2217,24,70,12,-4,-6,-4,0,12
11.283690,2218,-30,-85,-12,-4,-9,-2,-2,-12
11.283711,2219,66,42,1,-4,7,1,3,14
11.285235,2220,-77,-50,-2,4,25,2,4,-12
11.285244,2221,5,0,-11,-7,-21,-3,-10,-9
11.308157,2222,13,32,-1,0,0,-4,-3,0
11.308169,2223,6,19,2,0,7,4,3,7
11.308171,2224,44,-19,1,5,11,2,-2,8
11.308173,2225,-16,-12,-8,-8,-14,-8,2,-3
11.322211,2226,-16,14,4,-5,-6,-1,2,0
11.322227,2227,-8,1,-16,-5,-3,-1,-3,-4
11.322231,2228,9,20,25,2,-2,1,1,2
11.322235,2229,-1,10,-7,17,25,4,-2,0
11.343136,2230,-17,-48,-2,1,-8,0,-2,-7
11.343160,2231,54,63,9,-1,5,2,2,4
11.343749,2232,-100,-78,-26,-11,-9,-5,-5,-18
11.343765,2233,17,-34,11,-6,-12,-7,-1,0
11.365570,2234,-2,88,-7,1,5,-2,-1,-4
11.365588,2235,-10,-56,4,-1,0,1,1,7
11.367377,2236,36,55,-1,1,-6,-2,-1,2
11.367389,2237,-20,-19,5,0,3,-1,3,0
11.380641,2238,-16,-12,-5,-4,-13,-3,-6,-11
11.380671,2239,-16,-5,-2,-1,18,-1,1,-4
11.382514,2240,52,11,-19,-4,-42,1,-3,0
11.382526,2241,-25,2,23,9,25,2,6,8
11.403165,2242,14,19,2,0,-7,-6,-3,-3
11.403197,2243,-4,1,-9,-5,7,1,-5,-8
11.405031,2244,-12,-34,-11,-6,0,-1,3,0
11.405043,2245,12,13,-5,1,3,-1,-2,7
11.425608,2246,7,-6,2,2,8,2,-5,-2
11.426853,2247,-32,1,-8,1,-6,-4,0,-6
11.426864,2248,27,42,14,1,7,0,0,6
11.426866,2249,-26,-21,-17,-4,-12,-3,-3,-3
11.440749,2250,4,4,9,2,9,5,4,7
11.441670,2251,5,-3,-12,-8,-21,-11,-7,-10
11.441681,2252,36,-16,-4,2,20,9,6,1
11.441683,2253,-38,-27,-1,-6,-7,-6,-10,-12
11.462924,2254,18,16,-3,-7,5,-3,-7,5
11.462975,2255,-15,-31,4,11,-12,6,9,1
11.463757,2256,14,42,5,5,8,1,1,2
11.463836,2257,29,6,-7,0,-8,0,2,1
11.485569,2258,11,18,12,-7,-14,-5,-2,-10
11.485592,2259,5,-10,6,-4,0,-3,-4,9
11.486795,2260,7,-45,-17,-8,-8,-6,-7,-11
11.486812,2261,17,22,-11,-2,6,0,-1,0
11.500407,2262,10,-11,-2,-1,5,3,4,4
11.500426,2263,5,13,-3,3,2,-1,1,8
11.501269,2264,17,42,6,3,2,-3,1,6
11.501279,2265,5,-5,9,2,5,9,6,3
11.524290,2266,-21,-12,-4,-6,-16,-5,-2,-8
11.524302,2267,5,-10,-6,-4,4,-3,-6,-10
11.524304,2268,-19,-45,-13,-4,3,0,5,1
11.524306,2269,11,-17,-6,-7,-10,-12,-9,3
11.545431,2270,7,-13,2,6,-19,11,6,5
11.545449,2271,-5,-2,-7,0,9,6,7,1
11.546654,2272,9,8,19,2,-16,-9,-5,0
11.546679,2273,-14,11,-2,-7,-3,-4,-4,-4
11.560498,2274,6,7,-4,-1,-7,-2,0,5
11.560521,2275,-11,27,4,1,2,3,-2,3
11.561521,2276,14,-52,-11,-3,-7,3,1,-5
11.561535,2277,-6,-1,12,5,4,0,0,-4
11.582979,2278,6,-20,-10,-2,9,-5,-5,5
11.583007,2279,26,42,14,4,-2,1,-2,-16
11.584224,2280,-19,58,2,-2,1,0,-2,3
11.584241,2281,-7,-27,1,-5,-8,-1,0,-6
11.605430,2282,18,1,-7,-1,9,1,3,6
11.605454,2283,18,23,5,-2,-3,-9,1,7
11.606241,2284,-43,-10,-9,-1,13,10,-3,-7
11.606260,2285,-12,-46,-14,-3,-2,-2,-9,-1
11.620607,2286,-1,10,3,4,5,6,8,0
11.620641,2287,-6,-13,-3,-10,-14,-7,-10,-3
11.621765,2288,-46,25,5,5,15,-3,0,-8
11.621789,2289,21,21,-4,8,-4,5,3,5
11.642902,2290,-4,-1,-2,-9,-10,-2,2,2
11.642923,2291,3,-22,0,-1,-1,1,0,0
11.643877,2292,17,24,4,-3,-9,-9,-5,-2
11.643889,2293,-15,19,0,-1,5,6,7,9
11.665350,2294,-6,4,1,-1,3,-4,-4,-7
11.665363,2295,-19,-60,-9,2,-8,-3,-4,-6
11.666062,2296,25,23,12,4,-3,0,-1,8
11.666079,2297,20,29,-7,-1,-2,-2,-1,-5
11.680435,2298,-10,-19,-6,0,-3,-3,-6,-4
11.680453,2299,-5,8,-7,-7,-6,3,4,0
11.681224,2300,10,-38,5,5,-1,0,2,2
11.681285,2301,-34,-15,12,-1,0,-2,-1,-2
11.703175,2302,11,12,-4,-3,-5,-2,0,3
11.704276,2303,-6,23,-3,2,-14,-6,-1,-6
11.704285,2304,-15,-43,4,-4,17,2,-1,7
11.704287,2305,7,10,-8,-6,-9,-1,-3,-3
11.733552,2306,-63,-28,1,1,14,-1,-2,-3
11.733568,2307,8,-2,-4,0,-3,4,0,5
11.734649,2308,-26,11,-3,-10,-18,-5,-3,-4
11.734666,2309,-14,-77,-5,-4,-3,-3,-2,0
11.740475,2310,11,0,3,2,15,4,0,-1
11.740492,2311,6,27,11,11,8,1,-1,7
11.741223,2312,1,16,-7,-1,-33,-1,0,-3
11.741231,2313,4,-20,-2,0,10,-4,-4,-8
11.762932,2314,7,30,3,1,4,1,4,0
11.762948,2315,-26,-26,-2,-6,-4,0,-5,5
11.763630,2316,24,-54,-18,-10,-6,-7,-5,-19
11.763646,2317,-24,26,-1,-1,-8,0,5,6
11.785615,2318,30,27,-9,-3,-12,-6,-7,-4
11.786838,2319,-7,-24,9,5,36,11,2,1
11.786849,2320,10,20,15,3,7,0,-1,1
11.786851,2321,-9,15,-7,-3,-8,-1,0,-4
11.800805,2322,-39,-68,-12,-5,-5,-4,-5,-6
11.802288,2323,-12,69,-4,-2,9,-2,1,2
11.802302,2324,39,18,-2,-3,-5,-3,0,-1
11.802306,2325,-27,-32,2,-1,4,-1,-5,-11
11.823179,2326,55,70,16,8,7,5,7,13
11.823200,2327,-21,-65,-4,-2,-8,-4,-2,-11
11.823747,2328,24,24,-3,-7,10,-4,-5,-9
11.823757,2329,5,17,-6,-1,-7,0,1,6
11.845779,2330,43,22,0,1,-18,-3,0,5
11.845795,2331,-22,-26,-7,-4,-3,-1,0,2
11.846486,2332,-27,61,-4,8,8,6,8,3
11.846493,2333,34,21,6,3,-2,3,0,1
11.860833,2334,-45,-50,-3,-4,-3,-7,-16,-18
11.860862,2335,21,6,-5,-8,-8,-3,5,-2
11.862149,2336,-2,-19,5,2,-3,1,1,17
11.862158,2337,34,46,-2,-6,1,-2,2,3
11.884180,2338,-30,-13,5,4,6,3,2,-1
11.884192,2339,42,48,5,-5,-3,-4,-5,-4
11.884194,2340,-70,-102,-8,5,0,1,0,-4
11.884195,2341,28,59,10,2,14,3,-3,2
11.905622,2342,-18,-38,-8,2,-1,3,1,-7
11.905638,2343,75,63,-1,0,-4,0,-1,5
11.906662,2344,-44,-35,-13,-7,-1,-2,-1,-4
11.906673,2345,13,-2,9,-2,-9,-4,-2,-4
11.919940,2346,-1,-15,-3,-2,-1,0,-1,7
11.919957,2347,7,29,5,4,14,-2,0,6
11.928076,2348,18,20,-1,2,-3,-2,-2,-3
11.928092,2349,-36,-38,-5,-3,-5,-5,-1,-5
11.942887,2350,28,4,1,-3,-10,4,1,1
11.942903,2351,-31,-45,0,-3,-1,-7,-6,-8
11.943647,2352,-3,13,5,-6,-31,-5,-5,-3
11.943654,2353,25,8,7,2,13,1,7,5
11.965855,2354,-26,-21,-8,-1,2,-2,1,-12
11.965877,2355,4,-23,-7,-7,-20,-2,-4,1
11.966266,2356,42,27,2,6,14,1,1,3
11.966288,2357,-3,17,2,5,-3,-1,-4,3
11.980069,2358,38,-11,6,5,8,1,5,15
11.980088,2359,-61,-35,-4,0,0,2,0,-23
11.988217,2360,-28,13,-8,-12,-11,-6,-4,-2
11.988235,2361,2,-10,1,-2,-1,-1,-7,-8
12.002984,2362,5,17,-4,2,8,-2,-2,-3
12.003008,2363,-12,7,4,1,-6,0,1,4
12.004450,2364,21,28,7,1,8,2,4,7
12.004467,2365,11,-4,-2,5,7,4,2,4
12.025563,2366,-12,97,5,-2,-19,-1,-6,0
12.025603,2367,-19,-77,-13,-12,-20,-6,2,-12
12.026193,2368,-18,10,-7,1,12,2,-4,-1
12.026229,2369,14,2,-10,-8,-22,-6,0,-1
12.039687,2370,-6,-14,0,2,7,2,-1,-1
12.039703,2371,19,40,8,8,10,2,-1,4
12.048119,2372,18,-21,2,0,1,0,1,-1
12.048139,2373,-15,-24,-10,-2,-22,-3,-1,2
12.063012,2374,2,-13,5,-3,25,3,-1,-4
12.064147,2375,21,23,12,8,12,6,7,14
12.064162,2376,-81,-102,-19,-6,-7,-5,-10,-18
12.064166,2377,-3,11,-4,-6,-8,-7,-4,0
12.086970,2378,-20,-40,-5,-8,5,-5,-4,-12
12.086983,2379,19,2,-7,-1,1,-1,-4,1
12.086985,2380,48,47,11,6,12,2,2,6
12.086987,2381,-12,2,18,4,3,6,4,7
12.099906,2382,2,-12,-2,-4,-9,-3,2,-5
12.099930,2383,-19,-3,-1,2,3,-3,-13,0
12.107934,2384,20,30,4,0,-3,1,7,10
12.107951,2385,25,8,-10,2,-14,0,-2,-5
12.122976,2386,-17,-28,12,-2,-5,0,3,4
12.122999,2387,15,-10,-14,-9,-2,-6,-10,-13
12.123584,2388,-8,22,-9,-6,-5,-2,-4,-3
12.123594,2389,16,22,-1,4,10,3,3,3
12.145960,2390,6,21,7,7,-1,1,4,14
12.145991,2391,-22,-19,1,-3,-12,-3,-2,-5
12.148068,2392,-10,-2,0,-1,10,4,1,2
12.148085,2393,-1,8,-2,0,19,-2,-3,-7
12.159859,2394,-4,38,2,-1,-14,-6,2,1
12.159882,2395,6,13,-2,-2,-6,2,-4,-3
12.168259,2396,-14,-16,0,-3,7,-2,-3,-8
12.168290,2397,37,9,-2,7,13,1,-1,14
12.183098,2398,-22,-20,-14,-5,-13,-5,-2,-8
12.183153,2399,4,-18,3,-5,-5,-6,-3,-5
12.183786,2400,3,46,8,3,-5,-1,1,2
12.183865,2401,-7,-82,-2,-1,-1,2,-1,-1
12.205449,2402,2,22,-6,-4,11,-2,0,1
12.205471,2403,25,-28,-2,3,-17,4,6,3
12.206601,2404,27,13,2,-1,-12,-7,-1,-6
12.206619,2405,-5,43,12,-3,2,1,-12,-3
12.219821,2406,-31,-72,-23,-5,-2,-4,-2,-14
12.219837,2407,9,10,0,2,11,2,4,6
12.228035,2408,20,64,-2,0,-11,-7,-1,0
12.228077,2409,-9,-61,-3,-3,14,9,1,-5
12.243287,2410,18,41,-12,-6,0,-1,-3,1
12.243307,2411,-7,9,4,6,8,-2,0,1
12.243831,2412,22,29,11,7,1,4,7,0
12.243847,2413,-24,14,-6,-13,-23,-15,-7,-9
12.265435,2414,-17,23,-2,1,6,6,0,5
12.265467,2415,-16,-41,4,-2,-12,0,2,1
12.266777,2416,-5,-37,-10,-2,-1,0,-3,3
12.266787,2417,-54,10,8,2,2,1,3,2
12.289041,2418,1,-69,-1,-1,-9,-3,-10,-23
12.289065,2419,5,29,-4,-5,3,-1,0,16
12.289335,2420,21,-10,8,1,8,3,-4,-15
12.289351,2421,-94,-35,-15,-4,-17,-5,-2,-9
12.303808,2422,29,63,5,-1,-8,1,4,5
12.303825,2423,12,-45,0,0,-4,-3,0,-3
12.303828,2424,-6,28,-6,0,22,5,-5,13
12.303830,2425,-33,-11,-5,-1,4,-2,3,-7
12.325454,2426,-16,8,10,6,-2,-3,-2,-2
12.327146,2427,22,-22,-7,0,7,3,5,3
12.327157,2428,-5,-15,-5,-7,-16,-5,-12,-4
12.327159,2429,-11,-10,-5,-3,-6,-2,1,-3
12.349520,2430,5,-26,6,4,15,4,4,8
12.349532,2431,16,81,4,-4,-38,-8,-2,-1
12.349534,2432,-49,-106,-10,-4,5,3,0,-4
12.349535,2433,20,44,4,-3,-2,-3,-2,3
12.363354,2434,16,-20,0,-3,-4,-2,-3,-6
12.363388,2435,-19,-4,-3,1,16,-1,-4,2
12.365124,2436,30,39,5,0,-6,-1,1,3
12.365136,2437,6,-15,-6,3,-1,1,0,-2
12.385472,2438,28,20,3,1,2,0,-1,5
12.385490,2439,-60,-70,-12,-5,8,-1,-9,-10
12.386214,2440,11,-49,-14,-10,-5,-4,6,-3
12.386233,2441,23,21,24,8,10,1,-1,-4
12.408754,2442,16,0,-4,4,-2,-2,1,12
12.408776,2443,-7,30,-2,-1,8,3,3,3
12.410645,2444,10,12,9,4,10,0,1,-4
12.410660,2445,14,23,-11,-3,-12,-5,-1,5
12.423183,2446,22,-28,-2,-7,-13,-4,-2,-3
12.423200,2447,11,-12,-8,-3,2,0,-2,-6
12.424454,2448,-46,-7,-5,-5,-8,-3,-1,1
12.424466,2449,46,12,-4,0,27,-2,1,-4
12.445452,2450,-1,47,5,-1,-10,4,0,7
12.445477,2451,3,27,0,-2,1,-1,3,12
12.446265,2452,-12,-8,-1,-5,-16,-4,-9,-22
12.446288,2453,-18,-68,-5,-4,7,-2,-2,0
12.468798,2454,-28,9,1,2,5,-3,-1,0
12.468823,2455,17,13,-4,3,13,8,-2,-5
12.470575,2456,6,24,9,4,-3,-4,5,5
12.470591,2457,20,39,8,-2,-6,7,-1,9
12.483098,2458,-55,-29,-4,-1,6,-2,-3,-6
12.483115,2459,-23,-36,-9,-8,-20,-8,-3,-13
12.484154,2460,75,45,0,0,-1,1,1,13
12.484165,2461,-72,-23,-11,-1,-7,-3,-3,-12
12.505527,2462,36,24,5,2,26,5,6,5
12.505541,2463,-43,36,1,4,7,2,-3,-9
12.506358,2464,-9,12,-2,-6,-21,-4,0,3
12.506412,2465,13,-26,-12,0,15,1,0,-3
12.528649,2466,-3,17,4,2,-5,-3,-3,-2
12.528667,2467,-5,36,7,1,-4,-1,3,-4
12.530376,2468,6,-1,3,2,-2,-2,1,2
12.530392,2469,13,-19,0,-1,7,2,0,6
12.543321,2470,-9,8,-6,-3,-1,-4,-5,-6
12.545166,2471,-1,-41,-9,0,11,1,-3,0
12.545179,2472,24,24,10,-6,-13,-2,9,4
12.545181,2473,2,-18,-3,-1,-9,-5,-5,-7
12.567078,2474,13,10,3,-3,-7,-3,-2,-3
12.567090,2475,-1,-12,-4,-1,-2,-3,0,-6
12.567091,2476,21,25,-2,2,-1,3,-1,9
12.567093,2477,-36,-30,-4,1,6,-1,0,-4
12.588761,2478,-4,-19,-6,-7,-11,-3,-3,-2
12.588876,2479,1,-4,4,1,7,2,4,2
12.589375,2480,-27,23,7,6,10,3,0,-3
12.589396,2481,35,1,0,1,-11,0,1,12
12.603374,2482,11,-13,-4,-2,-6,-3,-3,-8
12.603392,2483,-3,10,5,0,0,-2,0,-2
12.604194,2484,-13,-32,-11,-4,15,-2,-3,0
12.604283,2485,16,40,8,-1,-32,1,2,0
12.625601,2486,-15,-11,-4,2,1,0,3,2
12.627055,2487,30,8,-2,3,24,1,-1,6
12.627072,2488,-33,8,2,-5,-20,-8,-9,-13
12.627076,2489,48,-31,4,-5,7,1,1,0
12.656343,2490,-45,-45,-17,-5,-3,-4,-5,-11
12.658039,2491,25,63,18,-3,-17,-4,0,0
12.658052,2492,-25,-87,-21,6,13,1,-4,-2
12.658055,2493,8,48,4,0,4,2,2,6
12.662863,2494,14,42,-2,-1,-8,-1,-2,1
12.662883,2495,13,-36,3,1,10,1,0,4
12.664146,2496,-13,-3,1,-1,1,-2,-1,-2
12.664157,2497,-14,20,-4,3,-4,-2,-3,-5
12.685632,2498,11,9,3,-5,0,3,1,2
12.685667,2499,-18,1,-7,3,-4,-2,-2,-4
12.688378,2500,18,33,6,0,0,1,7,5
12.688448,2501,-15,-48,-6,-6,-9,-2,-2,1
12.708602,2502,-2,-5,-9,-1,4,-1,-7,-12
12.708648,2503,-18,-5,4,4,-20,-1,1,1
12.709404,2504,15,-5,-3,-1,21,4,-4,-8
12.709427,2505,20,-8,6,8,7,1,2,-1
12.724263,2506,-18,-17,5,-3,-15,-4,0,8
12.724274,2507,25,23,-6,-13,-12,-2,0,1
12.724276,2508,9,-26,-4,0,4,-2,-5,-5
12.724278,2509,-36,29,2,-4,1,-2,-2,1
12.745899,2510,27,-8,-9,7,9,4,0,-6
12.747869,2511,-29,-36,7,2,2,0,0,-2
12.747900,2512,10,40,7,0,-6,0,-2,3
12.747904,2513,-75,-104,-11,-7,0,-2,-4,-15
12.768698,2514,46,37,1,-3,-7,-1,0,0
12.768726,2515,-10,-23,0,-2,4,-1,-6,3
12.770498,2516,21,11,2,0,-3,-3,-1,-3
12.770516,2517,22,33,10,8,11,-3,-1,-2
12.783135,2518,-29,-27,-2,-2,-3,1,5,4
12.783172,2519,-13,-10,-9,-3,3,0,1,4
12.784701,2520,5,0,2,-5,-1,2,-3,-6
12.784716,2521,34,35,2,2,-3,-2,-1,-1
12.805811,2522,-56,-9,8,6,4,-3,-4,4
12.805844,2523,-30,-5,-5,-3,-14,-4,4,-4
12.806397,2524,-4,8,3,4,17,0,-1,8
12.806491,2525,-30,-9,-17,-9,-6,-1,-4,-9
12.836141,2526,9,20,8,0,-1,1,0,3
12.836163,2527,0,-20,-2,-4,-9,-1,-2,1
12.836692,2528,-11,27,-6,0,5,-5,-1,-1
12.836729,2529,22,22,9,-1,-9,2,7,3
12.843329,2530,10,-17,-17,-4,2,-2,-4,-2
12.845132,2531,9,-14,5,1,-1,-3,1,-5
12.845145,2532,-14,-39,-3,-4,-5,1,1,4
12.845147,2533,31,44,5,6,3,0,-3,5
12.867124,2534,-75,-26,3,0,0,-3,1,-8
12.867135,2535,32,14,-7,-2,4,1,-2,2
12.867137,2536,5,-19,1,3,-1,0,-3,-8
12.867139,2537,-34,-6,3,-6,-7,-1,0,1
12.888772,2538,13,-29,-5,-5,-2,-2,0,2
12.888789,2539,-4,29,-4,4,8,3,-2,-6
12.890802,2540,14,5,3,2,-9,-3,-3,1
12.890818,2541,-8,7,-6,-1,-1,0,1,-1
12.902717,2542,47,2,4,2,2,-1,-2,1
12.902748,2543,-41,24,2,-1,5,3,4,3
12.910826,2544,21,-6,-15,-5,-14,-7,-5,-10
12.910858,2545,-30,-47,-4,-6,-1,-2,-4,-2
12.925792,2546,25,15,3,4,3,0,0,4
12.925814,2547,19,44,10,0,23,-4,0,1
12.927550,2548,-61,-79,-19,-3,-9,6,1,0
12.927571,2549,14,42,7,5,4,1,4,-1
12.948838,2550,8,38,-4,-5,1,-1,-1,3
12.948912,2551,4,-83,-2,-4,-8,-6,-8,-7
12.949362,2552,14,7,2,0,1,-3,-2,-5
12.950465,2553,54,-2,-16,-10,-1,-4,0,5
12.971594,2554,-22,20,23,7,12,5,2,-4
12.971622,2555,21,34,-8,-5,-9,1,5,14
12.973759,2556,-45,-23,7,-1,3,-4,-11,-17
12.973772,2557,9,-11,-10,1,-12,-1,-2,-13
12.985516,2558,-9,7,7,-5,-4,-3,0,-3
12.985534,2559,-10,-18,2,0,-2,-4,-3,-7
12.986854,2560,13,43,3,-2,-10,0,4,7
12.986864,2561,8,10,-4,1,14,-4,-5,4
13.008520,2562,-17,1,-3,-3,8,-1,0,-7
13.008537,2563,0,4,-5,5,0,5,1,-2
13.009213,2564,-23,3,-5,-5,0,0,2,5
13.009232,2565,-1,15,-5,-1,-9,-6,-6,-7
13.022529,2566,34,-2,-1,-1,1,-1,-1,11
13.022541,2567,-77,-51,-2,-3,-4,-2,-5,-1
13.030882,2568,54,50,-4,-3,0,1,2,1
13.030908,2569,-38,-3,-5,-1,3,3,4,0
13.045526,2570,14,13,12,1,-7,1,-1,2
13.045549,2571,31,9,-17,-6,-4,-4,-6,-7
13.047205,2572,-14,-12,7,4,3,1,1,-1
13.047220,2573,-26,-22,-2,-3,-8,-2,-2,-3
13.069463,2574,13,-17,-13,-4,-6,-1,0,3
13.069482,2575,6,-14,3,5,6,4,2,3
13.069487,2576,-12,22,4,1,3,0,-4,1
13.069491,2577,42,42,-3,-5,-6,0,6,4
13.082386,2578,-19,0,-10,-6,-6,-7,-6,-10
13.082411,2579,26,-17,3,2,-2,-2,-3,-3
13.090911,2580,11,3,1,4,2,-2,0,1
13.092810,2581,32,47,11,0,3,3,2,9
13.105862,2582,-19,-19,-12,-10,-22,-4,-3,-2
13.105897,2583,9,-7,3,-1,19,-1,1,-5
13.107352,2584,-2,14,-3,-1,-7,-3,4,8
13.107363,2585,4,5,8,9,8,3,-10,-12
13.128692,2586,21,24,-1,0,5,-1,-2,0
13.128717,2587,-2,32,0,-5,-14,1,-1,-7
13.130256,2588,0,3,-3,0,3,-1,3,8
13.130270,2589,-38,-72,8,3,-6,-3,-1,-2
13.142591,2590,-1,24,-9,1,4,1,3,3
13.142621,2591,26,-1,-2,-2,-9,-1,-3,0
13.150860,2592,-10,22,1,-5,-3,2,2,-1
13.150893,2593,-20,-2,-5,-7,1,-4,-5,-5
13.165587,2594,17,-27,9,8,3,2,0,1
13.165608,2595,3,39,-6,1,4,0,2,0
13.166102,2596,-5,-47,-9,-4,-3,-1,-6,-10
13.166123,2597,15,0,0,-3,-11,-4,-2,0
13.188731,2598,16,28,1,0,-2,1,3,1
13.188747,2599,-38,-17,-10,3,-11,-4,3,2
13.189839,2600,37,-76,0,-4,-3,2,-1,-4
13.189901,2601,-10,-8,-4,0,-1,-2,-3,-11
13.202392,2602,-36,-2,1,2,13,4,-4,3
13.202414,2603,8,-11,-4,-7,-3,-5,-3,-4
13.210421,2604,-10,27,4,0,3,0,1,1
13.210438,2605,23,32,-4,-3,-4,-2,2,6
13.225423,2606,34,-15,-17,2,8,2,-6,-3
13.225439,2607,-65,-51,-4,-2,-33,0,0,-3
13.226181,2608,-18,-21,0,1,-12,-5,-3,-2
13.226192,2609,-18,-1,4,-4,4,-1,-2,-1
13.248642,2610,17,18,-5,1,-9,-6,-2,-8
13.248659,2611,20,19,5,2,15,2,2,6
13.250167,2612,4,8,-5,-3,1,-1,0,-3
13.250188,2613,9,13,-12,-3,-6,-1,-2,6
13.271380,2614,-58,-47,20,4,7,3,5,3
13.271393,2615,14,-21,5,5,5,-2,-4,-4
13.271823,2616,8,67,-9,-8,-38,-11,-4,-9
13.271854,2617,-26,-52,-2,0,26,3,-2,-4
13.286492,2618,-18,-21,-4,-8,-9,0,3,1
13.286504,2619,37,25,5,1,8,-1,0,4
13.286506,2620,-48,-5,-2,1,31,0,-4,3
13.286508,2621,13,1,6,3,-19,2,6,2
13.308575,2622,3,-6,0,2,-9,-3,-3,-1
13.308590,2623,-11,27,1,0,3,1,3,0
13.310227,2624,-11,-40,6,1,6,1,-2,-4
13.310242,2625,-5,-14,-6,-2,2,-2,2,5
13.331283,2626,-15,-10,-9,-10,1,-3,-4,-10
13.331308,2627,38,28,-6,-8,-16,-9,-10,-10
13.333092,2628,9,-19,-3,1,2,4,4,2
13.333110,2629,-20,20,8,-1,-4,-3,-2,5
13.345462,2630,54,31,3,1,-7,-2,2,4
13.345486,2631,-27,-43,-9,2,11,-1,-2,-5
13.347106,2632,7,16,0,3,11,5,3,5
13.347116,2633,17,35,7,-4,-20,-11,-6,-5
13.368646,2634,-54,-43,-13,-9,-13,-5,0,0
13.368722,2635,21,-11,-1,-5,-2,0,0,-3
13.369500,2636,0,5,-5,-3,-3,-2,-10,0
13.369554,2637,-3,-22,-2,8,-7,-2,9,6
13.391515,2638,-10,9,4,1,23,3,-8,-2
13.391533,2639,6,27,6,0,-3,-6,-8,-8
13.392755,2640,-8,18,2,1,-3,1,5,3
13.392774,2641,36,27,-4,-2,1,-1,-6,-3
13.405366,2642,-34,-67,-12,-7,11,-8,-2,-9
13.405382,2643,-14,0,0,4,-7,7,-1,5
13.406784,2644,-7,3,-3,0,-2,-3,2,5
13.406796,2645,16,-25,1,-3,0,-3,-9,-11
13.436262,2646,-28,-6,3,1,-1,0,1,-5
13.436288,2647,6,33,4,-3,9,2,2,6
13.437963,2648,3,-5,-3,-2,-7,-4,1,1
13.437979,2649,-19,-9,-4,1,5,2,0,-2
13.451074,2650,14,10,1,2,-4,1,2,4
13.451091,2651,-17,15,-6,-4,6,1,2,1
13.452785,2652,30,-9,7,-1,-5,-3,2,1
13.452800,2653,-44,-9,-2,4,-1,2,-1,-4
13.465487,2654,15,1,0,-4,-13,-7,-7,-8
13.465513,2655,24,5,-5,1,-6,0,4,4
13.467046,2656,-53,29,-2,-2,12,3,0,-2
13.467055,2657,53,-56,10,4,12,4,5,8
13.488804,2658,-92,-87,-9,-3,-13,-7,-8,-11
13.490794,2659,-3,29,0,0,0,-2,3,5
13.490808,2660,21,-10,-9,-4,-6,-5,-7,-7
13.490810,2661,-4,31,5,0,4,0,-4,-3
13.511264,2662,34,47,7,-1,-22,-2,1,4
13.511330,2663,1,-25,-1,-4,5,6,4,1
13.512102,2664,-13,-29,5,10,-6,-1,-3,-2
13.512134,2665,23,40,-12,-7,-10,-8,-6,-3
13.525502,2666,39,23,6,4,4,4,4,3
13.525554,2667,-45,-31,1,-7,-4,-8,-8,-15
13.526261,2668,46,5,-4,-2,1,-1,1,12
13.526278,2669,8,46,-4,3,14,3,0,8
13.548588,2670,7,9,6,-3,-13,0,1,-19
13.548613,2671,-8,28,5,2,2,1,2,10
13.549966,2672,26,7,-3,-6,-9,-6,-4,-9
13.549976,2673,-31,-26,-10,-5,3,-1,-4,-9
13.571142,2674,22,2,1,-1,3,0,1,18
13.571164,2675,11,-17,-2,-2,10,-2,-3,-4
13.571818,2676,-21,-2,16,4,2,5,6,-1
13.571828,2677,-17,-21,-6,0,1,-3,-3,-4
13.585355,2678,28,23,-4,-3,-5,1,0,1
13.585372,2679,-27,-6,-8,5,-3,0,0,2
13.586090,2680,1,7,2,-7,-5,-6,-7,1
13.586105,2681,1,-34,-1,-7,-26,-2,5,0
13.608952,2682,-42,-14,0,-2,30,2,-4,-5
13.608975,2683,38,45,-10,-1,-3,-4,2,1
13.610823,2684,-8,-8,5,1,5,3,-1,-2
13.611019,2685,-5,-9,3,6,1,2,2,0
13.632127,2686,17,31,-9,-3,-5,-2,-1,2
13.632148,2687,-13,-36,6,-1,1,1,-2,-3
13.632154,2688,-13,19,11,2,1,4,3,1
13.632159,2689,44,0,-5,-8,-10,-5,-2,-3
13.646968,2690,-18,-12,-9,-4,-1,-5,-4,-9
13.646983,2691,19,-4,-1,-2,-4,1,-4,5
13.646985,2692,-12,-10,-10,-1,3,0,-2,-3
13.646988,2693,62,26,7,5,9,2,5,18
13.668563,2694,-90,-76,-3,5,-9,1,-5,-29
13.668580,2695,29,-3,0,-3,-14,-5,-5,-7
13.669474,2696,38,40,-5,-9,-6,-1,2,-2
13.669482,2697,-67,-34,7,-1,1,-2,-3,0
13.691200,2698,34,32,-14,-3,-1,-3,-7,3
13.691223,2699,-16,-30,3,1,-2,-2,1,-2
13.693218,2700,20,-2,-4,3,2,3,1,7
13.693280,2701,-13,32,-3,-1,4,0,-4,-1
13.705799,2702,-5,-19,0,0,3,2,5,2
13.705827,2703,-35,46,0,0,-24,-5,-3,-9
13.707796,2704,2,-45,-11,-3,27,2,-1,-1
13.707811,2705,28,35,3,-3,-5,3,2,7
13.729360,2706,-15,-14,1,2,-3,-2,-3,-3
13.729379,2707,23,21,6,0,-2,-2,3,2
13.731077,2708,-8,-25,-6,-2,-31,-5,-2,-1
13.731089,2709,0,30,6,0,6,2,0,-2
13.751238,2710,-42,-20,-1,-1,2,0,-2,-1
13.752586,2711,3,-45,-7,-2,1,-5,-3,2
13.752600,2712,-36,34,1,2,4,-1,2,-6
13.752603,2713,-2,-63,-9,-5,-1,-4,-12,-5
13.765582,2714,40,16,3,0,-4,1,7,6
13.765606,2715,-12,-2,-4,-4,5,-3,-3,4
13.766810,2716,29,17,5,2,2,0,-2,-6
13.766820,2717,-31,-47,-9,-1,-3,-1,4,-3
13.788571,2718,40,43,7,3,8,4,3,9
13.788643,2719,5,-23,-16,-1,3,4,0,0
13.789336,2720,-20,-13,18,-1,-4,-4,1,-2
13.789352,2721,6,48,1,-4,-20,-3,-1,-6
13.811182,2722,22,3,-3,6,27,5,-2,2
13.811200,2723,-16,3,-1,-5,-4,-2,-1,-2
13.813073,2724,15,-19,2,-3,6,-5,-4,4
13.813090,2725,-36,-16,-2,2,-3,10,-1,-10
13.824871,2726,-10,34,4,0,-12,-6,4,7
13.824891,2727,21,24,-2,-2,-4,-4,-1,5
13.834181,2728,-13,-42,-12,-3,-13,-1,-4,-3
13.834196,2729,-5,10,1,-2,8,-3,0,-6
13.849616,2730,26,-37,3,4,5,3,-3,-2
13.849627,2731,-24,25,7,-2,4,2,-1,-7
13.849629,2732,30,27,3,2,-3,1,-5,5
13.849631,2733,-32,-4,-5,0,3,-1,5,5
13.871093,2734,-9,-2,3,-4,-9,-2,1,1
13.871112,2735,0,9,0,-2,2,-4,-5,-7
13.872699,2736,-15,-19,-21,-5,3,-1,-1,-3
13.872801,2737,-7,35,19,4,2,-2,0,4
13.885108,2738,12,-45,-1,-2,-1,-1,-1,5
13.885139,2739,1,33,6,2,8,4,0,1
13.895236,2740,-48,-44,-11,-2,15,-4,-2,-9
13.895258,2741,15,8,-10,-5,-21,-2,-2,-3
13.911397,2742,-3,37,-1,-3,-13,-5,0,2
13.911410,2743,1,-21,-4,-2,2,0,0,-2
13.911412,2744,-20,23,15,4,-4,0,-2,1
13.911414,2745,27,-92,-12,-3,12,-3,-5,-10
13.931253,2746,-67,-8,-1,0,-24,-6,-4,-3
13.933046,2747,31,-18,2,1,25,6,2,-2
13.933067,2748,-10,35,-3,-1,-8,-3,0,1
13.933073,2749,30,38,0,-3,-4,-3,1,5
13.944854,2750,-12,-40,-11,-1,-3,0,-2,-1
13.944878,2751,7,47,10,1,-4,0,0,-2
13.953983,2752,-26,-45,-1,-4,-6,-3,-1,-2
13.953995,2753,30,37,7,3,18,0,3,7
13.967661,2754,49,16,2,-3,-1,1,1,-3
13.967679,2755,-27,28,1,1,-9,-3,-7,0
13.976791,2756,-2,4,-5,-8,-4,-2,-1,-2
13.976802,2757,-6,-3,-16,0,-4,2,1,-5
13.991157,2758,13,14,-1,-6,0,-4,1,10
13.991170,2759,-14,-54,5,9,-3,-1,3,-1
13.992627,2760,61,63,2,7,-2,3,-3,0
13.992648,2761,-24,-93,-1,-1,2,-4,-4,-5
14.006115,2762,6,48,16,2,9,3,-4,2
14.006127,2763,-4,-10,-13,-7,-10,-4,-1,-13
14.015070,2764,23,-28,-6,1,8,0,3,5
14.015090,2765,-36,9,2,-3,-4,-2,0,3
14.028852,2766,21,24,-6,-6,-13,-2,0,-8
14.028879,2767,-23,-40,-8,0,21,4,-7,1
14.030310,2768,32,0,3,-1,-4,-2,-3,1
14.030321,2769,-54,-8,-5,1,14,0,-5,-5
14.051112,2770,33,24,-2,-6,-25,-7,3,9
14.051150,2771,10,-2,-7,-1,-13,-5,-1,-5
14.052610,2772,-22,-16,0,-3,-5,-2,-3,-6
14.052625,2773,4,35,3,-1,-4,-1,-4,-7
14.064746,2774,51,35,3,2,21,4,3,16
14.065537,2775,-41,-48,-5,1,-5,-3,1,-4
14.074389,2776,-6,1,1,3,26,1,1,-7
14.074399,2777,31,8,12,2,-16,3,-2,11
14.098486,2778,-34,-57,-18,-8,-3,-3,0,-7
14.098498,2779,9,23,2,-2,-3,-3,-5,-2
14.098501,2780,-10,9,7,-1,-5,0,3,1
14.098503,2781,54,22,-8,1,6,-1,0,1
14.113685,2782,-77,-55,0,8,14,4,-5,-12
14.113697,2783,29,26,3,-5,-14,-6,1,1
14.113699,2784,-13,-41,-23,-3,-7,-2,-3,0
14.113701,2785,9,29,5,-2,0,-2,0,-6
14.124750,2786,28,28,0,3,6,3,0,2
14.124773,2787,-46,-17,4,-2,-8,-3,-1,1
14.134525,2788,-1,32,0,0,-8,-4,-7,-1
14.134536,2789,3,-25,-2,-7,-6,-4,0,-2
14.148556,2790,-23,-14,-1,-1,8,1,0,5
14.148573,2791,32,11,0,3,5,3,2,-1
14.150227,2792,-14,-20,-1,-3,-9,-2,0,-6
14.150246,2793,0,40,3,2,-2,-1,2,1
14.171237,2794,-20,26,2,-1,-1,-4,-7,-2
14.171260,2795,-13,-38,-3,-8,-1,-3,-5,0
14.172849,2796,-27,-19,-6,-8,-5,0,0,-1
14.172909,2797,-46,-50,8,9,1,-1,-6,-9
14.193660,2798,48,70,9,1,13,-3,2,0
14.193679,2799,-52,-52,-7,0,-15,3,1,7
14.195222,2800,6,26,0,2,-1,1,0,6
14.195292,2801,-46,-28,-8,-4,1,-3,-2,-6
14.208737,2802,36,10,-9,-4,-5,1,4,-1
14.208754,2803,0,-2,3,3,6,-4,-8,-6
14.210198,2804,-37,-21,-7,-10,-8,-7,-7,-19
14.210249,2805,9,49,-7,-6,-10,-1,1,2
14.231401,2806,-24,-59,-2,-1,10,8,1,-3
14.233025,2807,28,85,-7,0,11,0,8,7
14.233045,2808,50,-52,19,5,-23,-5,-6,3
14.233051,2809,19,29,3,-4,1,0,0,-8
14.253983,2810,-12,-44,-4,-1,-9,-5,-3,-3
14.253998,2811,41,51,1,0,12,4,2,-9
14.255124,2812,-19,5,-15,1,10,2,-2,4
14.255140,2813,4,-66,0,-1,-5,-2,0,6
14.268897,2814,-31,54,-1,-1,-5,-3,-4,-18
14.268921,2815,43,3,4,-1,1,0,-2,9
14.270608,2816,-15,6,11,7,10,4,6,2
14.270622,2817,20,-26,-17,-6,-10,-6,-5,-11
14.291230,2818,4,-38,-2,-7,-12,-3,-1,-4
14.291349,2819,-12,-6,3,-2,2,0,-7,2
14.294413,2820,38,65,6,3,3,2,8,3
14.294424,2821,-3,-36,-11,-3,-2,-1,-6,-2
14.313707,2822,-33,-4,0,0,-7,-6,-7,-7
14.313730,2823,-6,15,6,-6,-6,-4,-5,1
14.315448,2824,-6,-56,-1,6,8,5,6,-2
14.315462,2825,-8,63,-8,0,3,2,1,0
14.328173,2826,57,2,16,3,-4,0,5,11
14.329753,2827,-1,-8,-2,2,7,1,2,1
14.334922,2828,-54,-36,-9,-11,-28,-4,-11,-9
14.334944,2829,-6,28,-6,-1,-7,-3,-1,1
14.351114,2830,14,5,-5,1,1,2,-1,3
14.351133,2831,13,22,9,6,3,2,9,12
14.352633,2832,38,22,-2,-3,-1,-6,-3,-6
14.352647,2833,-7,30,6,-2,12,-1,0,0
14.374319,2834,-29,-25,-6,0,-3,4,4,0
14.374353,2835,-11,-28,-3,-6,-12,-7,-10,1
14.376795,2836,-3,-4,-12,-4,-1,0,5,-16
14.376816,2837,-55,6,11,-4,0,-2,-4,-8
14.388617,2838,8,13,2,7,6,-1,2,5
14.388646,2839,9,-44,-2,3,-21,-1,3,3
14.395832,2840,6,20,2,0,24,4,-3,9
14.397870,2841,26,-15,-1,4,8,3,4,2
14.412806,2842,8,17,1,-5,-23,-3,-2,1
14.412826,2843,-38,-6,-11,-5,-12,-3,-7,-14
14.412831,2844,-5,-45,-1,-1,-2,-2,-4,0
14.412836,2845,-9,-32,2,1,-1,-1,0,-1
14.433753,2846,35,18,-4,-2,6,-5,-4,-5
14.433774,2847,6,22,1,3,3,-1,-1,-4
14.435142,2848,-4,-9,-7,0,-6,2,2,5
14.435153,2849,11,-10,-5,-3,24,3,3,8
14.448053,2850,-7,28,-1,-3,-10,-1,-3,-4
14.448071,2851,32,-48,4,3,-2,-4,0,-9
14.454793,2852,-29,24,10,2,7,3,5,9
14.455768,2853,10,9,-8,-5,-17,-5,-6,-5
14.471660,2854,-85,-81,-17,-2,7,-1,0,-5
14.471678,2855,8,7,1,-2,6,0,-4,-6
14.473599,2856,27,23,4,2,3,1,1,7
14.473615,2857,-15,-1,2,1,-3,1,2,3
14.493713,2858,18,28,10,1,7,2,0,-1
14.493740,2859,-2,43,5,4,-10,-5,0,7
14.496094,2860,10,30,-3,-1,6,7,-3,-1
14.496108,2861,-32,-18,4,-3,-10,-4,-1,-3
14.507698,2862,28,-31,-14,-12,-12,-8,-4,-10
14.507716,2863,3,5,-11,-5,0,0,1,2
14.517379,2864,43,17,14,1,1,-4,-11,-1
14.517392,2865,-16,8,-12,-3,-9,-5,0,-9
14.531069,2866,13,46,19,10,2,3,1,6
14.531087,2867,18,33,-2,-8,5,-1,4,-2
14.532622,2868,-7,-29,-10,-2,-1,0,1,0
14.532635,2869,16,-14,-2,1,2,-1,4,7
14.553648,2870,-19,8,-1,-1,5,-2,-10,-3
14.553667,2871,-12,-14,-2,3,2,4,5,4
14.555197,2872,9,4,5,-3,-9,-5,-2,-6
14.555218,2873,23,58,-7,-5,-4,1,-1,2
14.567894,2874,-29,-89,-7,-5,-3,-5,-5,-3
14.567954,2875,-2,-6,4,-1,10,2,-2,-4
14.574725,2876,1,17,-3,-7,-29,-1,3,5
14.574745,2877,10,-29,-9,7,-7,-2,-4,-7
14.591221,2878,1,43,0,-1,10,0,-1,-5
14.591239,2879,-46,-29,-9,-1,-2,0,-8,4
14.592882,2880,0,-19,-2,-4,0,-9,0,-4
14.592897,2881,27,49,9,-4,1,2,-4,1
14.613901,2882,16,-33,-5,-1,-1,-1,-4,-5
14.613912,2883,-43,-52,-10,2,2,-2,-2,-8
14.615169,2884,-15,17,0,-6,-9,-4,-1,-9
14.615184,2885,-6,3,6,3,4,3,3,9
14.629055,2886,25,18,-9,1,12,5,3,8
14.629068,2887,-3,-22,6,-11,-25,-10,-10,-10
14.635250,2888,-13,8,-7,3,6,-3,-6,-5
14.636548,2889,-17,-36,7,2,-1,-2,2,2
14.651051,2890,14,19,-7,-5,-3,-2,2,0
14.651068,2891,18,24,6,3,15,1,4,-2
14.652926,2892,-41,-12,3,2,3,4,-1,-1
14.652995,2893,1,3,-1,0,-1,-1,-4,1
14.673605,2894,1,7,9,1,-6,0,2,6
14.673626,2895,50,21,-11,-5,2,-1,1,2
14.676143,2896,12,48,18,4,8,2,4,5
14.676155,2897,17,-29,-4,-2,-4,-2,-1,2
14.687753,2898,-28,-87,-6,-5,-7,-5,-3,-24
14.687770,2899,-12,-14,-2,2,3,1,-3,-6
14.697661,2900,10,35,0,-6,-8,-5,-5,-2
14.697717,2901,20,31,-7,-3,-13,1,-1,11
14.711283,2902,-17,29,18,-1,20,2,-4,-2
14.711376,2903,-19,-42,-3,3,-10,0,2,-3
14.712635,2904,-39,-87,-12,0,4,1,1,-1
14.712651,2905,-8,-11,-1,-1,0,-2,0,-8
14.733703,2906,-4,32,-4,-4,-14,-5,1,9
14.733721,2907,4,45,5,-4,5,-1,1,-2
14.735243,2908,-7,-8,-5,4,6,5,-1,3
14.735253,2909,38,-18,2,-1,30,-3,-1,-5
14.747232,2910,-13,20,-3,1,-11,4,3,5
14.747251,2911,-48,-8,5,4,9,5,4,-1
14.758212,2912,59,-15,-15,-10,-17,-10,-10,-3
14.758226,2913,-22,34,1,-1,4,-2,-5,-7
14.771097,2914,3,-11,-3,-7,0,-2,-5,1
14.771113,2915,22,57,6,3,-6,-3,6,4
14.772906,2916,10,45,17,13,18,9,4,1
14.772926,2917,-83,-86,-7,-2,-11,0,5,6
14.793685,2918,-20,-6,-10,-10,-15,-8,-9,-10
14.793701,2919,12,2,-8,-6,-6,-1,-3,2
14.795336,2920,20,52,7,3,8,0,2,5
14.795357,2921,32,35,5,1,-2,0,-4,-3
14.807854,2922,-10,5,-2,3,-2,1,5,-1
14.807883,2923,24,1,3,-2,5,-2,-1,7
14.817244,2924,6,-78,-11,4,5,1,4,4
14.817262,2925,-31,7,2,-7,-4,-3,-11,-8
14.831263,2926,-11,-35,-15,-7,-11,-6,-6,-11
14.831278,2927,-8,-1,-4,-8,-8,-5,-4,-9
14.832619,2928,-6,23,0,0,-6,-1,3,10
14.832638,2929,18,-14,-3,10,1,2,5,-1
14.854119,2930,49,52,13,7,11,2,3,5
14.854152,2931,-52,-36,-20,-5,-5,-1,-11,2
14.856106,2932,-1,10,37,2,4,2,9,-2
14.856120,2933,-12,-42,-12,-9,-18,-8,-7,-15
14.867578,2934,-57,-11,-4,2,4,0,0,3
14.869711,2935,32,-18,-3,-2,-4,-2,1,2
14.878196,2936,-40,1,-12,-5,-2,-3,-6,-5
14.878210,2937,35,47,5,2,11,4,2,3
14.892564,2938,-22,-18,11,9,3,6,7,7
14.892580,2939,7,-17,-6,-7,-13,-9,-9,-6
14.892584,2940,-13,-53,-17,-10,-8,-3,-7,-10
14.892635,2941,23,-11,3,-1,-7,0,0,4
14.913647,2942,-13,1,-9,-1,6,-2,1,-3
14.913663,2943,0,14,14,5,9,5,7,10
14.915224,2944,21,5,-1,6,3,1,-2,0
14.915245,2945,-37,2,-1,-8,-12,-4,0,-1
14.927317,2946,30,-1,-1,0,6,-2,-4,-1
14.927334,2947,-30,-21,-6,0,-26,-2,-1,-1
14.936906,2948,-16,-84,2,-6,-10,-2,-1,-3
14.936929,2949,30,28,-4,-1,7,2,-4,8
14.951859,2950,65,62,4,5,0,0,-8,4
14.951879,2951,-88,-66,-3,-1,-11,-1,7,-5
14.954009,2952,4,16,-7,1,29,4,-3,-6
14.954024,2953,-8,-14,1,-2,-7,1,0,7
14.973952,2954,-1,16,5,-4,-2,-2,1,0
14.973981,2955,66,-13,-3,-3,-13,-3,-3,2
14.975286,2956,-13,18,-7,-1,-4,2,0,-2
14.976339,2957,17,43,-3,-2,0,-1,2,-4
14.987588,2958,0,-1,-2,3,3,2,2,0
14.987602,2959,48,56,11,7,18,6,-3,5
14.996675,2960,-8,19,-9,-16,-28,-16,-9,-12
14.996686,2961,-5,-26,2,5,27,0,-3,5
15.018637,2962,25,18,6,0,-16,5,10,10
15.018659,2963,-37,-19,-8,-2,6,-3,-3,-3
15.020194,2964,-9,-15,-12,-1,2,0,-4,-1
15.020212,2965,65,56,20,8,5,7,11,9
15.033565,2966,-44,-68,-16,-11,-10,-10,-10,-21
15.033581,2967,34,19,12,5,12,3,1,-3
15.035467,2968,-9,14,-7,-5,-6,-1,-2,2
15.035492,2969,8,26,1,-1,-5,-2,1,5
15.047325,2970,-19,-31,6,2,6,3,2,3
15.047337,2971,-15,19,0,0,-2,-1,-1,-5
15.057888,2972,-1,-40,-2,-1,-3,-3,0,2
15.057901,2973,-16,-26,-4,2,-16,-5,-2,-5
15.071199,2974,38,50,14,3,21,11,4,5
15.071220,2975,-46,-87,-20,-9,-11,-6,-10,-14
15.072728,2976,22,36,1,2,4,1,1,1
15.072749,2977,-13,-26,1,-3,12,0,0,0
15.094910,2978,5,19,-1,1,-25,-2,-1,-1
15.094921,2979,12,0,8,-3,-18,-8,2,-2
15.095054,2980,13,39,-6,2,1,4,2,2
15.095086,2981,-2,-27,-7,-1,-5,-1,-1,-10
15.116058,2982,-34,-42,-5,-16,-7,-13,-11,-7
15.116074,2983,16,33,5,5,16,10,5,0
15.117970,2984,14,0,-2,3,-10,-3,3,9
15.117987,2985,-37,45,6,-1,2,-1,-3,-9
15.131174,2986,45,29,-2,2,2,0,-4,4
15.132923,2987,-74,-69,-8,-1,-1,-1,0,-10
15.132935,2988,-16,-18,7,-3,2,-3,-4,-3
15.132937,2989,22,-2,-9,-2,-1,0,-4,2
15.154002,2990,0,8,0,0,-5,-2,3,5
15.154028,2991,0,6,-9,-12,-5,-5,-9,-12
15.156257,2992,32,8,2,6,3,2,3,6
15.156269,2993,-36,-27,-1,3,0,2,-1,-5
15.176142,2994,8,14,-3,-4,-14,-7,-2,-5
15.176160,2995,39,-15,6,3,6,0,0,11
15.177629,2996,-25,44,-5,-2,-14,0,2,3
15.177648,2997,6,-29,-8,0,14,-1,-5,-2
15.191456,2998,-22,-14,0,5,-3,1,6,0
15.191489,2999,10,46,6,-11,-16,-7,-2,-3
15.192600,3000,9,5,-6,-6,-5,-4,-7,-5
15.192673,3001,-2,6,0,-4,-13,-5,0,1
15.214224,3002,10,25,-3,6,18,5,1,-3
15.214250,3003,-29,-42,-1,5,12,3,0,4
15.216050,3004,23,4,4,-7,-9,-5,-3,-7
15.216064,3005,-4,-15,2,1,-2,0,0,-1
15.236620,3006,8,33,-17,-4,1,-4,-3,-8
15.236645,3007,-32,-42,0,2,2,1,2,3
15.237719,3008,-16,20,1,3,6,2,0,3
15.237742,3009,-1,8,1,-2,-8,-2,1,0
15.250384,3010,40,15,10,0,-7,1,-2,6
15.250403,3011,-12,-28,-9,-3,-3,-2,-1,-8
15.257167,3012,-50,6,2,2,7,-2,-6,-10
15.257183,3013,-19,-31,-9,-4,3,-2,2,-4
15.273630,3014,-15,-19,-8,-1,-30,-1,-1,1
15.273646,3015,78,44,4,-3,6,-2,-3,4
15.275197,3016,-19,-5,17,3,-4,-1,3,-1
15.275211,3017,-36,-26,-2,-3,-7,0,-2,0
15.297298,3018,-25,-11,-3,-2,4,-7,-11,-19
15.297310,3019,46,19,5,3,19,8,4,13
15.297688,3020,-57,-44,-5,-4,-12,-4,-2,-6
15.297710,3021,23,14,0,-5,-2,-2,-3,2
15.310573,3022,-15,-65,-1,2,5,-2,5,3
15.310598,3023,42,64,2,7,-1,4,4,-1
15.317239,3024,-27,20,-2,1,7,-2,-3,1
15.317259,3025,-6,-19,-8,-4,-4,-1,-6,-8
15.334228,3026,-4,-34,-3,-4,8,1,0,1
15.334250,3027,6,36,6,-2,-5,-3,-2,-3
15.336075,3028,23,6,-8,2,-3,0,2,8
15.336086,3029,19,31,5,-2,-9,-2,1,-5
15.356530,3030,-39,-12,-5,-4,3,-3,-1,-3
15.356556,3031,11,12,6,2,-39,-2,1,8
15.358488,3032,22,3,-7,-1,17,3,2,0
15.358501,3033,-20,51,4,0,-4,-2,-4,-4
15.370673,3034,29,-22,0,-4,-1,1,0,0
15.370690,3035,-13,10,-2,-2,0,-3,0,-3
15.377211,3036,35,-20,8,2,-9,-1,-1,4
15.377228,3037,-9,24,4,2,0,2,-4,-7
15.393638,3038,-28,-60,-11,-7,7,0,0,2
15.393655,3039,5,33,-7,4,8,1,0,-2
15.395199,3040,7,-24,13,-1,-3,1,-1,0
15.395219,3041,15,-16,-2,0,-2,-2,0,1
15.416454,3042,22,59,7,4,2,1,2,2
15.416476,3043,14,-6,-10,-2,8,-1,-4,4
15.418769,3044,-18,-3,3,-2,-3,0,-2,-11
15.418777,3045,23,-51,-7,1,-1,4,3,7
15.431164,3046,-50,18,1,-1,1,-2,-3,-3
15.431190,3047,13,3,7,2,2,-1,2,5
15.437322,3048,7,4,-2,-5,0,2,3,1
15.437343,3049,5,13,3,5,-1,-5,2,-1
15.454479,3050,8,13,0,-3,5,-5,-7,-2
15.454492,3051,20,40,0,2,-19,0,-2,-2
15.455402,3052,-61,-87,-9,1,4,1,1,-8
15.455430,3053,-15,37,4,-3,1,-1,-3,0
15.476539,3054,27,-14,-3,-4,-7,-3,-4,-4
15.476574,3055,-82,-78,-6,-5,9,-3,-4,-11
15.477550,3056,49,45,11,3,2,-1,1,2
15.477605,3057,-28,-21,-5,-1,-14,-2,2,1
15.490828,3058,17,-2,-1,5,8,4,-3,2
15.490858,3059,-3,22,-4,-8,0,-2,-1,0
15.497453,3060,33,5,-10,-1,-2,0,-4,-2
15.497519,3061,-16,-36,1,4,8,3,2,3
15.513701,3062,-9,26,-2,-1,-8,-3,-4,-3
15.513735,3063,-19,-12,-1,-6,-11,-6,2,-10
15.516124,3064,14,21,0,-2,-7,-1,0,8
15.516138,3065,-27,-17,-5,-1,5,-1,-2,-1
15.536502,3066,-2,2,-2,-3,0,0,-1,-4
15.536656,3067,3,12,-3,4,5,2,-4,-1
15.537812,3068,7,38,7,2,20,-2,2,2
15.537831,3069,26,-54,0,-6,-7,6,1,2
15.549686,3070,-65,-27,-4,-1,-5,-3,-2,-3
15.549702,3071,-17,-36,-5,-4,2,-2,-1,0
15.560028,3072,16,3,0,0,-1,-4,-10,0
15.560041,3073,7,33,-2,0,3,-4,0,-5
15.573667,3074,25,9,3,1,0,0,5,6
15.573684,3075,5,27,2,3,6,2,3,-2
15.575111,3076,1,-8,-7,-7,-12,-7,-5,0
15.575176,3077,26,10,-1,-3,-1,0,0,0
15.596226,3078,-25,-30,-5,-4,-12,-3,-4,1
15.596245,3079,-9,-11,-2,5,-3,0,-8,0
15.597644,3080,6,58,-2,-5,11,0,4,-7
15.597700,3081,4,-78,-1,5,7,-2,-3,-8
15.610384,3082,-48,-31,2,-1,-12,0,4,4
15.610401,3083,27,53,1,-3,4,1,-3,1
15.619684,3084,7,-36,0,4,4,0,-1,0
15.619699,3085,-17,23,-5,-11,-31,-4,-3,-2
15.633633,3086,32,32,0,0,7,0,1,11
15.633659,3087,-61,-41,-4,-5,-9,-8,-5,-12
15.635124,3088,0,11,-3,-1,-2,2,-1,-1
15.635145,3089,8,18,3,5,13,2,1,5
15.656724,3090,11,-11,-4,-1,-2,-1,0,-5
15.656738,3091,1,2,2,-2,-5,-1,0,2
15.657758,3092,25,27,2,-3,5,2,1,0
15.657779,3093,-17,-16,-10,1,-2,-5,-6,-5
15.669693,3094,8,0,-5,-2,1,7,1,-2
15.669712,3095,44,16,5,7,23,2,-8,9
15.679252,3096,-53,-23,-10,-6,-21,-4,-1,-9
15.679269,3097,46,-31,4,-3,5,-1,-2,-1
15.693896,3098,-23,2,1,-5,-13,-4,-1,-6
15.696041,3099,21,29,-6,-4,8,-2,0,-5
15.696056,3100,-14,-42,8,4,-25,1,-3,5
15.696115,3101,-18,-23,-7,-1,-5,-3,-5,-3
15.716714,3102,-21,-2,0,-1,10,0,1,-9
15.718756,3103,-9,-28,0,0,-4,1,2,1
15.718769,3104,23,-15,-5,-2,0,-2,0,3
15.718771,3105,-24,20,-3,-1,7,1,3,-1
15.730160,3106,53,25,9,-1,-3,-3,-6,3
15.730184,3107,-9,-6,5,-1,-2,-4,-2,-2
15.739361,3108,-7,21,1,4,0,-1,-4,-2
15.739372,3109,2,-11,-4,-4,-7,-3,3,-4
15.753972,3110,20,23,-5,-2,0,-2,1,2
15.754002,3111,-12,13,1,0,-22,-1,3,0
15.755438,3112,2,-24,7,-1,33,5,-2,-1
15.755461,3113,13,36,7,1,-4,2,1,5
15.776152,3114,-36,-44,-5,-2,-6,-5,-1,-9
15.776170,3115,-24,-75,-9,-3,-4,0,-2,-5
15.777713,3116,7,11,5,1,-1,1,0,-1
15.777734,3117,-35,32,-1,-1,7,3,-2,-1
15.789862,3118,15,-4,0,-5,13,-2,0,1
15.789891,3119,17,11,20,3,-13,4,7,4
15.799208,3120,-19,-24,-5,-3,5,-3,-1,-4
15.799228,3121,-23,-14,0,-6,-7,-6,-8,-4
15.813585,3122,39,73,5,7,0,0,0,-1
15.813609,3123,-34,-62,-19,-7,2,-1,1,-3
15.815148,3124,0,-9,-4,-3,-5,-1,-2,1
15.815167,3125,15,34,3,-2,-4,-1,-2,-5
15.836195,3126,-47,31,6,4,1,0,1,3
15.836220,3127,-52,-45,-11,-1,-6,-4,-7,-11
15.837563,3128,34,21,-8,0,-7,-1,8,2
15.837582,3129,35,6,11,1,11,2,-1,0
15.849714,3130,-29,-23,2,-5,-32,-3,-7,-6
15.849733,3131,21,26,0,-2,1,-2,0,0
15.858780,3132,-4,-30,-12,-3,-11,-5,-5,-4
15.858831,3133,-18,-22,1,-2,6,3,5,9
15.873933,3134,21,-13,2,6,12,3,4,-2
15.873944,3135,28,41,6,-1,-1,-4,-3,1
15.875155,3136,9,30,1,-8,-14,-5,-9,-3
15.875172,3137,9,30,-10,11,-2,-4,0,1
15.896446,3138,3,-4,3,-4,1,1,-1,1
15.898121,3139,5,13,-2,-5,-5,-3,-2,-5
15.898143,3140,17,50,-4,0,23,4,4,3
15.898148,3141,-35,-42,-2,-3,9,0,-2,-3
15.910371,3142,18,21,-7,-5,-17,-5,-4,-3
15.910403,3143,-14,2,1,0,8,1,2,4
15.920765,3144,-4,55,1,1,-3,0,-5,-3
15.920779,3145,-7,-30,-6,-4,-8,-5,2,-3
15.933607,3146,17,16,-5,-3,3,1,2,3
15.933625,3147,-8,1,-2,-4,-5,-3,-2,4
15.935702,3148,8,12,12,5,-5,-1,0,-2
15.935716,3149,-5,7,-8,-1,5,0,-6,-3
15.956117,3150,1,-29,-2,-3,2,0,-2,3
15.956142,3151,21,16,-8,-6,7,3,2,2
15.957570,3152,-31,-23,6,9,4,1,4,-2
15.957586,3153,-1,-34,-1,1,-15,-4,1,7
15.969722,3154,5,60,0,-5,-4,-3,-4,-6
15.969786,3155,-6,-23,-2,2,1,1,-3,2
15.978941,3156,-13,-31,-5,-4,-1,2,3,-5
15.978953,3157,6,4,-9,-7,-12,-3,-3,-6
15.993754,3158,11,9,-2,4,6,0,-1,0
15.993780,3159,-13,-20,4,-3,2,-2,1,-4
15.995316,3160,2,10,-1,4,-5,-1,1,3
15.995398,3161,14,29,9,0,6,-1,3,-1
16.016114,3162,-1,-36,-7,-6,-6,-2,-4,-5
16.016132,3163,27,5,-2,1,6,0,-1,-3
16.017618,3164,10,-32,-4,-5,-9,-4,-3,-3
16.017633,3165,2,27,1,-2,2,-1,1,4
16.038566,3166,8,-35,7,6,10,4,5,3
16.038583,3167,30,35,2,4,0,-4,-5,-6
16.040272,3168,-59,-10,-7,-6,-10,-3,-5,-9
16.040358,3169,-14,-55,0,0,-4,-5,-2,-4
16.056116,3170,-17,23,0,0,12,5,-3,-8
16.056141,3171,28,32,8,-2,-5,-6,-3,8
16.059642,3172,-24,-50,-8,-3,5,7,5,5
16.059656,3173,14,17,-1,-3,-11,-2,-2,-6
16.076198,3174,-41,-14,-4,-1,-1,-1,-1,-6
16.076260,3175,6,13,8,5,-8,-3,-1,-3
16.077549,3176,14,-6,-5,-4,4,1,-3,7
16.077568,3177,3,-3,0,0,-3,-2,5,0
16.098723,3178,23,71,2,-1,-3,-2,-6,-1
16.100805,3179,-16,-55,-10,0,12,4,-1,-5
16.100821,3180,24,-10,-8,1,-2,-4,-2,1
16.100823,3181,8,38,11,-5,-7,-1,-2,1
16.113914,3182,-11,-16,-7,-4,0,-1,-6,-5
16.113944,3183,-6,-1,-2,7,0,2,5,-1
16.116047,3184,16,42,0,-1,-2,-4,-1,-4
16.116064,3185,-42,-11,0,-1,9,0,-4,1
16.136434,3186,-1,6,-13,-5,-27,-5,2,3
16.136468,3187,-15,3,4,-3,18,7,0,1
16.138164,3188,1,-26,-9,-1,-8,-3,3,0
16.138176,3189,16,38,0,3,14,4,-1,-3
16.157739,3190,55,-11,7,4,3,-2,1,16
16.157761,3191,-54,-6,-6,-3,-31,-3,-6,-10
16.168119,3192,3,24,5,-5,-3,-3,0,2
16.168135,3193,-8,-17,-9,-5,-14,-4,-11,-4
16.174292,3194,-40,-18,-10,5,23,8,6,-4
16.174321,3195,24,-13,17,-3,4,-1,5,6
16.175856,3196,-4,4,3,-2,-4,-6,-4,-5
16.175867,3197,-21,-30,-9,-1,-11,-4,-10,-9
16.196061,3198,35,-20,6,-1,-4,-5,-1,0
16.196079,3199,3,59,-5,-3,4,0,-2,0
16.197602,3200,-22,-77,2,-1,-3,0,0,-4
16.197659,3201,53,31,3,-2,0,-2,5,3
16.218576,3202,-25,-21,3,0,0,-1,-7,-2
16.218590,3203,25,1,-12,-4,-2,-3,1,0
16.220099,3204,-21,18,7,7,6,1,-1,3
16.220119,3205,13,-16,2,0,0,2,2,-6
16.232889,3206,23,58,1,-2,-5,-2,5,8
16.232904,3207,-59,-34,-6,1,0,2,0,-4
16.240157,3208,24,2,-2,-4,-4,-5,-4,-8
16.241636,3209,34,54,2,5,10,0,2,3
16.256297,3210,-76,-71,-9,-4,-29,-7,-3,-10
16.256314,3211,21,53,-2,-6,17,5,1,2
16.257869,3212,7,-6,2,2,6,0,-2,0
16.257928,3213,9,3,-2,-2,-5,-2,0,3
16.279804,3214,12,-27,0,-4,-5,-6,-3,-5
16.279817,3215,6,-10,-1,7,2,-2,1,1
16.280140,3216,-33,24,-1,-3,-2,-2,-3,-1
16.280151,3217,15,-3,1,2,2,-1,1,3
16.293078,3218,4,-2,-6,-2,5,2,-1,-1
16.293104,3219,-13,11,5,-1,-8,-3,-1,0
16.299989,3220,49,53,3,-5,0,0,1,2
16.300010,3221,-90,-99,-16,-2,1,-1,-7,-5
16.316343,3222,-18,10,18,-1,2,2,4,-9
16.316378,3223,3,19,1,4,-4,-1,1,0
16.318252,3224,34,-3,-2,-5,-6,-3,-1,6
16.318266,3225,-6,31,0,-3,-5,-2,1,-2
16.340960,3226,24,21,3,1,10,2,0,7
16.340972,3227,-33,-54,-5,5,-1,-5,-5,-1
16.340974,3228,-1,-105,-1,0,-9,1,-2,-6
16.340976,3229,7,4,2,-1,-13,-2,-2,0
16.352961,3230,-6,23,0,-4,9,1,0,3
16.352984,3231,45,41,7,0,-3,0,6,4
16.359908,3232,-38,-2,-14,-1,5,-3,-3,-3
16.359971,3233,26,27,8,1,-2,1,1,0
16.376748,3234,-47,-58,1,1,-6,-3,0,1
16.376789,3235,18,6,-7,-6,4,-3,-9,-3
16.378609,3236,-14,-11,2,2,-4,1,0,0
16.378629,3237,2,59,-3,-5,1,2,3,5
16.398549,3238,10,17,12,1,0,-3,-3,-3
16.398566,3239,-37,-84,-14,-2,0,-1,-2,-8
16.400105,3240,1,47,5,5,2,0,-1,4
16.400119,3241,10,-25,3,-3,0,0,2,0
16.412994,3242,10,-25,-9,5,2,0,-2,-6
16.413011,3243,7,5,2,-5,-5,-4,-9,4
16.419870,3244,-20,-25,8,-4,18,-2,4,-11
16.419888,3245,19,21,-3,-2,-6,3,2,2
16.436410,3246,6,-13,-8,1,-29,-6,0,7
16.436430,3247,-9,-27,2,-4,28,6,-3,-8
16.437630,3248,12,9,-7,-2,-2,-3,2,-1
16.437653,3249,-8,15,8,-1,-1,-3,-6,6
16.459040,3250,16,-16,-6,0,1,-4,-9,-11
16.460578,3251,24,54,5,-1,-9,-2,7,9
16.460605,3252,-33,-60,3,-3,-9,1,-4,-11
16.460611,3253,0,-20,-6,1,3,0,5,3
16.473201,3254,31,-42,-5,2,7,1,-2,-2
16.473238,3255,-11,-15,-6,-2,-5,-3,-1,-2
16.479994,3256,13,22,-2,-2,-3,0,-1,3
16.480060,3257,9,19,4,-3,-7,-3,0,-5
16.496036,3258,8,18,4,-1,9,1,-1,8
16.496051,3259,36,18,2,2,6,-3,-5,1
16.497593,3260,-14,10,-9,-9,-33,-5,-5,-7
16.497608,3261,-53,-56,-12,3,1,-2,-3,-10
16.518889,3262,20,9,0,-4,7,3,0,-3
16.518905,3263,-21,-16,4,-5,-5,1,2,2
16.521372,3264,32,40,2,6,1,0,0,3
16.521385,3265,6,2,-15,-1,1,-4,-7,-2
16.533351,3266,-30,-36,8,2,-9,0,0,0
16.533380,3267,-54,5,4,0,17,7,4,-5
16.540311,3268,6,7,-4,-2,-5,-5,3,6
16.540343,3269,-3,2,11,7,12,-1,-6,-1
16.557217,3270,21,58,-2,-3,-17,-5,1,6
16.557230,3271,4,29,2,-3,-15,-3,-2,-6
16.557586,3272,-36,-80,-9,2,11,3,-4,0
16.557624,3273,-4,-3,-2,-3,3,0,-1,-7
16.578750,3274,24,59,4,-2,1,-4,0,4
16.578767,3275,-25,-45,-7,3,-3,-1,0,2
16.580397,3276,43,34,4,0,4,3,4,5
16.580408,3277,15,17,1,-6,-2,-3,-1,-2
16.592220,3278,-26,-38,-14,-7,-17,-1,-6,-17
16.592237,3279,-3,-22,3,3,-10,-5,-2,0
16.602478,3280,-12,-12,9,-3,-4,-1,2,-1
16.602495,3281,-8,-7,1,-1,0,-1,1,2
16.617132,3282,1,10,-1,2,11,1,4,4
16.617143,3283,-6,30,-2,-3,-24,-4,-4,-5
16.617581,3284,-2,-5,-8,-2,23,4,-3,-5
16.617590,3285,-67,-5,6,3,-5,-3,2,3
16.638635,3286,42,-1,-7,-6,5,2,-2,-4
16.638658,3287,-56,-73,1,5,-8,-6,-7,-10
16.641119,3288,8,47,-2,-4,-7,-3,-6,2
16.641130,3289,-2,-7,1,-4,2,1,4,-3
16.652951,3290,-7,6,0,-1,0,-3,0,1
