timestamp,sample_number,emg1,emg2,emg3,emg4,emg5,emg6,emg7,emg8
0.020526,0,8,-4,-4,0,2,1,-2,0
0.020814,1,-3,-2,-5,-2,-1,2,6,-3
0.023890,2,1,-16,-8,-1,4,-3,-2,-5
0.023910,3,-4,25,9,-3,-5,-1,-1,-2
0.034588,4,-4,-6,-3,0,0,-3,0,-1
0.035710,5,-23,-12,-9,1,2,1,2,2
0.042790,6,-2,-25,-22,-2,1,0,-2,3
0.042813,7,1,1,4,0,0,4,6,0
0.057413,8,0,-19,0,-2,-7,-12,-31,-3
0.057430,9,4,18,-4,-5,-6,-6,9,4
0.059086,10,3,-9,-4,-1,1,-1,-4,-1
0.059107,11,-4,15,-2,-2,-3,-3,3,0
0.081114,12,5,-16,-8,-1,9,2,4,-5
0.081135,13,6,0,2,1,-6,-3,-4,-4
0.083904,14,-13,8,4,-1,-1,1,2,-5
0.083925,15,-9,4,7,-2,6,1,-1,2
0.094807,16,1,-8,8,-2,-9,2,1,2
0.094839,17,-7,-4,-3,2,2,1,0,-2
0.102581,18,8,6,3,-1,0,0,3,0
0.102593,19,3,-7,-3,0,-2,-1,-3,-1
0.117328,20,1,16,-8,-4,-2,-1,4,0
0.117348,21,-18,-21,-3,1,-6,-3,0,-2
0.118929,22,19,20,3,-4,-2,-6,-5,-2
0.118970,23,-9,-5,6,0,12,1,0,0
0.139976,24,-7,0,3,-3,-16,-5,0,0
0.139996,25,-10,26,-4,-3,2,0,2,0
0.172572,26,-20,-4,10,-4,-3,-6,-4,-6
0.172598,27,4,-11,-23,-18,-2,-17,-2,-4
0.173379,28,33,1,0,8,0,10,-2,6
0.173394,29,-12,14,12,5,3,2,5,-2
0.177221,30,-12,-38,-18,-17,-1,-18,-2,-11
0.178267,31,-9,9,0,-1,-4,-2,-3,0
0.178281,32,-12,18,7,6,2,9,2,0
0.178283,33,-14,-5,-4,-8,-4,-11,-3,-9
0.190818,34,0,2,-9,3,0,5,0,7
0.190839,35,12,6,20,17,4,22,2,9
0.199379,36,-16,-5,4,-7,-1,-11,-3,-5
0.201461,37,14,-20,3,-6,-1,-4,-1,1
0.205982,38,20,35,16,7,4,11,0,5
0.206014,39,3,-22,-12,-3,-10,0,2,-4
0.214092,40,-22,2,-10,-11,-1,-14,0,-9
0.214115,41,-8,-4,-14,1,1,5,-4,4
0.228782,42,-14,14,21,8,4,4,10,1
0.228801,43,-19,6,-4,-10,-18,-13,-12,-8
0.244648,44,7,-11,-3,1,-2,0,-2,3
0.246123,45,4,10,0,4,-1,10,-1,4
0.246336,46,20,-2,-3,-5,-2,-1,-1,-2
0.246350,47,-6,-20,-8,-4,3,-5,-4,0
0.266911,48,2,-17,-12,2,0,2,3,2
0.266933,49,-1,-21,6,0,-1,-2,4,1
0.273396,50,-17,0,-6,-4,-2,-3,-5,-5
0.273415,51,11,10,-2,0,4,0,-1,0
0.281405,52,-18,-3,-8,1,-2,-3,-3,0
0.281418,53,-19,0,-2,-3,-1,-4,-1,-6
0.288488,54,8,5,-7,-1,-4,2,-2,-1
0.289977,55,12,-7,-2,1,3,4,1,4
0.304746,56,-10,-3,2,-5,-4,-2,-2,-8
0.304764,57,4,2,-4,2,4,4,3,5
0.306422,58,4,-22,-7,-2,-7,-4,-7,3
0.306435,59,-12,32,3,-3,-1,-1,5,-1
0.327861,60,7,6,12,-3,5,-5,-6,0
0.327874,61,3,6,9,2,-6,0,-2,-1
0.328585,62,-12,-4,-3,-1,3,1,6,1
0.328591,63,-20,-12,-4,1,1,0,1,-1
0.342546,64,3,-10,-4,-2,4,2,0,2
0.342557,65,2,-3,-6,1,5,1,-1,-2
0.348665,66,-11,25,3,-1,-10,-2,2,1
0.348700,67,2,12,0,0,5,0,-2,-1
0.364783,68,7,3,11,0,-2,2,-3,0
0.364816,69,2,11,-6,-5,-7,-6,-8,0
0.367066,70,-3,-39,-6,1,4,1,0,1
0.367079,71,9,6,6,-1,2,1,6,-4
0.387237,72,-17,-9,-9,-4,-4,-3,-6,-1
0.387260,73,27,9,-10,-6,-2,-4,0,-2
0.389546,74,-21,-9,12,1,1,3,-5,-1
0.389559,75,5,19,17,0,1,-2,2,-1
0.401448,76,7,-9,-6,-6,-6,-5,1,-1
0.401470,77,-3,-11,-3,1,-1,1,-2,1
0.408685,78,4,18,-10,0,-4,-3,-2,2
0.408717,79,-4,5,1,1,3,0,-2,-3
0.424765,80,10,-8,-16,-1,0,-1,-2,3
0.424844,81,14,15,19,-1,-3,-3,-4,-3
0.426053,82,-10,-6,-7,-2,-1,-5,-3,-5
0.427147,83,3,-13,-12,-2,-2,-1,-3,-2
0.447132,84,-11,-5,10,1,-1,1,3,-5
0.447155,85,-15,18,-13,1,0,1,6,-1
0.448601,86,8,-32,45,1,2,-3,-1,-3
0.448611,87,10,-17,-12,-2,-4,-5,-25,0
0.461521,88,-4,9,-14,0,1,0,13,-3
0.461542,89,-1,-15,12,-1,-5,-2,-1,0
0.468334,90,25,22,-14,-3,-6,-5,-9,-1
0.468361,91,-4,0,3,2,-10,0,2,0
0.484828,92,9,-10,2,-2,0,-1,0,0
0.484851,93,-8,0,-3,-2,4,1,-1,1
0.486305,94,3,1,-10,-2,-2,4,2,-2
0.486324,95,7,-19,-1,-3,1,-2,0,-3
0.507431,96,-4,5,-6,0,0,-2,-4,1
0.507449,97,-10,13,8,-1,-8,-1,-1,-4
0.508700,98,-8,5,-4,0,3,-1,-6,-2
0.508802,99,-7,-19,-3,-1,1,-1,4,0
0.520978,100,-2,22,13,2,-1,4,2,-3
0.521245,101,6,-12,-8,-2,3,0,-2,1
0.529733,102,2,-6,-13,-4,1,3,2,-4
0.529751,103,0,22,5,0,-2,-4,-1,0
0.543972,104,-17,-18,-6,-1,1,1,7,4
0.543996,105,-5,-31,3,4,1,0,-16,-2
0.545857,106,-17,22,-4,-3,8,-7,2,-1
0.545876,107,-17,-2,2,2,-17,4,3,5
0.567062,108,-3,6,-2,0,0,-2,-2,-2
0.567092,109,5,5,-4,-2,2,-1,0,0
0.574257,110,-4,-1,4,4,2,5,3,1
0.574290,111,4,-22,2,-1,3,-1,-4,-2
0.588908,112,-11,14,0,-5,0,-5,-1,-3
0.588925,113,-16,-8,-9,-1,-1,-1,1,-1
0.589796,114,2,-4,-5,-1,0,0,-2,1
0.589851,115,-16,4,-2,1,1,-2,12,0
0.604053,116,22,22,5,-5,-10,-1,-23,-1
0.604070,117,-5,9,11,4,2,0,9,-2
0.605491,118,4,-33,-18,0,-3,0,2,0
0.605504,119,6,15,10,-2,3,-1,-6,-1
0.626463,120,0,-8,0,2,8,4,4,6
0.626485,121,3,13,-6,-5,-9,-1,-3,-1
0.628020,122,3,23,1,-3,-7,-4,-5,0
0.628032,123,-8,21,-3,-1,1,2,1,0
0.649148,124,-1,-52,4,0,1,-3,-2,-2
0.649168,125,3,17,11,-2,1,-1,0,-1
0.650834,126,-6,-28,-31,-3,-3,-1,-1,-3
0.650847,127,21,14,46,4,7,5,5,-1
0.664253,128,27,13,-8,-6,1,-8,-10,-6
0.664282,129,-18,-15,-20,-6,-10,-4,-2,-3
0.665480,130,2,-12,11,1,1,3,3,3
0.665493,131,-11,5,-11,0,1,3,4,2
0.687095,132,7,13,7,1,4,-1,-1,-1
0.687117,133,-15,-23,-4,0,2,0,3,1
0.687183,134,10,18,2,-2,-6,-4,0,-5
0.687240,135,-2,-11,-13,-7,0,-6,-5,-6
0.708969,136,-28,-5,0,3,-5,6,10,0
0.708997,137,23,11,-8,-2,0,0,-5,1
0.709887,138,-5,-12,-3,-3,-5,-6,-12,-2
0.709899,139,0,-11,-10,-2,3,-3,-3,1
0.723950,140,8,2,0,3,-1,6,-9,0
0.723972,141,-17,27,2,-5,-7,-4,6,0
0.724951,142,9,-6,27,1,5,1,5,-1
0.724980,143,7,-33,-2,-3,-10,-5,-7,0
0.746439,144,-31,-3,-11,0,10,3,9,7
0.746462,145,27,6,-4,-3,-22,-6,-7,-6
0.747856,146,-19,11,2,0,3,-1,-1,0
0.747872,147,-36,-9,-4,4,4,5,7,1
0.768834,148,42,3,-4,-9,-8,-6,-7,-4
0.768853,149,0,-6,0,0,4,-4,-5,-1
0.769571,150,-5,17,-3,2,3,5,1,2
0.769587,151,-2,-1,4,1,-8,1,2,1
0.783962,152,-30,-20,1,2,0,3,-2,-1
0.783981,153,14,-32,-3,-7,-2,-5,-9,-3
0.784901,154,22,14,6,-2,-1,-4,0,-1
0.784913,155,4,12,-10,-4,6,0,-2,-3
0.806610,156,0,30,6,-2,-10,-6,8,-4
0.806628,157,13,-27,-6,-1,5,3,1,1
0.807706,158,-33,-2,0,4,1,3,-3,4
0.807721,159,4,-18,12,2,3,2,4,5
0.828937,160,-6,8,-12,-2,-8,-5,-2,-6
0.828956,161,-20,25,6,3,6,5,2,5
0.829851,162,16,-17,-18,-8,-6,-4,-2,0
0.829863,163,10,3,0,-1,4,0,-6,1
0.851368,164,-10,-6,-1,-2,-4,3,14,4
0.851386,165,26,-20,-2,-5,1,-9,-23,-2
0.852372,166,-12,14,-8,-2,14,-2,4,-5
0.852383,167,5,5,-9,-2,-18,-1,-1,-2
0.866487,168,-3,-19,-12,-1,-4,-3,-6,-3
0.866504,169,-15,1,9,3,4,4,6,1
0.867382,170,11,18,0,-3,-3,0,-1,2
0.867395,171,3,21,-6,-2,-3,-2,-4,-5
0.888913,172,2,-9,10,-1,3,1,-1,0
0.888926,173,-6,-5,-19,-1,-2,0,2,-1
0.889623,174,13,-9,11,-1,-9,-1,-4,1
0.889641,175,-33,-12,-15,-5,7,-2,2,-1
0.904037,176,4,14,12,1,-2,-3,-3,-3
0.904052,177,-12,6,-11,-4,-5,-2,4,-2
0.904657,178,-9,-4,10,0,-5,2,0,-4
0.904674,179,-5,5,-2,-2,1,-6,2,-4
0.926653,180,22,-24,-17,-2,-2,-1,-23,1
0.926679,181,-19,8,7,4,-1,3,13,-1
0.927852,182,-8,5,-3,3,14,2,5,2
0.927864,183,7,-24,-6,-3,-17,-5,-6,2
0.948959,184,-3,8,9,0,1,1,0,-2
0.948975,185,-15,-8,4,0,6,1,-5,-5
0.949896,186,-4,-19,-4,-2,-2,-2,2,-2
0.949907,187,-17,27,5,1,-2,-5,-2,-3
0.963954,188,-9,-2,3,1,-2,-2,2,4
0.963992,189,-1,-1,1,-2,-1,-2,-1,-3
0.964870,190,5,-6,-19,-1,-1,5,1,3
0.964882,191,9,-9,18,2,6,3,-1,1
0.986515,192,1,-22,-12,-5,-4,-2,-3,0
0.986534,193,3,24,14,-1,-1,-6,4,-1
0.987571,194,1,31,-5,-1,-4,-1,-14,1
0.987589,195,7,-72,-15,-4,2,0,4,-2
1.008873,196,-8,27,5,1,12,-3,4,-3
1.008890,197,-1,-9,0,2,-25,-1,-5,0
1.009986,198,-16,-8,0,0,-12,-5,0,-6
1.009998,199,14,26,-1,-4,2,-2,-6,-2
1.026048,200,3,-1,0,4,4,5,3,2
1.026224,201,-4,-3,-1,1,8,1,0,-2
1.026295,202,7,5,2,-3,-7,-6,-1,2
1.026326,203,-11,10,-5,-1,1,-1,-3,-2
1.046637,204,1,-11,-9,-4,-4,-2,2,1
1.046660,205,-8,-4,7,-2,8,-2,3,-2
1.047106,206,-2,11,9,-1,-2,-4,-2,-4
1.047157,207,-8,-10,-8,1,5,1,-4,-1
1.069068,208,17,-2,-11,-6,-9,-7,-5,-1
1.069093,209,-6,1,3,0,2,1,-2,4
1.070034,210,11,-12,-2,0,2,4,-1,-4
1.070045,211,-14,21,5,3,-4,1,-5,3
1.083981,212,4,-1,-7,1,-3,0,7,-2
1.084004,213,45,17,-3,-6,-3,-4,-5,-2
1.084862,214,-15,-16,7,0,2,1,-1,0
1.084875,215,-1,5,-7,-6,-4,-8,-9,-5
1.116229,216,-22,-11,0,-4,-2,-2,-3,-2
1.116242,217,-3,6,3,2,6,0,1,4
1.116983,218,15,3,3,2,-7,-2,5,-1
1.117022,219,16,-7,0,0,11,1,-2,1
1.129003,220,-16,26,3,0,-5,1,-2,0
1.129024,221,3,-28,-7,-4,0,1,-2,2
1.129634,222,-8,1,0,-1,2,-2,3,-1
1.129646,223,8,7,7,2,-2,2,-16,2
1.151730,224,-4,-2,2,0,-1,-1,4,1
1.151762,225,1,2,-3,-3,-1,-2,2,-1
1.153160,226,1,-29,-13,-2,9,-2,-5,0
1.153172,227,-5,6,-14,-6,-22,1,6,-5
1.166484,228,-12,-9,-7,-3,0,-2,0,2
1.166514,229,-19,20,18,2,2,3,0,3
1.174204,230,14,-18,-18,-2,-1,-1,-3,-1
1.174242,231,-5,7,19,3,7,1,6,-2
1.188899,232,-9,13,10,3,-1,2,-1,1
1.188922,233,35,-11,-14,-1,0,1,3,2
1.189815,234,-16,-4,1,3,5,2,-3,-1
1.189835,235,-16,1,1,-2,-8,-4,4,0
1.211454,236,0,6,2,-7,-2,-4,-4,-2
1.211474,237,-22,-27,-10,-1,-7,-6,-5,-1
1.212604,238,-4,31,9,0,-3,-4,1,-4
1.212628,239,3,-10,-14,-4,6,4,0,3
1.225882,240,5,10,17,1,1,-1,0,0
1.225907,241,-16,0,-12,4,3,3,2,-1
1.235309,242,0,0,2,-3,-6,-2,-5,-1
1.235332,243,18,-1,10,2,2,3,2,-1
1.248874,244,1,-26,-11,-2,0,1,-5,-1
1.248902,245,-3,-7,1,-2,-2,-2,0,-3
1.250056,246,-2,11,-8,-1,-1,-1,-4,3
1.250073,247,-12,11,7,-2,6,-2,7,-2
1.272061,248,-7,-22,3,1,6,5,2,4
1.272095,249,-18,1,-7,-4,3,-9,-6,-4
1.272098,250,5,10,2,0,-7,4,0,5
1.272101,251,-3,-3,-12,3,-17,0,-1,2
1.294733,252,-8,3,20,-2,0,0,1,-2
1.294761,253,-1,-2,7,1,-2,0,1,5
1.296058,254,-25,-13,2,-2,-3,0,-1,3
1.296082,255,5,-11,-22,-5,3,-5,-9,-8
1.308959,256,1,5,-7,-3,1,-1,-2,-1
1.308982,257,-6,0,-14,0,-1,3,2,0
1.309945,258,-17,9,25,3,6,0,8,-2
1.309964,259,-15,-17,-6,-5,-1,-4,-6,1
1.331590,260,-9,-4,-6,0,-3,-1,-12,2
1.331616,261,6,2,-2,2,4,2,6,1
1.332250,262,5,-4,-12,-4,-4,-1,-2,-2
1.332272,263,14,13,6,1,5,2,6,3
1.354802,264,8,-8,4,0,-13,-2,-5,0
1.355847,265,-7,22,1,-4,7,-8,-4,-5
1.355860,266,4,-7,-1,-2,-5,7,-5,-4
1.355862,267,-5,-6,-1,-1,-6,-6,0,-3
1.368869,268,-15,15,0,-2,8,-3,3,-7
1.368887,269,11,-1,-4,-3,-5,-2,-4,-2
1.369593,270,-6,-28,-1,-1,1,-1,2,0
1.369622,271,3,28,2,-2,8,1,-3,2
1.391498,272,-6,-14,-15,2,-4,-1,1,-2
1.391517,273,7,-22,15,-1,-2,-1,-3,-3
1.392239,274,13,11,-10,-2,-3,-3,-3,-3
1.392260,275,3,2,23,0,-3,-1,2,1
1.414578,276,-4,-5,-11,-1,2,0,0,1
1.414594,277,-11,4,2,-1,-2,2,4,-2
1.415288,278,13,-18,-6,-6,-4,-7,-6,-4
1.415301,279,-14,-20,-6,0,1,-3,1,-3
1.428878,280,27,8,-2,-2,-8,-1,7,-4
1.428921,281,-11,-4,-1,1,3,2,-18,-4
1.429557,282,1,1,-4,-3,-5,-6,4,0
1.429565,283,5,5,-6,1,3,-1,-5,0
1.451482,284,9,-2,1,-3,-5,1,-3,1
1.451498,285,4,11,1,-4,-7,-3,3,1
1.452236,286,-18,8,4,4,5,4,6,2
1.452241,287,55,-29,-9,-6,3,-7,-10,-4
1.474704,288,-18,5,-1,-3,-2,0,-5,-6
1.474883,289,1,-7,-10,-2,-5,-2,0,-3
1.475355,290,1,23,12,2,1,-3,-2,-2
1.475369,291,-12,-10,4,-1,1,1,5,-2
1.489108,292,-5,7,-1,2,1,-4,-6,-2
1.489132,293,11,-13,-3,0,-4,3,-1,3
1.490046,294,7,3,5,2,3,1,1,-3
1.490063,295,-11,13,-5,-1,-3,-1,0,1
1.512156,296,6,8,-1,-2,-1,-6,-1,0
1.512185,297,-3,11,12,2,2,0,2,-5
1.513491,298,-29,-24,-14,0,6,-1,0,-4
1.513503,299,-11,-6,13,-1,-26,-2,-2,0
1.534657,300,9,8,1,-3,0,0,3,1
1.534805,301,-20,-13,-8,3,7,3,1,2
1.535278,302,8,-1,-9,-3,-6,-5,-5,-2
1.535289,303,-26,-2,-6,-2,2,0,5,1
1.548979,304,7,6,10,1,8,3,0,2
1.548994,305,9,-12,-3,-4,-12,-5,-3,-1
1.549606,306,2,7,-4,-4,-2,2,-5,0
1.549614,307,-14,20,4,0,7,-2,0,-2
1.571546,308,-2,-16,-4,-2,-7,0,1,-4
1.572264,309,-12,-8,-4,-4,4,-1,-3,-2
1.572286,310,14,7,-1,-4,-1,-3,-3,-1
1.572287,311,7,4,-4,2,3,0,-2,-4
1.595889,312,-5,-16,4,0,2,0,1,3
1.595910,313,5,7,2,2,-3,0,4,2
1.595913,314,-12,-20,-4,-1,-3,1,-1,3
1.595916,315,5,-5,12,-2,0,-4,-4,-2
1.609285,316,-10,-7,-10,-3,5,2,0,4
1.609314,317,11,9,2,2,0,5,0,-4
1.610842,318,0,-6,3,0,-1,-4,-1,2
1.610854,319,-6,-7,-17,-2,2,-2,0,-5
1.631466,320,-6,9,3,2,-14,1,-4,-2
1.631482,321,-19,12,6,0,1,-3,6,3
1.632308,322,-28,-14,-3,0,1,-1,-5,0
1.632324,323,6,2,-4,0,2,6,-2,1
1.653782,324,-4,15,-2,1,7,-3,2,-3
1.653800,325,12,12,7,-4,-4,2,-3,-1
1.661462,326,16,-14,-8,-1,0,-2,-2,1
1.661482,327,-5,8,5,1,5,1,6,-3
1.669008,328,6,21,13,-4,-5,-7,-7,-4
1.669033,329,-7,-10,-22,-3,5,0,0,0
1.670053,330,2,9,11,0,-1,0,-1,0
1.670065,331,-8,-3,8,-1,-2,-5,-1,2
1.691664,332,23,-9,-8,-3,7,5,1,-5
1.691689,333,18,4,-2,-3,-5,-2,-3,-1
1.692420,334,-11,4,-2,0,-1,0,2,0
1.692447,335,1,-5,-3,-1,-2,-1,-3,2
1.714808,336,-16,-4,2,2,3,-2,1,0
1.714831,337,6,-5,-3,3,2,3,4,-1
1.716233,338,13,4,0,-4,-3,-3,-4,-6
1.716244,339,-11,-14,-7,-3,-1,-3,-2,-1
1.728970,340,-21,-3,-3,-2,0,0,-1,2
1.729003,341,-17,-3,1,3,-1,4,-3,0
1.729725,342,17,24,6,-3,-1,-3,3,1
1.729732,343,16,-10,-3,0,-4,2,-6,1
1.752418,344,8,-12,-4,-1,-11,-1,4,2
1.752428,345,-22,10,-2,-5,4,-1,-4,-1
1.752430,346,-1,14,6,2,7,3,0,-3
1.752431,347,9,13,-12,-1,-2,-2,6,1
1.774751,348,-24,-14,2,-4,1,-3,-5,-2
1.774766,349,7,-8,-12,-3,-2,-3,-3,-4
1.775470,350,10,-3,-3,-1,-5,-6,-5,-3
1.775484,351,-29,-2,2,0,-1,0,-4,0
1.789054,352,-10,12,1,2,1,4,3,3
1.789086,353,8,-11,-1,2,0,-7,-6,0
1.789827,354,-18,1,-8,1,-1,5,2,-2
1.789851,355,9,-2,-2,-1,-2,-3,1,-2
1.811620,356,2,-11,-3,-6,-8,-11,-11,-3
1.811638,357,-2,0,-7,0,-10,2,4,-2
1.812718,358,-19,-29,-2,0,0,-3,-2,4
1.812729,359,-2,-1,-5,1,2,3,3,-2
1.834890,360,1,24,10,2,4,0,3,-4
1.834908,361,-8,-10,-1,0,-4,-4,-5,-1
1.835434,362,3,-8,-7,-3,-4,-2,-1,-5
1.835449,363,0,8,2,-2,-1,4,5,1
1.848823,364,-3,-16,-14,-1,3,-1,-16,-1
1.848836,365,1,-15,6,-1,17,-3,6,0
1.849631,366,-4,-2,-10,-4,-25,-1,-1,2
1.849644,367,2,10,9,-2,-3,-1,-1,-4
1.871425,368,10,-5,-11,-2,1,-1,0,-1
1.871448,369,3,-1,0,-2,-3,-3,-2,-8
1.872855,370,-2,-1,3,2,10,2,-1,-5
1.872866,371,-7,-13,-8,-3,-3,-3,-4,-3
1.894937,372,10,0,1,-3,-5,-5,0,-1
1.894959,373,-8,4,4,2,-2,0,-5,1
1.895157,374,-1,-4,1,2,3,1,4,2
1.895169,375,2,15,11,0,1,0,-2,1
1.908484,376,-6,8,8,4,7,5,9,2
1.908521,377,40,-27,-4,-5,0,-1,-6,1
1.916479,378,10,7,2,-2,-15,-10,-4,-1
1.916509,379,-27,-4,-8,-3,0,-6,-3,-5
1.931499,380,12,-4,-9,-6,-3,-3,-4,-1
1.931522,381,-15,5,-1,1,-2,3,6,1
1.932527,382,9,2,-1,-1,-4,3,0,-4
1.932546,383,2,4,15,5,2,2,-4,1
1.962226,384,-5,-12,-5,1,-2,-1,14,0
1.962249,385,-12,19,12,0,-3,0,-17,0
1.963051,386,8,-3,-3,0,9,-1,5,0
1.963061,387,14,-3,-9,-1,0,-1,-2,-2
1.968355,388,5,14,-4,-4,-14,-5,-1,1
1.968379,389,9,-6,-1,-3,3,-1,1,-1
1.976646,390,-20,11,-7,-2,2,-1,-3,-3
1.976675,391,-7,-9,11,1,-1,1,1,0
1.991792,392,-1,-5,10,1,0,0,-3,-3
1.991861,393,-1,2,-13,1,-1,1,6,2
1.992965,394,-38,7,10,1,2,4,-2,-1
1.992982,395,9,8,-3,-6,-5,-8,-4,-4
2.014001,396,26,-6,-7,-2,2,-3,-6,2
2.014022,397,-13,-11,-1,-1,-7,-2,-4,-4
2.014765,398,20,-10,-1,-4,6,-3,-1,-1
2.014780,399,-6,-5,5,1,0,4,1,5
2.028471,400,-21,4,-2,1,0,0,-2,1
2.028561,401,1,12,11,0,-3,-4,13,-2
2.036681,402,6,-9,-26,-5,2,0,-13,-3
2.036701,403,-8,3,5,3,4,0,4,-1
2.051555,404,10,-15,0,0,-4,0,-3,1
2.051610,405,-6,-1,-3,-2,0,-2,1,-2
2.052165,406,-8,21,9,2,-2,0,-1,1
2.052221,407,29,-24,-10,-1,-2,5,0,3
2.074962,408,-15,9,-12,-2,2,2,2,-3
2.074990,409,1,-9,14,-1,-6,-4,-3,-3
2.076446,410,-22,6,13,0,0,0,2,-1
2.076459,411,-5,-15,-11,-5,-7,-4,-3,-1
2.088332,412,-13,26,-2,-2,1,-1,-2,-6
2.088356,413,-39,-7,-24,2,3,6,4,4
2.096614,414,49,5,21,1,2,-1,0,4
2.096632,415,3,1,-14,-5,0,-6,-4,-3
2.111397,416,3,-43,12,6,-9,3,0,3
2.111415,417,2,-4,-18,-3,-1,-5,-4,0
2.112057,418,-1,29,27,1,-6,-7,-1,0
2.112063,419,-22,-14,-16,-2,0,3,4,0
2.134762,420,22,-1,-10,-4,1,-3,-6,-1
2.134778,421,-10,0,5,-2,7,0,-4,-1
2.135903,422,0,-24,-14,0,-6,0,5,-3
2.135915,423,-9,21,11,-1,2,-1,-3,0
2.148460,424,-11,-5,-2,-1,1,0,-3,-2
2.148478,425,7,-6,-2,-1,1,-1,-1,-2
2.158315,426,-5,-5,-3,1,5,0,-2,0
2.158337,427,2,14,22,5,-5,-2,1,0
2.172120,428,-10,-44,-12,-6,2,0,-3,-2
2.172145,429,15,13,1,-5,-6,-5,-8,0
2.172717,430,-11,-8,-1,0,4,2,2,3
2.172737,431,-23,-11,-9,-1,-3,-1,0,-6
2.194864,432,-8,17,-5,0,-1,-2,3,-2
2.194885,433,-11,-6,8,-3,-4,-1,-6,-1
2.197074,434,-3,15,-1,1,0,3,-2,0
2.197088,435,20,-21,-6,-1,1,-2,0,2
2.219200,436,-8,37,-1,0,0,0,-2,1
2.219213,437,5,-3,3,0,-9,0,-1,4
2.219215,438,-9,-14,-21,-6,-4,-4,-1,-5
2.219216,439,-2,21,20,-2,-3,-4,-3,-1
2.231734,440,4,-14,12,2,2,2,11,1
2.231750,441,-5,20,-4,-3,2,-3,-16,-7
2.238968,442,5,-11,-15,-5,-2,0,4,1
2.240105,443,-17,2,10,4,-3,1,-2,-2
2.254768,444,-20,16,-10,-3,-4,-5,0,-3
2.254791,445,6,-11,12,-3,-2,-2,3,-2
2.255578,446,-3,5,1,-1,1,-1,-1,-2
2.255590,447,11,2,-9,1,0,-1,-6,-3
2.277217,448,-18,3,2,3,4,3,2,2
2.277240,449,-3,-11,-7,1,0,1,8,-3
2.278004,450,4,-29,0,-4,-8,-4,-10,-1
2.278015,451,-14,32,-26,-3,4,4,6,0
2.291431,452,11,-42,12,-2,-1,-5,-7,-3
2.291455,453,14,4,2,-1,-7,-5,1,-2
2.292480,454,-22,3,15,0,10,2,-10,-2
2.292495,455,8,-11,-22,-3,-1,-5,3,4
2.314772,456,-14,-1,-2,-3,-15,4,-4,-4
2.314791,457,-8,-16,-1,2,6,0,1,2
2.315368,458,7,-6,-16,1,-3,-2,8,-1
2.315380,459,-11,6,2,-1,1,-7,-10,-3
2.337291,460,-7,5,-3,-1,5,0,-1,2
2.337312,461,27,0,-1,0,1,2,9,-1
2.338997,462,-6,3,-5,-5,-4,-4,-8,-6
2.339006,463,2,-4,6,2,-2,0,1,-2
2.351551,464,5,10,-1,-2,1,-2,3,-2
2.351573,465,-2,6,-8,-1,-2,1,-4,0
2.352861,466,-1,-3,7,4,2,4,2,5
2.352866,467,3,-12,7,-1,-3,0,-2,-5
2.375407,468,-13,49,7,-1,4,-2,-5,3
2.375423,469,18,-27,10,0,-3,-5,-3,0
2.375427,470,-22,-34,-18,-4,-7,-2,-6,-2
2.375431,471,-7,-6,13,-1,0,0,6,-3
2.397074,472,-15,11,-5,4,9,3,5,-1
2.397096,473,0,15,-13,-2,-4,-3,-4,2
2.399277,474,2,38,6,-4,-10,-8,-1,2
2.399292,475,19,-12,-8,-3,-3,-1,0,-1
2.411569,476,-6,-25,9,1,7,-1,-4,-2
2.411594,477,-12,18,-4,5,-15,9,2,0
2.412242,478,14,-20,2,-3,-3,-6,0,-1
2.412254,479,10,15,-2,-3,-2,1,-4,4
2.434585,480,8,5,0,-1,1,-3,-6,-2
2.434608,481,-1,0,-7,-2,-1,-5,2,-6
2.436816,482,-4,-9,-7,-2,1,0,3,2
2.436828,483,-9,14,14,-1,-2,0,-2,2
2.457672,484,20,3,-1,-5,-4,-6,-11,-4
2.457701,485,-5,-17,3,-4,2,-1,-1,-3
2.460006,486,-20,-5,-4,2,-2,1,10,4
2.460018,487,-11,-12,-12,1,6,3,-12,-2
2.471774,488,9,-4,0,0,-1,-1,10,1
2.471798,489,-2,19,-10,-5,-5,-7,-6,-3
2.472177,490,21,10,12,0,-1,-2,-4,1
2.472189,491,-13,-20,-8,-1,-5,-4,-3,-2
2.495293,492,23,-11,-2,-2,-3,-2,-3,-7
2.495308,493,-25,15,-1,0,7,4,2,0
2.497093,494,7,7,-1,1,3,-2,-4,-3
2.497111,495,1,-11,-6,-1,-3,-2,1,0
2.518304,496,-1,2,1,2,1,5,0,3
2.518326,497,-1,21,5,1,0,1,4,0
2.518521,498,14,-18,-9,-5,4,-1,-4,-4
2.518557,499,-10,34,6,-3,-20,-3,-1,-1
2.531384,500,8,-8,-1,2,1,-2,1,0
2.531532,501,-13,-17,-5,-2,-5,-5,-1,-1
2.532186,502,-13,-2,-5,1,1,3,1,0
2.532210,503,-2,-5,-6,-1,4,0,-1,-4
2.554599,504,1,5,-5,-3,-6,-3,0,-1
2.554616,505,-6,-2,-2,-1,2,-1,-1,-4
2.555414,506,-5,17,-7,3,4,3,-1,-1
2.555426,507,40,24,20,6,16,9,20,5
2.577166,508,-20,-37,0,-8,-25,-14,-19,-3
2.577182,509,6,-3,1,-5,4,-5,-6,3
2.577802,510,-2,1,1,-3,-4,-2,-3,-3
2.577820,511,-11,-4,-9,0,5,-3,3,-3
2.591339,512,-12,3,10,3,6,7,6,3
2.591358,513,-3,0,2,2,1,1,0,-2
2.592498,514,7,9,-2,0,-4,-2,1,-1
2.592510,515,-4,-17,-11,-4,-3,1,-5,-2
2.614497,516,6,4,0,3,1,-1,1,0
2.614512,517,-5,9,-7,-3,-2,-2,-3,-1
2.615391,518,11,3,16,2,4,1,-2,2
2.615402,519,15,-34,-3,-1,0,0,-3,1
2.637455,520,-39,34,-7,-4,-2,-5,-7,-5
2.637483,521,16,-14,-2,-3,1,-2,5,1
2.638511,522,11,5,-8,-5,-9,-5,-3,-3
2.638525,523,-1,-2,-7,0,0,-3,-3,2
2.651569,524,-4,9,9,1,4,6,4,0
2.651594,525,1,6,-2,0,0,3,4,-3
2.652615,526,-6,-7,-8,2,8,1,-1,-1
2.652627,527,-3,18,7,0,-4,1,-5,-1
2.674600,528,14,-9,-8,-2,4,3,9,0
2.674617,529,-9,-23,19,1,-6,-3,-7,-2
2.675292,530,41,-16,-15,-5,-7,-4,-3,-2
2.675310,531,-21,-2,0,-5,-7,-10,-10,-6
2.697138,532,13,4,-18,-4,-1,0,0,2
2.697159,533,-9,3,14,2,3,2,-2,-5
2.698123,534,1,-11,8,2,-1,3,1,-1
2.698136,535,-8,-11,-6,-2,-2,-2,2,-1
2.711418,536,13,-1,-5,0,3,1,-3,1
2.711441,537,-11,-1,-1,2,-2,3,0,1
2.712400,538,-9,6,-8,-3,3,-3,10,-2
2.712423,539,3,9,11,-1,2,1,-18,1
2.735722,540,-28,-17,5,3,2,4,11,-2
2.735737,541,29,0,-2,-7,-8,-13,-10,2
2.735739,542,-38,11,5,-2,-2,-1,2,-1
2.735741,543,-9,1,-14,-3,1,-2,-2,-2
2.757150,544,14,-22,17,-1,-2,-1,-1,1
2.757166,545,-13,2,-9,1,2,5,-1,0
2.758048,546,2,9,11,3,2,0,-2,0
2.758068,547,-6,5,0,1,-4,1,5,2
2.771316,548,18,3,-8,-2,1,-1,-4,-3
2.771333,549,-15,-11,-21,-2,5,0,5,2
2.772124,550,20,1,23,2,-10,0,-5,3
2.772141,551,-16,-14,-7,-4,4,-1,1,-3
2.794668,552,-13,-7,-1,-3,-8,-4,-4,0
2.794684,553,10,4,-7,-4,-2,-6,-6,0
2.795305,554,-31,24,1,1,4,1,3,-3
2.795312,555,8,-24,-13,-3,-3,-1,1,-2
2.817154,556,15,8,10,2,-6,2,-2,4
2.817174,557,-23,2,5,3,-1,4,0,-2
2.817729,558,-8,3,-3,-3,12,-1,-3,-1
2.817744,559,17,-11,1,1,-25,0,0,-1
2.831415,560,6,-1,-9,-3,-5,-2,3,2
2.831431,561,-3,-4,-1,-2,5,1,-7,-1
2.832109,562,-3,-7,1,0,-2,-3,1,-2
2.832124,563,15,-7,-5,-4,2,-1,1,1
2.854605,564,-19,10,-7,-1,0,-3,0,-4
2.855822,565,-7,11,5,0,-3,-2,0,-1
2.855834,566,-25,-17,-4,2,5,6,3,2
2.855836,567,5,-5,8,-2,2,0,0,-2
2.877108,568,-16,-3,-9,-1,-5,-2,-5,-2
2.877125,569,-2,13,4,0,-1,0,3,2
2.877961,570,-6,2,5,1,-3,0,-6,1
2.877974,571,-18,-8,0,0,-1,-4,1,1
2.890829,572,7,-3,-8,-3,5,0,-2,-5
2.890845,573,-1,-18,-6,2,3,0,2,-3
2.899007,574,-1,19,-2,-5,-20,-14,-5,-7
2.899902,575,-4,3,0,-2,4,0,-3,0
2.914509,576,-10,-5,-6,-2,0,0,-4,-3
2.914525,577,9,11,6,0,13,4,5,2
2.915384,578,5,-12,-4,-1,-8,1,9,1
2.915398,579,-6,4,-2,0,5,1,-14,0
2.937258,580,7,-2,4,2,-4,-2,1,4
2.937269,581,-10,-16,1,-2,2,-2,-3,-7
2.937820,582,9,-9,-12,-3,3,-2,3,-5
2.937833,583,-2,8,1,-1,-2,-1,1,-1
2.950727,584,-3,-15,-16,-4,0,-2,0,-3
2.950744,585,-24,10,34,1,-6,-2,-1,1
2.958949,586,7,-22,-17,0,3,0,-6,-2
2.958965,587,23,15,-4,-1,-2,-3,0,-1
2.974728,588,-19,2,3,0,-3,-2,-6,-1
2.974746,589,-2,8,-6,-2,-5,-1,1,-1
2.975399,590,10,5,0,1,0,2,-4,-1
2.975410,591,-11,2,-4,0,3,-1,6,-1
2.997298,592,7,-11,7,-2,-1,-2,-1,0
2.998919,593,2,1,-12,-2,-4,0,0,-1
2.998935,594,-1,0,4,-2,0,0,0,-2
2.998937,595,-7,-11,-5,-1,-3,-6,-5,-5
3.011071,596,3,9,3,-4,6,-3,-2,-1
3.011101,597,4,8,-28,0,-7,5,9,1
3.019015,598,-7,-9,62,7,7,4,-7,3
3.019036,599,0,0,-11,0,-11,-8,-3,0
3.034666,600,48,0,-9,-6,-1,-5,-9,-4
3.034849,601,-2,-23,-11,-4,0,-5,-1,2
3.035374,602,9,16,-18,-3,3,2,2,-2
3.035393,603,-3,8,11,3,5,5,3,-1
3.057214,604,-17,-3,8,1,-3,2,2,0
3.057234,605,5,4,-1,-3,-1,-3,-5,-3
3.058744,606,-8,-21,-19,-2,-4,-1,0,3
3.058760,607,1,4,19,-1,0,0,-2,-2
3.071295,608,-2,23,-15,-3,-5,-1,2,0
3.071316,609,-22,-10,6,6,1,4,-3,0
3.078930,610,13,1,-9,-1,0,-2,-2,-1
3.080741,611,-12,-9,1,-1,-8,-5,-3,0
3.094552,612,-3,-12,3,1,0,0,-2,0
3.094564,613,11,5,1,-1,1,0,0,-3
3.095234,614,-4,-1,-9,-3,-1,-3,-3,-2
3.095246,615,2,-6,-10,-3,2,1,0,-3
3.117314,616,-10,6,10,5,-3,2,0,0
3.117343,617,-5,-11,2,0,-2,-4,-4,-3
3.119513,618,1,9,-6,0,4,2,1,3
3.119522,619,-28,4,-9,9,17,15,11,5
3.130845,620,35,17,12,-6,-18,-15,-16,-5
3.130867,621,8,-35,-16,-10,-11,-12,-3,-1
3.140262,622,2,14,8,-4,-2,-2,-5,-2
3.140277,623,-5,1,-4,2,-1,2,2,2
3.155754,624,-11,-9,-4,5,11,8,7,1
3.155770,625,10,15,5,0,2,-2,-2,3
3.155773,626,-4,-3,-9,-4,-6,-2,2,-1
3.155776,627,7,2,2,1,2,-1,-3,-2
3.177319,628,-17,-6,-4,-2,-1,-2,0,-1
3.177340,629,12,-1,-2,0,-6,-1,-4,-1
3.178311,630,0,-15,-18,-2,0,1,0,3
3.178318,631,-17,57,37,-1,-3,-5,-2,1
3.199753,632,-2,-65,-2,-1,-1,4,-2,2
3.199775,633,6,7,-20,-6,-3,-5,2,-4
3.200941,634,-14,3,-13,-1,1,0,-16,-2
3.200952,635,26,5,5,-8,-8,-9,-5,-5
3.213733,636,-22,25,5,-3,8,-1,5,3
3.213755,637,-6,3,15,3,-18,6,2,3
3.223495,638,-16,-8,-13,-1,4,0,1,-3
3.223511,639,23,-2,9,-1,-12,-6,-5,-5
3.237463,640,-31,-18,0,2,0,1,2,1
3.237597,641,1,17,-5,-2,12,5,1,-2
3.238748,642,6,8,5,-2,-7,-5,0,-6
3.238895,643,3,-20,-18,-6,-7,-4,-5,3
3.260205,644,11,0,6,-1,0,-1,2,-4
3.260234,645,-29,-12,-5,-2,3,-1,-2,1
3.262367,646,29,15,15,0,1,1,4,-3
3.262377,647,3,-12,4,0,6,3,2,-2
3.273738,648,0,-13,-13,-4,-6,-6,3,-1
3.273771,649,9,11,0,-1,1,0,-17,0
3.282485,650,1,-11,-11,-2,-1,-2,4,-3
3.282501,651,-12,26,27,1,0,-4,3,-3
3.297142,652,-8,-26,6,-2,-1,0,-2,1
3.297160,653,-13,-25,-2,-3,-1,-4,-3,-5
3.298690,654,7,-8,-4,-3,-4,-4,-2,-3
3.298723,655,-17,-8,-21,-2,0,0,-3,-1
3.327084,656,14,23,-2,-3,2,5,1,-2
3.327097,657,-12,34,9,3,1,3,6,2
3.328647,658,6,-3,12,-3,-1,-4,-5,-3
3.328653,659,2,-21,-10,-2,-2,-1,-1,1
3.333543,660,6,22,-3,1,-4,1,2,-3
3.333566,661,2,-12,-3,-1,0,0,0,0
3.348419,662,6,-6,-4,-3,0,-3,10,-3
3.348442,663,-3,6,-4,2,-2,0,-13,-2
3.358560,664,-10,-12,-8,1,-1,-2,3,0
3.358572,665,5,1,17,-5,-6,-9,-2,-3
3.358616,666,-15,14,5,3,-1,4,2,2
3.358640,667,21,-13,6,-4,1,1,0,-3
3.379713,668,5,-12,-20,-5,-2,-3,-5,-4
3.379737,669,3,2,0,4,3,4,4,0
3.381377,670,14,-4,13,1,-2,-2,-6,0
3.381388,671,-2,-23,-16,-3,-2,0,2,-1
3.394052,672,-8,26,-3,-2,-3,-6,-7,0
3.394067,673,4,3,8,-2,-2,-2,-4,-4
3.400877,674,-2,-10,-7,-4,-2,-3,-5,-1
3.400898,675,-10,-8,-9,-2,3,0,3,-2
3.417555,676,-9,15,3,1,1,-1,1,-4
3.417583,677,-9,-10,-2,2,1,2,0,2
3.419460,678,-6,-4,-2,-2,-2,-1,-3,-3
3.419476,679,4,7,-6,-1,-4,1,-1,3
3.439641,680,1,-1,5,1,-2,2,-2,3
3.439667,681,-6,7,0,-3,-1,-2,0,-3
3.441107,682,-5,-2,-7,-4,-3,-3,-3,2
3.442288,683,5,5,3,1,2,1,3,-1
3.453885,684,-19,-1,5,-1,-1,0,-3,-1
3.453898,685,5,-12,-14,-3,-1,-1,13,-1
3.461082,686,20,-10,7,2,1,1,-15,-2
3.461107,687,-16,3,-9,-2,-7,-4,-1,1
3.477598,688,-3,-5,-2,0,1,-3,-3,-2
3.477627,689,-25,-28,-10,0,0,1,0,2
3.478940,690,1,16,0,2,0,1,2,2
3.478948,691,9,-2,-2,1,3,2,-1,0
3.500048,692,17,5,8,-4,-2,0,1,-1
3.500060,693,11,18,-13,-1,-5,-3,-7,0
3.501167,694,-22,-16,-5,0,-3,-3,1,-4
3.501173,695,-6,-4,7,-1,2,-2,-3,-3
3.515917,696,-14,-6,-10,-3,2,2,-3,-1
3.515928,697,20,8,14,0,-1,1,-3,-2
3.521345,698,-14,1,-13,-1,-4,-1,0,3
3.521368,699,-4,-7,13,-2,-5,-3,0,0
3.537530,700,10,3,-4,1,1,1,5,3
3.537672,701,0,6,6,-1,1,-1,-19,2
3.539251,702,-1,-15,-6,1,1,3,11,4
3.539263,703,23,10,7,2,3,3,4,1
3.559785,704,-16,0,-4,-1,-2,-1,-4,-5
3.561734,705,-20,-20,-9,-2,-5,-6,-2,-2
3.561748,706,-7,9,4,-4,1,-1,-1,1
3.561750,707,-9,-7,-15,-1,1,1,-3,-1
3.574055,708,11,19,-1,-1,0,-4,1,-3
3.574071,709,-44,-44,-6,6,4,6,6,0
3.581183,710,31,10,7,-4,-6,-5,-12,-3
3.581198,711,-4,2,-3,-4,-2,-3,-3,0
3.598087,712,6,28,20,1,-2,-1,-2,6
3.598114,713,2,-22,-17,-3,-1,3,2,2
3.598972,714,-2,29,3,-3,1,-5,-1,-1
3.598983,715,-2,-12,-1,-1,-2,-3,-1,-3
3.627875,716,7,-14,0,-1,1,0,-1,-3
3.627906,717,10,13,0,-2,-1,-2,-3,-3
3.628755,718,-37,-7,-4,-1,0,-1,0,-1
3.630939,719,35,1,-6,-2,-2,-3,-3,-3
3.634030,720,-10,5,10,3,-1,0,-7,-1
3.634042,721,12,-3,-1,-3,-3,-3,10,0
3.640684,722,2,-2,-2,-1,-3,0,-11,2
3.640696,723,-2,-3,3,3,0,2,1,4
3.657432,724,9,-9,-4,0,0,-3,-1,-4
3.657449,725,-4,12,5,-5,-1,-1,0,-3
3.658811,726,-12,-22,-2,-1,0,1,2,2
3.658829,727,-22,-6,-11,-2,2,-1,0,0
3.679790,728,-5,-8,-6,-2,-3,-2,1,0
3.679813,729,8,32,11,1,1,-1,-1,4
3.682208,730,-24,3,20,4,3,5,4,0
3.682218,731,-1,-7,-18,-7,-3,-5,-6,0
3.693363,732,6,0,8,2,3,4,0,5
3.693378,733,2,8,-8,2,-1,-3,-1,1
3.703047,734,0,-19,3,0,-3,-2,2,-4
3.703063,735,1,18,8,-3,1,-2,1,-3
3.717214,736,-18,-5,-7,-4,1,-3,-4,-2
3.717232,737,13,-3,-1,-1,2,-3,0,-1
3.718603,738,-13,-4,-14,-4,-3,-5,-4,-3
3.718615,739,-5,12,3,2,-3,2,-1,-1
3.739936,740,10,-6,-5,-3,-3,-1,-1,0
3.739973,741,6,-10,-1,-1,1,0,0,0
3.741134,742,11,1,-2,3,4,-1,-1,-1
3.741141,743,-6,-5,2,2,-1,0,1,3
3.753346,744,19,-4,-3,-4,0,-1,-1,0
3.753368,745,-21,-8,-2,-5,-4,-1,-1,-4
3.762384,746,6,8,-2,-3,-3,-2,-3,-3
3.762483,747,-25,-9,8,-2,2,0,-2,-6
3.777396,748,1,6,-11,-1,11,-1,3,-7
3.777407,749,18,-15,-10,-4,-26,-1,-7,-1
3.778706,750,-2,-3,-1,4,1,4,3,0
3.778786,751,-8,-11,-14,-3,2,0,-1,-4
3.799910,752,9,-13,14,-1,-3,-1,-1,3
3.799931,753,1,10,-3,2,7,0,1,-2
3.801009,754,-17,9,4,-6,-2,-4,-7,-1
3.801024,755,16,6,-10,0,-2,2,3,-3
3.813376,756,-7,5,3,-1,-4,-1,-4,-2
3.813397,757,10,-9,2,-4,1,-2,2,-4
3.824058,758,-5,-20,-6,-1,-3,2,5,-1
3.824075,759,-11,-2,5,2,2,-3,-3,0
3.837410,760,-17,15,-3,-3,-5,-3,-3,-2
3.837439,761,-7,6,13,0,1,-2,2,0
3.839311,762,13,2,-8,1,4,3,3,3
3.839322,763,-19,1,1,2,-4,-2,-1,1
3.859567,764,-8,-11,-14,-3,-2,-2,2,-2
3.859590,765,12,29,12,-3,3,-2,0,-2
3.861209,766,8,-18,-9,-1,3,-3,-2,2
3.861232,767,-20,7,9,-3,-2,1,-2,-5
3.882419,768,-7,-10,-15,-2,-6,-3,1,-1
3.882452,769,-3,-7,8,0,4,-3,-6,-2
3.884000,770,2,12,3,0,-1,0,0,2
3.884007,771,-3,-4,-3,-1,0,-2,1,2
3.896354,772,27,-5,-8,-1,-2,1,-3,0
3.896376,773,7,17,7,1,5,4,-2,0
3.905599,774,-15,6,-10,-4,5,-6,-2,-3
3.905611,775,25,-9,17,2,-15,0,1,0
3.919586,776,-11,2,11,-2,-1,1,2,0
3.919631,777,-8,-36,-15,-3,-1,-2,-3,-2
3.921234,778,15,-2,-3,-4,4,-2,-2,-4
3.921243,779,8,-2,-4,-3,3,-1,0,2
3.933388,780,-11,16,3,1,-2,0,0,-4
3.933410,781,4,2,8,3,-1,-1,-1,-1
3.942483,782,1,5,2,-1,-4,2,0,2
3.942502,783,-16,0,0,4,4,5,1,-3
3.957180,784,15,-18,-14,-4,-5,-4,-13,1
3.957201,785,-3,8,-9,-2,-2,-1,5,0
3.958683,786,8,0,-9,-4,-7,-3,-6,1
3.958703,787,-6,13,25,0,2,-1,1,-1
3.979744,788,-16,9,-1,-1,3,-1,1,-4
3.979766,789,-4,-18,-5,0,1,1,-1,3
3.981296,790,6,20,9,-1,-6,-2,2,-1
3.981314,791,20,-11,-22,-6,-3,-3,-1,-1
3.993416,792,2,-8,1,1,1,3,2,1
3.993445,793,-8,11,3,2,0,-1,-2,0
4.002465,794,12,13,-1,-2,-5,-1,1,1
4.002477,795,-13,-9,-7,-2,0,-1,-5,0
4.017159,796,53,7,-4,2,1,-2,0,-1
4.017179,797,-23,-30,12,-1,9,-6,-4,-7
4.018753,798,-1,11,6,-2,-24,0,-1,-2
4.018763,799,-17,2,-23,-4,2,-2,1,-1
4.039505,800,-6,-24,24,1,-7,-3,-5,-1
4.039579,801,-1,10,-8,-1,0,3,2,0
4.040959,802,-10,-21,7,4,5,3,10,5
4.040990,803,2,-5,-18,-2,0,0,-13,-1
4.054589,804,0,13,13,0,-1,-2,6,0
4.054607,805,-1,25,-7,-5,-8,-6,-2,-1
4.062444,806,-19,-24,2,0,3,-1,-3,-6
4.062454,807,6,24,-9,-5,-2,-5,1,-2
4.077155,808,-20,-26,-10,-2,5,0,1,-1
4.077176,809,-15,8,10,1,-6,-2,-6,-2
4.078737,810,4,0,-5,-3,2,-1,-5,-5
4.078755,811,18,-5,-7,-1,-3,-5,1,-2
4.101689,812,-4,-10,-5,1,0,5,-4,3
4.101700,813,11,-5,-3,-4,-2,2,6,1
4.101702,814,-1,27,-18,-4,-1,-1,-3,-2
4.101704,815,-12,-50,25,0,1,-2,-2,1
4.122578,816,16,-22,-14,-4,-4,-2,0,-2
4.122606,817,-4,4,-15,-1,1,-1,3,-4
4.124344,818,7,-2,13,-1,3,-1,-17,1
4.124354,819,9,14,-7,-1,-4,1,13,0
4.137325,820,-30,21,1,2,-1,-2,-5,-1
4.137358,821,-1,-4,7,1,-2,-2,0,-4
4.139041,822,2,-11,-5,1,4,8,6,4
4.139059,823,2,7,14,2,-4,0,-2,-1
4.160447,824,5,5,0,-3,-1,-3,-2,-5
4.160474,825,-8,2,-8,-1,0,0,-2,-2
4.162926,826,7,-6,-1,-1,4,1,2,-3
4.162937,827,-13,-8,0,0,0,-2,-2,-2
4.182566,828,-17,8,-2,-4,-4,-2,2,-2
4.182585,829,-9,-10,-1,-2,0,1,-5,-2
4.183867,830,-11,0,-10,0,0,0,6,-1
4.184636,831,15,-28,-3,-1,-3,-1,-4,-2
4.197087,832,-2,18,-12,0,-1,-3,-6,0
4.197115,833,14,0,36,6,4,4,9,-4
4.198624,834,-8,2,-6,-5,-3,-4,-10,0
4.198657,835,8,8,0,-1,-4,-1,2,-1
4.219743,836,-9,19,-10,-2,0,-2,3,-1
4.219760,837,7,-11,-8,-6,-5,-2,-5,-3
4.221546,838,4,-17,-7,1,6,1,5,-5
4.221561,839,3,-6,-1,-3,0,-1,-1,3
4.242334,840,-7,-2,11,-2,-6,-4,-7,-5
4.242345,841,-13,-3,-18,-2,-3,-1,-4,3
4.243558,842,1,40,20,4,-1,-1,2,0
4.243563,843,-17,-27,-8,2,3,4,-1,-1
4.259228,844,42,-13,-3,-4,-4,-1,3,1
4.259240,845,-4,6,-1,0,12,1,-6,6
4.259242,846,-10,2,5,1,-9,0,2,1
4.259244,847,5,19,-6,-5,1,-3,0,-4
4.279979,848,0,-5,4,0,-1,-1,-5,-5
4.281891,849,4,-23,6,-5,2,-4,1,-1
4.281904,850,-3,26,2,0,0,-2,1,2
4.281905,851,-9,-9,12,1,1,2,-6,0
4.302232,852,-12,8,5,1,3,6,8,2
4.302253,853,1,-16,-14,0,-7,-1,-5,2
4.303645,854,-14,6,7,-2,2,0,0,2
4.303723,855,16,-1,-21,-2,-2,0,2,-2
4.316390,856,21,6,18,-1,-2,2,-3,-1
4.317938,857,-12,8,-10,-3,-5,-1,0,-3
4.323470,858,-28,-24,3,0,-3,-1,-3,-3
4.323493,859,-28,11,1,0,5,4,0,1
4.339571,860,-4,-8,-11,-4,-1,-4,4,-4
4.339594,861,4,8,-1,-3,-7,-2,-16,-2
4.341034,862,2,2,-9,-2,2,0,8,2
4.341046,863,1,-14,7,3,-1,1,-2,3
4.362885,864,-24,-16,3,1,-2,-1,3,0
4.362914,865,15,14,12,2,-2,2,0,3
4.363998,866,11,-26,-11,-1,-2,0,-5,-2
4.364003,867,11,31,16,-1,3,0,1,-3
4.376522,868,-3,-19,-22,-4,1,-3,1,3
4.376551,869,-7,20,17,-4,-7,-6,-3,-4
4.383431,870,4,-21,5,-1,-2,-4,-2,-2
4.383453,871,-32,16,-12,-3,-3,-3,0,-3
4.399643,872,4,-7,-3,1,1,2,-3,-2
4.399655,873,-8,5,4,1,0,-1,2,-1
4.401191,874,-1,16,-2,-2,-1,-2,-2,-4
4.401283,875,30,-13,-4,-1,0,-1,-2,2
4.422288,876,-17,16,6,1,2,1,-3,2
4.424598,877,-4,-10,-7,0,3,2,4,-5
4.424607,878,6,-8,-11,-5,-5,-6,-9,-4
4.424609,879,-9,3,2,-2,0,-2,4,0
4.437438,880,2,15,13,-1,-4,-6,-5,-1
4.437470,881,-4,-27,-10,-3,1,-2,-2,1
4.443241,882,-1,0,-4,1,5,4,4,0
4.443263,883,-8,3,5,-1,-3,0,-3,-1
4.459593,884,6,13,-7,0,0,-2,1,3
4.459610,885,8,-20,-3,-2,-3,3,3,-2
4.461155,886,-21,-7,7,5,0,2,-5,5
4.461168,887,6,-3,-17,-5,-2,-3,-4,1
4.482809,888,-30,-4,1,2,-3,-2,0,-1
4.482837,889,33,7,-24,-5,2,-1,-1,-1
4.484189,890,-16,-6,1,1,-2,-3,7,-6
4.484201,891,-12,-19,2,-4,-5,-7,-9,-3
4.496669,892,0,-1,-5,0,3,4,2,4
4.496692,893,-9,16,-1,4,1,1,-4,0
4.505288,894,11,-11,-6,-5,-5,-6,-2,0
4.505304,895,11,7,14,3,2,3,-1,1
4.519836,896,-4,3,-1,2,1,0,-2,-3
4.519848,897,0,-4,5,0,-4,0,3,2
4.521120,898,13,-19,-3,-3,-1,-2,0,-1
4.521130,899,7,17,-3,-4,-1,-2,-2,-1
4.542135,900,-24,-25,-5,-1,1,-2,3,-4
4.542215,901,-4,6,20,4,11,5,5,5
4.543585,902,-1,-6,-18,-4,-10,-4,-12,-2
4.543591,903,-22,19,-4,-5,-9,-8,-1,0
4.556887,904,21,-18,4,-3,0,-3,-6,-3
4.556909,905,-3,26,-6,1,-4,0,2,1
4.563451,906,0,1,8,5,9,7,3,0
4.563472,907,7,3,-6,1,4,1,1,-2
4.581601,908,8,-4,-2,-5,-5,-1,-3,0
4.581613,909,-5,1,-2,0,0,-4,-1,-3
4.581615,910,17,5,-3,-2,0,0,3,3
4.581617,911,-40,-11,11,2,4,0,1,-5
4.602308,912,17,-8,4,-2,-4,-1,-15,0
4.602327,913,-9,-6,-13,-5,-8,-4,5,0
4.604833,914,-5,-13,1,-2,-4,-4,-6,-3
4.604847,915,-1,7,0,3,0,-1,-1,0
4.617406,916,-16,4,0,1,5,5,5,1
4.617431,917,4,1,-1,-3,-3,0,-1,0
4.623469,918,3,8,-2,1,-2,-2,0,1
4.623489,919,13,-6,-6,0,4,1,2,-2
4.639882,920,-5,-4,-2,-2,-1,0,-1,-3
4.639910,921,2,-19,-15,-3,-3,-4,-5,-1
4.642241,922,0,25,23,-1,2,1,4,0
4.642258,923,-24,-3,2,7,3,5,1,-1
4.662508,924,72,-7,-10,-9,-7,-7,-3,-4
4.662525,925,-4,-2,1,-1,-3,-2,-5,1
4.663569,926,15,-4,-12,-3,-4,-5,2,0
4.663581,927,3,-2,-2,-2,-4,-2,-16,-2
4.676050,928,-13,21,0,0,-2,0,11,1
4.676061,929,-6,1,-2,2,4,3,4,-2
4.685083,930,-4,-4,-3,-3,0,-1,-2,-3
4.685099,931,18,-5,-3,-3,-1,0,3,-1
4.699941,932,-23,-9,2,3,0,1,1,-1
4.699963,933,-1,6,-3,-4,-1,-2,-6,-5
4.701394,934,-21,-4,-7,-1,0,0,2,1
4.701408,935,12,8,2,-1,-5,1,-1,1
4.722108,936,-11,8,6,2,1,0,-4,3
4.722120,937,-17,-31,-6,1,3,2,6,-1
4.723570,938,45,-12,9,-2,0,1,-5,-7
4.723577,939,-2,10,-13,-6,-7,-7,-3,2
4.738166,940,-13,7,-1,-7,-6,-5,-2,-6
4.738177,941,-24,5,-1,-1,-1,-2,-5,0
4.745063,942,-17,15,10,4,4,4,2,-2
4.745075,943,7,-20,-14,-2,1,-1,0,-4
4.759896,944,-8,7,2,-1,1,0,5,-2
4.759924,945,9,11,5,3,1,1,-15,0
4.761483,946,-4,12,4,-3,-9,-5,3,-1
4.761494,947,-12,-18,-4,-3,1,-2,0,0
4.782424,948,2,-8,-3,-1,-1,-2,-3,3
4.782445,949,16,-10,-5,-1,-1,0,0,-2
4.783877,950,-26,-1,-8,-1,1,0,-3,-4
4.783894,951,1,-5,3,2,1,-3,-3,0
4.796358,952,-10,-4,26,2,2,1,6,1
4.796378,953,0,-8,-6,0,-2,-3,-2,-1
4.804720,954,-14,14,1,-4,-3,-2,-4,0
4.804741,955,20,6,1,-1,0,3,6,1
4.819581,956,14,-4,-16,0,1,1,-6,-4
4.819599,957,6,11,14,-2,-2,-2,2,-4
4.821176,958,-26,2,-17,-2,1,1,-1,1
4.821188,959,4,-26,6,-1,0,0,1,-1
4.842188,960,-11,-2,-9,-3,-1,-4,-3,-4
4.842209,961,-3,8,5,0,1,-2,1,1
4.843675,962,24,3,-6,0,-4,-5,-1,-2
4.843683,963,-17,16,5,1,1,1,-4,-3
4.855923,964,0,-24,-8,-2,1,0,-9,0
4.855946,965,11,7,-2,-2,0,-1,5,1
4.866369,966,-8,-24,14,2,1,0,1,1
4.866381,967,22,21,-4,-7,-7,-9,-3,1
4.879827,968,-13,-3,-5,1,-3,-1,0,-3
4.879843,969,-1,12,3,2,1,-1,0,-2
4.881123,970,16,-28,-6,-2,3,-2,-4,1
4.881140,971,-27,-23,-7,-2,-1,2,1,-4
4.902813,972,11,19,1,-3,-6,-4,-3,-5
4.902836,973,10,-2,1,-1,-1,1,1,1
4.904469,974,-1,-2,-4,-5,-1,-2,-3,0
4.904478,975,5,14,2,4,1,3,-1,1
4.915830,976,4,0,-8,1,1,1,1,3
4.915851,977,-9,11,19,0,-1,0,-1,0
4.926336,978,3,-19,-15,-1,-1,2,0,0
4.926347,979,-4,15,4,-2,-2,0,-2,-1
4.947797,980,-21,-35,-7,-3,-3,-2,0,-6
4.947826,981,2,-5,-7,-4,-4,-7,-4,-1
4.949194,982,-7,22,2,2,1,3,0,1
4.949204,983,3,-11,-2,-3,-1,-2,-2,-4
4.962406,984,-4,17,5,1,1,-2,0,2
4.962423,985,-8,-14,-7,2,1,2,-9,2
4.963649,986,3,10,6,1,-5,1,6,-3
4.963680,987,5,-23,-15,-1,-1,1,3,1
4.976059,988,11,4,3,0,0,1,-2,3
4.976091,989,-4,0,-4,-2,3,-1,4,-4
4.992278,990,6,-22,-12,-4,-6,-10,-9,-4
4.992299,991,-4,19,22,1,-3,0,0,0
4.999836,992,-2,-6,-6,1,2,1,5,-2
4.999856,993,4,-2,-6,-5,-7,-2,-3,-1
5.001856,994,-16,14,-1,1,3,-1,-2,-1
5.001861,995,6,5,14,4,1,0,0,3
5.022151,996,10,-10,1,0,2,3,-1,1
5.022170,997,-11,1,-4,-1,-2,2,1,0
5.023610,998,5,2,-5,-2,-2,3,-2,0
5.023643,999,-3,-1,3,0,-2,0,0,-1
5.035753,1000,26,-3,-9,-6,-1,-4,-2,-2
5.035833,1001,-21,7,8,-2,-2,-1,9,0
5.046066,1002,-23,-4,10,0,1,0,-13,0
5.046081,1003,-17,-22,-5,-1,0,-2,5,1
5.059657,1004,-14,13,-6,1,-1,1,-1,-1
5.059679,1005,12,-22,-3,2,1,1,-2,0
5.061131,1006,4,29,0,-1,-2,0,5,-2
5.061149,1007,-23,5,-9,-4,-3,-3,-6,-4
5.082389,1008,6,12,8,0,1,2,-3,2
5.082447,1009,10,6,-4,1,0,-2,-3,-2
5.083585,1010,-13,-12,6,-1,2,-1,1,4
5.083597,1011,12,-9,-8,-4,-1,-1,-3,-3
5.104771,1012,-13,0,-14,-3,-3,-1,4,1
5.105636,1013,-35,-3,13,-1,-2,-4,-4,-6
5.106157,1014,5,-13,8,1,1,-1,1,-3
5.106162,1015,6,25,-7,-2,0,0,2,-2
5.119911,1016,-12,-8,2,0,-1,0,-3,3
5.119932,1017,0,12,-5,-2,-2,1,-3,1
5.121988,1018,16,-8,1,1,0,2,-2,1
5.121995,1019,3,-5,-3,1,1,4,10,2
5.143915,1020,-11,-16,-7,-4,-1,-5,-18,-5
5.143926,1021,20,8,13,-3,-4,-4,3,0
5.143928,1022,-6,-17,-10,-2,-5,-2,-3,-4
5.143930,1023,10,4,-7,-5,-2,-5,-3,-6
5.165218,1024,-2,3,3,0,1,1,3,2
5.165241,1025,6,7,-9,2,0,2,-1,-1
5.166920,1026,-28,-5,10,1,-8,-2,-3,-3
5.166931,1027,4,-28,3,2,3,0,-5,0
5.180146,1028,-2,3,5,0,-2,1,2,-2
5.180162,1029,16,-8,-12,-2,1,1,-5,-4
5.181875,1030,-6,38,2,-2,2,-3,3,2
5.181886,1031,-2,-25,1,-2,-2,-2,-8,0
5.202402,1032,4,-5,16,1,-3,-3,5,-1
5.202430,1033,-31,-7,-13,-5,0,0,-2,-5
5.205181,1034,3,9,-7,-2,1,-2,2,-2
5.205193,1035,16,14,-3,0,-1,0,-1,-2
5.224806,1036,1,-14,-1,0,0,-2,0,2
5.224831,1037,6,6,-2,0,0,-1,1,1
5.226232,1038,-10,-18,-5,-3,-3,-1,-3,2
5.226244,1039,5,11,11,1,0,0,4,-3
5.238627,1040,-3,-12,3,2,1,-1,-3,-3
5.238650,1041,-12,23,0,-5,-6,-3,1,-5
5.249363,1042,36,16,-6,-2,0,1,-1,-2
5.249380,1043,-33,-15,2,0,0,-2,1,2
5.262004,1044,-4,7,-22,-3,2,0,1,0
5.262027,1045,14,-18,14,4,3,-1,-2,1
5.268320,1046,6,2,-9,-3,-5,-1,1,1
5.268342,1047,-3,5,6,-3,-5,-4,-4,-4
5.284799,1048,1,15,8,1,-4,-1,-2,-2
5.284820,1049,13,-9,-5,0,1,1,-1,5
5.291032,1050,-13,-22,-5,-3,-4,-3,-3,-6
5.291054,1051,17,-4,-20,-1,1,-1,-3,0
5.298993,1052,-10,-2,7,-2,-3,-1,-2,-3
5.299007,1053,-5,-4,0,0,0,-2,4,-1
5.305887,1054,-3,0,1,1,2,2,-2,0
5.305910,1055,-12,-8,5,1,-2,1,-2,-1
5.322327,1056,29,7,3,-2,0,-1,0,-3
5.322356,1057,-11,-5,-6,-1,-1,1,0,-1
5.323883,1058,12,-8,-1,2,1,2,3,0
5.323890,1059,-2,10,3,-1,-3,-3,-13,3
5.344858,1060,-4,2,10,0,2,-1,8,-5
5.344868,1061,11,1,-1,-3,-9,-5,-6,4
5.345998,1062,-19,6,-2,0,1,0,-2,-3
5.346004,1063,2,-5,-1,-2,0,0,3,-2
5.358914,1064,-12,-11,-7,-2,0,1,-2,-2
5.358935,1065,2,31,16,3,1,-3,-3,-1
5.365822,1066,-13,-43,-11,0,3,4,5,0
5.365839,1067,0,16,1,-1,-1,-2,2,-1
5.382381,1068,-8,6,1,0,-3,-3,-2,2
5.384272,1069,7,-18,-12,1,-2,0,0,1
5.384282,1070,3,17,9,-1,-2,-3,-1,-1
5.384283,1071,12,-13,-9,-4,3,2,0,-2
5.404922,1072,3,6,-7,-2,-1,-1,0,5
5.404943,1073,-20,-19,-7,-4,-3,-2,-2,-7
5.407390,1074,11,-5,0,-1,1,-1,0,2
5.407406,1075,10,7,-3,0,-3,-2,1,-1
5.419536,1076,0,12,-7,-2,-1,0,-1,-1
5.419564,1077,-14,1,-3,0,2,3,-1,0
5.426299,1078,5,-3,11,-1,-2,2,0,2
5.426340,1079,-1,1,-2,1,-1,-3,1,0
5.442192,1080,-18,11,-7,-5,-4,-5,-4,-9
5.442278,1081,29,-8,-5,0,-3,-1,1,2
5.443574,1082,-5,8,3,2,3,2,11,-1
5.443606,1083,-20,-16,-4,-3,-2,-1,-16,-3
5.464954,1084,-8,17,16,-2,-2,-5,3,-4
5.464981,1085,-14,-19,-9,0,2,4,0,1
5.466626,1086,-4,17,-2,-2,-2,-2,0,-4
5.466631,1087,32,-18,-7,-1,-1,-3,1,0
5.478883,1088,-2,-21,-5,2,2,4,-1,3
5.478899,1089,-4,41,19,1,-1,-2,-2,-3
5.487166,1090,16,-16,-5,-3,-1,-2,-6,1
5.487177,1091,-19,20,-1,-1,1,1,3,-2
5.502985,1092,7,-9,-17,-2,0,3,-4,-3
5.502997,1093,-2,-5,11,-2,0,-2,4,-1
5.503523,1094,3,-6,-3,-6,-7,-6,-8,-1
5.503537,1095,-7,22,0,-1,0,-1,2,0
5.524779,1096,-19,-24,-6,2,-1,-2,-4,-1
5.524801,1097,-9,-4,-5,-1,0,0,1,1
5.526924,1098,3,-1,-4,1,2,2,7,2
5.526933,1099,4,8,7,1,0,2,-8,1
5.547281,1100,-21,16,16,-2,-1,-3,3,0
5.547366,1101,-6,-35,-6,1,1,-1,-4,0
5.549338,1102,7,21,8,-1,0,-4,-1,1
5.549354,1103,-3,-16,-13,-1,2,3,6,2
5.562042,1104,5,-4,6,1,-1,-1,-2,1
5.562070,1105,-11,30,-12,-5,-5,-6,-6,-3
5.570399,1106,-7,-8,-8,-2,-1,0,-5,1
5.570415,1107,-21,-10,6,-2,-2,0,-1,-5
5.584915,1108,18,6,1,3,0,3,1,3
5.584937,1109,5,-1,-6,-1,-2,4,2,1
5.586778,1110,-10,-5,13,2,2,-1,-2,1
5.586785,1111,25,6,-12,-6,-4,-6,-3,-7
5.598274,1112,-18,-12,-7,1,0,3,5,4
5.598292,1113,26,-8,-8,-7,-1,-1,-4,-3
5.609007,1114,-15,-7,-4,3,1,0,-2,-2
5.609018,1115,-19,-5,11,3,-3,-2,3,0
5.622394,1116,13,5,-10,-2,2,-2,-2,0
5.622424,1117,-9,-12,2,0,-5,-4,-7,-5
5.624733,1118,32,-11,9,1,-2,0,6,0
5.624749,1119,-2,3,-8,-1,2,-1,0,0
5.645278,1120,1,3,5,-4,-3,-3,-6,0
5.645295,1121,2,12,-3,1,6,1,5,-2
5.646191,1122,-23,20,-1,-1,-3,1,-5,-3
5.646205,1123,-4,-66,2,-1,-9,-2,-2,3
5.658228,1124,-8,-1,-13,-5,-4,-5,-3,-5
5.658240,1125,0,-6,18,1,1,-2,0,-1
5.667759,1126,-2,39,-4,2,-1,1,-1,-1
5.667775,1127,2,23,7,-2,2,0,3,0
5.682571,1128,-12,-17,-5,4,0,2,-3,1
5.682599,1129,16,12,-1,-2,0,0,-1,1
5.684659,1130,-10,3,-4,-1,-3,-1,-3,1
5.684672,1131,-4,-2,-4,0,1,-1,0,-4
5.704519,1132,2,-13,-3,-3,-5,-1,-2,-3
5.704531,1133,-1,-2,-4,-2,-1,-3,1,-1
5.706021,1134,-18,-13,0,-3,1,0,5,-1
5.706027,1135,-7,11,-1,-2,-2,-2,-17,1
5.719819,1136,-1,-5,-10,-1,2,0,8,0
5.719830,1137,4,-26,-17,-1,0,-1,3,-3
5.727573,1138,3,5,16,0,-5,-4,-7,-3
5.727583,1139,-7,1,-4,3,0,5,7,5
5.742317,1140,11,4,11,-1,0,-3,-4,-3
5.744169,1141,7,-4,-2,0,0,2,-2,0
5.744179,1142,-13,-2,1,0,2,2,4,2
5.744180,1143,13,11,-4,-3,-1,-3,2,-5
5.764802,1144,0,-1,-3,-4,-3,-7,-7,-4
5.767011,1145,-22,16,7,1,1,1,2,-1
5.767028,1146,0,-30,-11,-5,-9,-2,-4,-1
5.767032,1147,8,1,2,1,2,-3,-3,-3
5.779045,1148,19,11,-11,2,1,5,2,1
5.779075,1149,-17,-3,19,2,1,4,2,5
5.788815,1150,-13,-9,-17,-1,3,1,-2,-1
5.788827,1151,44,13,9,-3,-2,-5,-1,-1
5.802461,1152,-3,-17,-18,-1,-1,-1,1,3
5.802499,1153,4,4,10,-2,-6,-4,0,-4
5.803997,1154,-1,17,4,-3,2,-4,-4,-4
5.804006,1155,-16,13,-6,-3,-6,0,0,0
5.832607,1156,-1,-21,-4,0,1,1,0,0
5.832633,1157,-5,17,-3,-2,-2,-4,-7,-1
5.833550,1158,6,-19,1,3,2,2,-1,0
5.833563,1159,-15,6,-7,1,1,1,3,1
5.847318,1160,0,15,14,1,0,-1,-2,-4
5.847335,1161,15,6,-4,-1,1,2,-1,4
5.848675,1162,-3,9,-2,-4,-4,-1,-5,-1
5.848693,1163,-11,-25,-8,-2,-2,1,2,2
5.862015,1164,8,4,3,-2,-3,-4,0,0
5.862026,1165,-8,-14,-9,-1,-2,-3,-5,-2
5.863708,1166,-1,-1,7,-1,2,1,-2,0
5.863742,1167,-17,17,10,1,2,-1,1,-3
5.884618,1168,-10,-7,-3,-1,-2,-1,-2,0
5.884640,1169,6,16,18,0,0,-1,0,-1
5.886156,1170,-11,-15,-24,1,1,0,2,3
5.886173,1171,30,21,21,2,2,-1,-2,-2
5.898365,1172,25,-9,-14,-4,-6,3,-2,4
5.898382,1173,-14,2,-1,-2,-7,-8,-5,-3
5.907414,1174,27,-42,-4,-3,0,-4,-4,-5
5.907425,1175,-31,1,-3,-1,0,1,0,0
5.922871,1176,-14,7,6,0,3,-1,4,-1
5.922887,1177,-9,-9,-6,1,2,1,2,-2
5.923552,1178,4,11,1,1,-1,1,0,0
5.923559,1179,-2,0,4,2,-4,-3,-1,0
5.944631,1180,-18,7,3,-2,0,0,-3,-3
5.944646,1181,-8,-20,-2,0,-4,0,-1,0
5.945985,1182,29,12,1,0,-1,-2,-1,2
5.945996,1183,-8,-27,-11,-4,-5,-6,-3,-6
5.958469,1184,-7,22,9,-2,-1,-4,0,-2
5.958501,1185,-9,-14,-10,-1,1,1,0,0
5.968241,1186,-16,4,0,-1,3,-2,3,-4
5.968258,1187,-2,-3,-3,0,0,3,1,-4
5.984060,1188,-5,-4,10,3,1,0,0,0
5.984070,1189,-5,9,-2,-2,-1,3,9,1
5.984074,1190,2,-18,-12,-1,-2,-5,-20,-2
5.984076,1191,18,20,2,-1,-5,-2,6,0
6.004785,1192,7,-15,-8,-1,-8,-3,-8,-2
6.004809,1193,-1,-1,-3,-2,0,-2,-1,-3
6.006886,1194,-15,20,2,-2,-2,2,4,-1
6.006898,1195,-17,-19,10,1,4,1,-1,1
6.018355,1196,1,-2,3,-1,3,3,4,-2
6.018377,1197,16,-2,1,-4,-5,-5,-6,-7
6.029359,1198,-6,0,-12,-6,-5,-4,1,2
6.029380,1199,-5,4,8,3,3,2,-2,1
6.042445,1200,-13,11,1,0,4,3,3,3
6.042568,1201,-2,-15,-1,-1,0,3,-6,1
6.045000,1202,9,-5,3,2,-3,0,1,1
6.045018,1203,-1,-7,-7,-4,0,-1,0,-3
6.064821,1204,0,4,2,-1,3,-2,-4,-4
6.064838,1205,3,-14,-12,-2,-7,-3,-2,1
6.066190,1206,-4,-2,-11,-3,-3,-4,-1,-8
6.066215,1207,-4,20,17,-5,0,-3,8,3
6.087243,1208,-7,-8,-8,1,-1,5,-7,0
6.087264,1209,25,3,11,0,1,1,4,-3
6.089293,1210,-21,-2,2,-2,0,-1,1,-1
6.089304,1211,36,-15,-20,-3,-3,1,-2,-2
6.101378,1212,-2,6,-6,-2,-1,-2,-4,-1
6.101407,1213,-6,26,8,-2,3,0,4,1
6.110358,1214,-2,-3,13,-3,-4,2,3,-1
6.110369,1215,-1,-22,-15,0,0,-2,-2,1
6.124703,1216,-23,26,7,-4,-3,-2,-1,-5
6.124723,1217,-8,-6,-11,-1,1,-3,-4,-2
6.126069,1218,8,7,6,2,0,-2,1,3
6.126086,1219,11,4,-7,-2,-1,-1,-3,-1
6.147333,1220,5,1,3,-4,-4,-3,-1,-1
6.149355,1221,-14,2,1,1,3,3,-1,0
6.149368,1222,3,5,3,1,0,2,-1,2
6.149369,1223,12,4,-7,-1,-1,-2,-4,-3
6.162216,1224,11,-5,3,0,-2,-1,5,1
6.162240,1225,7,-7,-6,-1,2,1,4,3
6.164102,1226,-14,-3,5,0,2,-1,-16,-1
6.164114,1227,12,-10,-1,-1,-2,0,7,-1
6.184921,1228,11,4,-1,-3,-5,-4,-2,0
6.184950,1229,-18,4,1,3,1,1,3,1
6.186831,1230,8,-13,-10,-2,-2,-2,3,-5
6.186848,1231,-21,23,3,1,1,3,-3,3
6.207204,1232,2,-25,5,5,1,1,1,1
6.207225,1233,9,21,7,1,-3,-4,-4,-1
6.208684,1234,-19,-31,2,-4,1,4,2,3
6.208702,1235,1,8,5,-1,-2,-1,-5,1
6.221509,1236,6,1,-3,-3,-1,-4,3,-2
6.221530,1237,13,-2,-17,-3,-2,-2,-7,-4
6.228308,1238,-14,-3,-2,2,2,0,4,0
6.228334,1239,-1,13,1,-1,2,1,3,3
6.244696,1240,10,-24,-6,-3,-2,-2,-4,-2
6.244716,1241,12,-9,-1,-2,1,0,-2,-2
6.246262,1242,15,23,2,1,-3,0,0,0
6.246282,1243,-6,-23,-5,-1,0,0,-2,-1
6.267890,1244,1,10,1,1,1,1,3,0
6.267905,1245,-5,-5,3,-1,-1,0,-2,0
6.269068,1246,0,0,-5,-3,0,-3,1,-1
6.269096,1247,-32,-17,-8,-2,-1,1,-2,-1
6.281986,1248,0,8,-1,-3,-8,-7,-5,-2
6.281999,1249,15,-12,5,-1,-6,-5,-6,-2
6.288328,1250,-32,-6,2,0,2,-3,2,2
6.289448,1251,20,0,-3,0,4,1,-1,0
6.304619,1252,-5,13,8,0,3,2,-2,-2
6.304637,1253,-18,2,-16,-4,-3,-3,3,-1
6.306136,1254,37,-10,-1,-1,-2,-3,-4,4
6.306152,1255,-14,33,1,-2,-4,-2,-5,-4
6.327225,1256,2,-49,7,1,2,-2,0,1
6.327236,1257,-10,-1,-4,-1,0,-2,0,0
6.328566,1258,-10,6,2,1,1,1,0,-4
6.328582,1259,-4,-18,-7,-1,-2,-1,0,0
6.342348,1260,8,23,-3,-1,-2,-7,-2,-4
6.342360,1261,-11,-3,11,1,-1,2,0,2
6.348432,1262,40,6,-4,-2,-1,0,-1,0
6.348454,1263,-27,4,-2,-2,-2,2,9,1
6.364627,1264,15,18,-19,-6,0,-3,-12,-2
6.364649,1265,7,-14,11,-1,-4,-4,3,0
6.366544,1266,-11,2,-7,-2,-2,-5,-2,-4
6.366555,1267,10,-13,5,3,0,-3,1,2
6.387134,1268,-19,14,7,1,-2,0,0,-4
6.387152,1269,-4,-7,-4,1,-3,1,0,0
6.388996,1270,8,20,-1,-1,3,1,3,0
6.389006,1271,14,6,-3,-3,-2,0,-10,-2
6.401556,1272,-12,-19,2,0,0,3,-1,5
6.401585,1273,3,-15,-11,-2,2,0,-3,1
6.408459,1274,-4,10,20,1,-1,-3,0,-3
6.408488,1275,0,-7,-6,0,3,0,0,1
6.425332,1276,-25,10,-1,-4,1,0,4,-3
6.425362,1277,17,-13,-21,-7,-4,-5,-3,-4
6.426297,1278,-6,-10,7,1,-5,0,-1,-3
6.426311,1279,-18,8,9,-1,-2,-2,-9,0
6.447183,1280,19,-13,2,0,1,1,8,1
6.449469,1281,-11,7,14,1,2,0,-10,1
6.449479,1282,1,9,-8,0,1,1,-2,0
6.449480,1283,8,-35,0,0,-2,-3,0,-6
6.461684,1284,-15,24,3,1,-1,3,3,4
6.461706,1285,-12,-4,-3,0,-1,-2,-5,0
6.468362,1286,-4,-6,-7,-4,0,-4,-2,-5
6.468385,1287,21,0,-9,-3,-3,-5,0,-3
6.484564,1288,-7,0,11,-3,-4,-5,-4,-6
6.484617,1289,25,4,-2,-1,5,1,4,-4
6.486226,1290,-28,3,-9,-3,-4,1,-1,1
6.486267,1291,-2,-3,19,2,-2,-2,-2,1
6.507069,1292,13,-29,-7,0,2,2,6,0
6.507089,1293,-2,4,-14,-3,-2,2,-16,0
6.509033,1294,-7,29,22,1,5,4,11,3
6.509047,1295,17,-3,-5,-3,1,-3,-4,-4
6.520709,1296,1,9,-10,-7,-6,-6,-4,0
6.520731,1297,-24,-7,-2,2,1,1,6,1
6.529743,1298,27,-6,-12,-3,-1,0,0,-1
6.529760,1299,-21,10,-3,-1,-4,-6,-7,-2
6.545641,1300,-8,-12,3,4,4,4,1,1
6.545685,1301,2,4,-5,1,-9,-4,-2,0
6.546233,1302,20,38,-1,-3,-5,-3,-6,2
6.546250,1303,-17,-35,-4,-1,-3,1,3,0
6.567036,1304,13,-15,-12,0,-1,1,-2,1
6.567052,1305,-10,-2,-10,1,4,6,8,2
6.568498,1306,2,2,5,-3,-1,-6,0,-2
6.568511,1307,1,4,-11,-3,2,3,2,-1
6.580773,1308,-40,30,6,3,4,3,-1,-1
6.580790,1309,35,-18,0,-4,-3,-5,-3,0
6.590535,1310,-9,-36,-14,-4,-3,-3,-5,0
6.590547,1311,4,5,-5,2,2,4,-1,1
6.604553,1312,-12,18,7,3,3,2,1,-1
6.604576,1313,3,1,8,1,0,-1,-1,3
6.606409,1314,2,3,-5,-1,-2,4,6,2
6.606423,1315,-9,0,-9,0,0,0,0,1
6.627101,1316,4,-25,-1,-5,-5,-6,-8,0
6.627120,1317,-1,16,-6,-7,-1,2,4,-3
6.628752,1318,-9,-22,4,0,3,1,-5,-6
6.628767,1319,-29,20,-24,-3,-2,-2,-2,0
6.640837,1320,19,9,32,2,6,2,8,-1
6.640857,1321,-25,-6,1,-1,-8,-3,-4,-1
6.651008,1322,-5,-9,-1,2,-1,-1,0,2
6.651019,1323,-34,15,9,1,1,0,1,-2
6.664608,1324,43,-14,-18,-6,-3,-6,-7,-3
6.664629,1325,-28,3,6,8,8,8,9,8
6.666867,1326,42,-21,-3,-7,-5,-6,-8,-5
6.666878,1327,-34,-4,9,-1,-1,-3,11,-3
6.687158,1328,5,8,-2,-2,0,-2,-17,-1
6.687180,1329,-14,4,-7,-5,-1,-5,2,-3
6.688707,1330,-30,-26,5,3,2,1,2,-5
6.688745,1331,18,17,5,0,4,4,1,2
6.700882,1332,17,-13,-23,-3,-6,-5,-5,-4
6.700893,1333,5,44,41,-2,-6,-7,-1,-8
6.709693,1334,-5,-27,-20,0,-1,5,1,7
6.709833,1335,7,11,12,-2,0,1,-5,-1
6.724621,1336,32,-36,-15,-3,-3,-2,-2,-9
6.724641,1337,-34,-11,-14,-1,0,-3,-1,-4
6.726273,1338,-2,42,11,2,2,1,8,2
6.726287,1339,16,-53,7,-3,-4,-7,-11,-7
6.747301,1340,-33,-1,-17,-3,-2,-1,3,1
6.747315,1341,0,24,-27,-4,1,3,12,-3
6.748592,1342,0,-2,74,5,3,0,-14,-9
6.748623,1343,5,-14,-20,-2,-8,0,4,5
6.760801,1344,-14,22,4,1,10,-1,0,1
6.760825,1345,23,28,-37,-3,-11,2,-1,0
6.770075,1346,-5,-50,66,7,3,-4,-1,-3
6.770086,1347,6,34,12,-1,-6,0,2,-2
6.784829,1348,-34,-40,-14,-2,-1,0,1,1
6.784857,1349,-26,40,17,-3,1,-11,-13,-2
6.786239,1350,25,-27,-45,-10,-2,-5,0,-1
6.786254,1351,8,3,17,6,8,0,0,-15
6.807241,1352,34,15,6,1,-3,3,5,13
6.807272,1353,-34,-7,14,4,20,5,-1,28
6.808785,1354,-13,27,-26,-4,-17,1,-7,5
6.808810,1355,17,-30,-4,-2,1,-2,11,12
6.820854,1356,-19,21,-6,1,-8,-4,-10,-7
6.820877,1357,48,-23,8,0,-1,-4,0,-7
6.829883,1358,0,23,-13,-2,0,-2,0,-5
6.829899,1359,-11,16,-11,-3,0,-3,-2,-1
6.844713,1360,-17,-5,-9,-1,1,-3,-1,-4
6.844738,1361,32,-27,7,0,-6,0,-9,-4
6.846246,1362,-13,-19,-10,4,5,3,7,0
6.846260,1363,-11,30,-17,-4,-5,-3,-8,-6
6.867103,1364,-9,-24,-16,-3,-1,4,7,2
6.867126,1365,11,5,19,0,-4,3,-6,1
6.868692,1366,-13,19,-15,-1,1,0,1,2
6.868704,1367,58,-31,-15,-6,-1,-1,-4,5
6.880733,1368,-11,27,28,2,-2,-4,-2,-10
6.880753,1369,-31,-54,-32,-4,-3,1,15,1
6.890523,1370,-22,6,5,-1,4,0,-17,0
6.890538,1371,26,-59,-7,2,3,-1,-7,5
6.904610,1372,0,49,12,2,3,1,3,-2
6.904626,1373,-10,46,-4,-4,-13,-5,5,-10
6.906115,1374,35,-31,-4,0,1,1,10,5
6.906129,1375,-3,11,6,0,-7,-6,-11,-14
6.934857,1376,-9,-14,-3,-1,1,4,5,-2
6.934873,1377,3,-2,0,1,13,-2,-11,-3
6.936162,1378,-43,10,-5,2,-11,0,22,2
6.936222,1379,-17,8,3,-6,-7,-4,-19,-3
6.940942,1380,20,-4,3,-6,-4,-9,-1,4
6.940964,1381,-6,-23,8,5,2,6,0,-3
6.949840,1382,-14,32,-5,2,2,0,7,-2
6.949852,1383,-32,-29,9,4,5,5,7,2
6.964569,1384,-18,11,-5,0,-8,-1,-2,5
6.964583,1385,42,-32,-8,-7,-1,-1,-4,3
6.966211,1386,-13,37,-4,0,3,-1,-10,-2
6.966229,1387,10,51,36,1,1,-1,10,15
6.987256,1388,36,-78,-21,-5,-4,-6,-16,-8
6.987278,1389,-47,-8,-14,-1,-3,-5,7,-9
6.989369,1390,2,-35,-24,-2,5,7,-3,-10
6.989377,1391,21,22,-5,-9,-5,-11,-20,-25
7.011835,1392,-50,17,18,5,1,6,18,1
7.011847,1393,28,-23,-4,-7,-6,-8,-11,-8
7.011849,1394,14,19,-8,-3,-7,-10,-17,-4
7.011851,1395,-25,14,-6,4,11,7,9,6
7.024729,1396,7,-16,6,1,-7,2,-1,2
7.024749,1397,-6,12,5,2,9,9,6,2
7.026410,1398,12,20,3,-1,10,5,10,1
7.026431,1399,-8,-7,2,-5,-26,-17,-8,4
7.047100,1400,14,-19,-2,-9,-17,-14,-7,-6
7.047183,1401,-6,-7,1,1,6,-2,-4,4
7.048619,1402,4,6,2,2,2,4,5,1
7.048636,1403,-22,-30,-29,1,16,9,12,-1
7.069587,1404,8,76,52,13,6,11,0,8
7.069603,1405,-17,-71,-24,-10,-18,-15,-34,-17
7.071608,1406,14,6,-11,-5,4,-5,-5,-10
7.071625,1407,-7,16,1,1,0,3,11,-4
7.084651,1408,32,9,10,-4,-3,-2,-7,0
7.084667,1409,-24,15,16,2,1,2,4,2
7.086357,1410,-19,0,-7,-2,-5,-4,2,4
7.086369,1411,19,13,-15,-3,-4,-3,-3,0
7.107115,1412,-48,-32,-11,-3,4,1,4,-7
7.107138,1413,27,34,12,2,4,3,2,-6
7.108690,1414,-5,-10,-1,-4,-5,-1,-5,5
7.108708,1415,-14,-18,-8,3,-11,-1,-1,8
7.129522,1416,19,26,15,-4,-2,-5,2,-3
7.129544,1417,-1,-44,-5,-3,-4,-7,-16,-4
7.131069,1418,-20,-8,11,7,11,7,9,2
7.131081,1419,-6,37,10,-6,2,0,6,-3
7.143968,1420,0,-51,-40,-4,-5,-8,-5,2
7.143989,1421,-3,33,10,6,-1,4,11,-1
7.151041,1422,14,-7,6,-3,0,-2,-4,-1
7.151052,1423,26,-5,5,0,2,-3,-8,-2
7.167207,1424,-12,-14,-5,1,3,6,1,5
7.167221,1425,-13,28,-3,3,4,3,10,5
7.168976,1426,6,-10,7,-3,-6,-5,-7,-1
7.169034,1427,-13,-35,-31,-3,-2,-2,2,2
7.189688,1428,8,48,10,-1,7,2,3,2
7.189710,1429,20,-53,12,3,0,8,-3,9
7.191334,1430,-17,-32,-31,-8,-11,-11,1,-3
7.191346,1431,-10,68,53,6,3,2,-2,-1
7.203825,1432,34,-26,-36,-4,15,5,-7,-3
7.203850,1433,-30,5,-6,1,-8,-5,3,3
7.213765,1434,2,10,-1,-2,-10,2,2,3
7.213787,1435,10,-2,-7,-2,0,2,-5,-1
7.227474,1436,-11,-14,0,4,21,6,8,-1
7.227503,1437,24,33,7,-3,-5,3,-2,5
7.229707,1438,-11,-6,4,-2,-13,-11,-5,14
7.229721,1439,-8,-29,-26,-7,1,-5,-7,-7
7.249636,1440,-7,17,27,5,-6,1,13,3
7.249657,1441,-25,0,13,-1,5,2,-3,-3
7.251920,1442,28,-26,-10,-1,0,0,-6,-6
7.251932,1443,-4,-4,5,-2,2,1,-6,2
7.263895,1444,7,19,3,1,-10,-4,0,-8
7.263916,1445,7,-30,-21,-4,1,-3,-5,-5
7.270829,1446,-12,58,20,1,1,1,1,-3
7.270860,1447,17,-60,-23,1,-4,2,7,3
7.287121,1448,-11,52,26,0,-2,-1,-12,-5
7.287137,1449,21,-8,-17,-12,-3,-9,-8,-3
7.288943,1450,3,-30,7,3,5,-4,-4,-8
7.288954,1451,12,24,0,-5,-1,-1,1,8
7.309644,1452,-29,-49,-10,-4,-11,-6,-23,-2
7.309659,1453,-8,34,9,5,7,3,9,-5
7.311222,1454,-4,1,22,2,8,1,-8,-5
7.311240,1455,7,17,0,-2,2,-7,9,-1
7.324074,1456,2,25,-16,-5,-30,-5,-18,4
7.324086,1457,4,-40,-10,-6,-10,-8,-2,-20
7.330917,1458,3,11,-11,-5,6,1,-4,-4
7.330942,1459,-14,7,18,6,-6,2,8,2
7.347097,1460,-5,44,-7,-2,22,3,10,-5
7.347119,1461,24,-5,-4,0,-21,3,2,7
7.348827,1462,-11,-14,-9,-3,-5,-6,-11,1
7.348841,1463,8,-45,1,-1,2,-1,-2,2
7.371443,1464,-4,-12,-18,-6,-1,-3,-1,-8
7.371454,1465,-8,15,-2,6,12,6,25,15
7.371456,1466,-4,-45,5,0,0,3,-27,0
7.371459,1467,8,38,1,-3,-8,-3,3,4
7.387014,1468,5,-25,2,3,-2,-3,1,2
7.387026,1469,0,44,10,-3,4,-2,4,1
7.390890,1470,5,11,-10,-2,0,3,14,1
7.390904,1471,20,-59,-14,-4,-3,-4,-18,-11
7.407191,1472,-12,1,4,1,-1,-1,2,3
7.407210,1473,-29,-7,5,3,10,5,3,3
7.408973,1474,-2,22,-5,-2,-5,-1,7,0
7.408986,1475,-13,34,11,-4,-13,-10,-9,1
7.429668,1476,5,-15,-5,-3,-2,-1,3,-2
7.429689,1477,-10,7,6,4,3,3,-1,30
7.431632,1478,-5,-26,-17,-1,4,4,6,-2
7.431643,1479,-30,-16,11,4,7,1,-17,-7
7.444090,1480,-9,-29,-15,-3,-2,-1,20,1
7.444112,1481,8,41,6,-7,-1,-6,-7,-15
7.450794,1482,-26,11,-12,1,4,1,3,8
7.450817,1483,26,-2,15,-5,-1,2,-2,-4
7.467204,1484,-9,-25,2,-3,-7,-5,-6,0
7.467223,1485,-1,-16,-3,1,-4,-1,4,-3
7.468831,1486,2,51,1,-4,2,-8,-9,-1
7.468859,1487,-9,-3,7,7,-11,12,9,2
7.489791,1488,14,-28,-5,4,8,9,23,2
7.489819,1489,3,-8,-10,-4,-1,-3,-10,-6
7.491955,1490,15,-1,8,-3,-14,-9,-5,2
7.491968,1491,-13,37,-14,-5,9,-8,-7,-2
7.503449,1492,24,-2,0,-2,-9,-2,-2,-9
7.503473,1493,-45,-37,3,5,0,5,6,6
7.513659,1494,3,20,8,4,0,5,5,3
7.513671,1495,11,27,-7,-5,8,4,2,-3
7.527014,1496,23,-14,-15,-7,-6,-7,-15,-3
7.527025,1497,-10,19,8,3,3,-1,-2,-4
7.528613,1498,40,-14,2,2,-1,2,3,1
7.528636,1499,-30,-15,-7,1,5,-6,4,-20
7.549657,1500,-5,17,3,1,1,8,-3,1
7.549719,1501,15,-19,-8,-2,-1,-3,-6,-2
7.551175,1502,-13,-12,3,-2,-14,-6,12,8
7.551226,1503,-9,7,-5,-7,11,-1,2,-9
7.563458,1504,-8,2,3,-3,-33,-18,-19,2
7.564893,1505,15,1,5,-2,-7,-1,0,-1
7.573297,1506,-6,17,-2,-4,9,2,-5,-6
7.573312,1507,-26,5,3,8,17,8,14,9
7.587156,1508,31,-40,-7,-1,-1,6,-2,-1
7.587177,1509,-3,14,-3,-7,-6,-11,0,-2
7.589564,1510,-5,22,-4,-5,-6,-3,0,0
7.589575,1511,-15,-10,-21,0,3,4,5,5
7.609743,1512,61,58,44,6,12,-2,-6,5
7.609773,1513,-41,-52,-6,-10,-9,-10,-17,-25
7.612038,1514,30,-6,-37,-5,0,0,0,-3
7.612051,1515,-33,-18,25,11,-2,8,-1,4
7.623200,1516,-11,-8,-13,-4,0,0,7,-1
7.623218,1517,6,58,2,-2,-4,-9,-5,2
7.633987,1518,-18,-37,5,3,7,5,-8,0
7.634000,1519,12,-5,-15,-6,-11,-2,5,0
7.647194,1520,-21,4,-5,1,11,5,15,1
7.647215,1521,-3,-6,2,0,10,-1,-9,-2
7.649348,1522,-9,-33,-7,-9,-22,-12,0,-5
7.649357,1523,18,8,4,0,-1,0,-4,6
7.669668,1524,-25,-3,4,8,11,4,5,-1
7.669699,1525,-5,14,1,2,11,9,17,-5
7.671138,1526,12,18,-4,-3,0,-3,-14,-3
7.671200,1527,-3,-20,-3,-3,-9,-3,-6,-3
7.683260,1528,-12,-29,-4,-3,2,0,-2,-4
7.683281,1529,20,-15,-14,0,-3,-2,0,4
7.692869,1530,-3,0,-4,4,4,6,9,0
7.692880,1531,3,16,33,-2,-5,-4,-5,1
7.707141,1532,-9,13,-6,-3,9,-2,-9,-3
7.708194,1533,-5,-20,-3,-4,-20,-10,-7,7
7.708582,1534,3,-10,-4,-1,-1,-4,0,-2
7.708597,1535,-8,16,-6,2,15,-3,0,4
7.729741,1536,-16,10,6,2,-23,-1,2,0
7.729752,1537,12,-5,-2,3,8,8,12,-1
7.731135,1538,-4,18,12,6,7,6,-8,4
7.731149,1539,13,-19,0,0,-7,1,11,-4
7.743297,1540,-15,-3,-6,-5,-3,-8,-6,5
7.743319,1541,10,7,1,-1,0,-4,-8,-2
7.752859,1542,-11,7,4,-1,-1,-2,3,-1
7.752871,1543,5,3,-2,0,4,5,-1,2
7.767486,1544,-3,-6,-6,-1,-5,-1,0,-5
7.767506,1545,8,-3,-13,-1,1,3,3,1
7.773353,1546,-19,32,11,4,9,-1,6,-4
7.773377,1547,33,-26,-12,-9,-23,-2,-3,5
7.789615,1548,-39,26,8,-2,2,-5,-15,3
7.789634,1549,14,-33,-3,-4,0,-1,-4,-4
7.791197,1550,4,18,11,0,-6,-3,-1,-2
7.791205,1551,-3,2,-20,2,3,1,5,-2
7.803334,1552,-1,0,6,-3,3,-2,3,-5
7.803358,1553,2,10,-3,3,-3,0,1,5
7.813235,1554,-5,-53,-4,0,6,-1,-1,-5
7.813250,1555,-14,-6,-9,2,0,2,-5,-5
7.827142,1556,20,-6,-4,-3,-2,-3,4,-5
7.827164,1557,-24,-22,0,-3,-17,-15,-19,1
7.828726,1558,-6,14,-4,-3,-2,0,0,4
7.828745,1559,-1,-3,6,-2,1,-8,-10,-3
7.849695,1560,1,8,-6,3,-6,9,2,1
7.849719,1561,2,19,11,5,5,6,10,-1
7.852397,1562,-11,-19,3,-1,4,5,-11,-2
7.852409,1563,17,34,12,-3,1,-2,0,-7
7.863480,1564,-54,-29,6,2,-3,-1,6,2
7.863501,1565,27,-16,-4,-6,-6,-6,-7,1
7.872385,1566,-5,12,-2,-1,0,-2,0,-2
7.872398,1567,14,15,-2,2,-3,-1,-5,10
7.887702,1568,32,-8,-18,-1,7,-3,-8,-5
7.887714,1569,-3,-7,7,-4,-2,4,9,-2
7.888592,1570,-5,31,-14,-1,-3,-1,6,-17
7.888605,1571,3,-7,37,3,0,0,-17,-1
7.909634,1572,-15,-1,-8,-4,-1,-7,5,-3
7.909656,1573,16,1,-5,-2,-1,1,-5,2
7.911369,1574,19,-7,-13,-6,-3,0,-5,-4
7.911380,1575,-24,-7,-4,1,0,-5,6,-5
7.933836,1576,11,34,7,-2,-1,1,-23,2
7.933848,1577,19,-29,-6,2,1,-1,6,-4
7.933850,1578,13,31,18,-3,-17,-17,-17,-1
7.933852,1579,2,-24,-12,-7,-8,-4,0,-2
7.948137,1580,-11,-29,-5,-2,11,5,13,3
7.948151,1581,18,12,-2,3,10,6,-15,-2
7.955474,1582,-23,7,0,-3,-7,-1,2,-4
7.955486,1583,0,-18,-15,3,3,0,14,3
7.969699,1584,11,-17,-5,-7,3,-3,-16,-6
7.969719,1585,4,104,34,4,10,2,15,0
7.971210,1586,-7,-85,-21,-5,-19,-6,1,5
7.971223,1587,-22,31,-7,1,-3,3,-1,3
7.991283,1588,24,17,-7,-2,1,1,-2,2
7.991309,1589,-15,8,16,3,1,-2,-2,0
8.000698,1590,25,5,28,2,7,1,4,7
8.000717,1591,-48,5,-5,2,7,5,2,-20
8.007092,1592,25,-33,11,-2,-3,-7,-5,-5
8.008454,1593,-24,-26,-16,-6,-25,-4,-1,-1
8.008777,1594,-9,2,5,3,10,2,1,-1
8.008813,1595,11,-12,-2,-5,-6,-5,-3,3
8.029841,1596,-16,3,5,2,5,2,2,-4
8.029867,1597,-21,10,-8,0,2,1,5,4
8.031380,1598,23,4,-3,-1,2,-1,0,0
8.031402,1599,3,-10,-4,-3,-10,1,16,4
8.052144,1600,-36,-31,-4,2,3,0,-28,-1
8.052223,1601,2,-37,-13,-5,1,-2,8,5
8.054398,1602,-5,49,7,5,5,4,4,6
8.054410,1603,35,19,1,-5,6,-2,-8,-1
8.066551,1604,3,-29,-8,-4,-7,-2,10,-5
8.066569,1605,-26,-53,-11,4,3,2,-12,-2
8.073267,1606,-29,74,29,1,7,2,8,-2
8.073286,1607,24,-66,-45,-7,-5,-4,-13,3
8.089664,1608,5,36,32,2,-19,3,10,-1
8.089685,1609,3,-8,-16,-3,3,-3,4,-7
8.091160,1610,20,-28,-12,-3,-4,-6,-16,2
8.091182,1611,-2,37,11,1,-3,-4,-5,1
8.112061,1612,16,16,-9,-1,9,-7,6,2
8.112079,1613,-22,-15,-6,0,10,11,2,-1
8.113711,1614,-8,-30,-11,-7,-8,-10,-13,-4
8.113729,1615,-15,18,9,-1,-29,-6,-3,0
8.125829,1616,13,-6,-8,0,6,1,-5,-3
8.125853,1617,8,-18,6,0,3,1,-5,-2
8.135623,1618,-7,-22,-8,2,3,8,11,-1
8.135640,1619,-5,-30,-7,-6,2,-6,-10,-6
8.149098,1620,-1,4,5,4,-1,0,13,8
8.149130,1621,14,56,5,-5,-7,-5,-4,3
8.151221,1622,17,-11,-10,4,2,9,8,2
8.151233,1623,-18,-4,12,0,-5,-13,-12,-9
8.171584,1624,-31,-20,-11,-6,-5,-1,-10,-3
8.171611,1625,1,3,0,0,3,1,18,2
8.172556,1626,-14,-21,-3,-3,5,6,4,-2
8.172593,1627,-2,10,10,0,-3,-8,-29,-5
8.185755,1628,-7,19,-4,-1,-4,-1,23,2
8.185773,1629,3,22,-1,-4,-9,-4,-12,2
8.194001,1630,-26,-49,1,3,7,3,13,2
8.194019,1631,40,-10,-19,-6,-13,1,-5,-6
8.208953,1632,-14,-5,-6,0,9,0,11,1
8.208975,1633,-18,28,13,2,-10,-3,-20,0
8.211311,1634,33,-57,-18,-9,-8,-6,-4,0
8.211319,1635,-21,1,-4,2,17,4,3,-3
8.231479,1636,-7,14,-11,-3,-9,-3,-8,-7
8.231500,1637,-14,20,-8,4,2,3,11,2
8.232154,1638,27,7,31,1,-1,-3,-9,-2
8.232170,1639,-4,13,-2,4,6,6,9,9
8.245895,1640,14,-16,-1,-6,-1,1,0,0
8.245912,1641,-20,-10,-2,2,3,0,-6,-3
8.254009,1642,3,18,-10,-1,0,-1,-2,-3
8.255434,1643,2,-12,-3,2,9,7,12,3
8.277533,1644,5,48,13,-4,-16,-10,-4,-4
8.277551,1645,3,-23,-10,-3,12,-4,-2,-5
8.277816,1646,-15,18,-8,-3,-17,-1,-1,4
8.277821,1647,-38,-13,-2,-1,2,5,9,-2
8.293966,1648,-14,25,2,6,10,8,2,5
8.293977,1649,16,-64,-11,-8,-5,-7,-15,-7
8.293978,1650,-17,14,-6,4,4,1,4,1
8.293981,1651,14,70,20,9,9,10,18,5
8.305921,1652,-43,-46,-8,-3,-7,-8,-10,-3
8.307681,1653,10,6,5,-5,-10,-9,-20,-13
8.321995,1654,-41,34,13,4,6,3,3,4
8.324486,1655,3,-25,-2,-4,-2,-5,-5,-1
8.328969,1656,30,34,0,-5,-7,-9,-7,-3
8.329002,1657,1,2,0,3,18,1,11,3
8.330813,1658,-1,-5,0,-2,-21,-1,-13,-5
8.330829,1659,7,-32,1,-1,-1,-3,-6,-4
8.351555,1660,11,22,-1,3,11,5,6,4
8.351579,1661,-24,-3,1,5,11,9,3,2
8.353314,1662,20,-8,-4,-6,-13,-7,1,-6
8.353328,1663,2,-10,3,-7,-6,-5,-12,-1
8.365827,1664,3,4,-12,-3,-6,-5,4,-4
8.365850,1665,-18,9,10,2,-1,-3,0,5
8.373899,1666,62,-44,-6,-5,10,-2,-10,-9
8.373918,1667,2,-2,-14,-5,-13,-4,-1,1
8.388891,1668,-21,11,1,3,6,5,5,-1
8.388914,1669,10,37,2,-2,-3,1,9,4
8.389634,1670,-5,47,0,4,7,0,6,2
8.389655,1671,-5,-30,-4,-5,-4,-3,-8,2
8.411541,1672,8,-25,0,-1,3,2,-1,0
8.411566,1673,8,25,-7,-1,-2,2,-2,-3
8.413539,1674,17,-15,-7,-5,-9,-6,-7,2
8.413552,1675,-4,31,6,-2,10,-5,2,-6
8.425771,1676,-4,-3,2,-2,-12,-1,-2,-3
8.425793,1677,15,15,10,2,-2,1,8,4
8.433974,1678,-47,-29,-8,2,6,4,7,0
8.433991,1679,20,-21,-7,-3,14,1,-5,2
8.448954,1680,28,-7,-13,-3,-11,-2,-13,4
8.449003,1681,11,-24,14,5,-2,-1,5,4
8.449626,1682,-25,21,-7,-7,-6,-6,-10,-9
8.449642,1683,-13,12,-6,4,-2,3,10,4
8.471394,1684,12,-3,17,1,5,1,13,4
8.471411,1685,-14,-21,-22,-3,-10,-5,-30,-6
8.472520,1686,21,7,23,-3,-3,-7,1,1
8.472531,1687,0,-34,3,-1,-4,0,-4,-1
8.485837,1688,-21,-18,-7,3,11,9,13,0
8.485860,1689,-37,-3,4,3,2,2,-4,-2
8.493918,1690,26,3,-7,-5,-11,-13,-19,-2
8.493935,1691,-4,-2,-2,3,-2,3,6,0
8.509001,1692,0,-2,13,0,3,-2,-8,2
8.509017,1693,26,1,-17,-6,13,0,8,-3
8.510085,1694,-22,10,1,3,-11,7,4,2
8.510096,1695,-20,-17,-13,-5,-8,-10,-8,-8
8.531662,1696,2,-13,-6,-1,2,-2,-4,2
8.531686,1697,-5,21,11,0,-4,-1,0,-2
8.532374,1698,-20,-9,-8,-3,11,3,6,-1
8.532508,1699,11,-26,-8,-4,-6,-2,1,-1
8.545773,1700,-8,23,18,0,-1,1,-15,-2
8.545833,1701,-5,-15,-1,-5,-9,-6,5,-1
8.553964,1702,-14,0,18,4,7,3,6,-1
8.553985,1703,-5,13,-2,3,0,3,2,5
8.569315,1704,-19,-19,-12,2,1,-1,-3,4
8.571732,1705,28,31,13,-14,-26,-21,-7,-18
8.571741,1706,-10,-39,-26,-4,4,-2,-7,3
8.571743,1707,-11,27,11,5,8,5,7,-2
8.599712,1708,5,6,1,0,2,3,14,-3
8.599728,1709,-7,-4,-1,6,6,9,-22,3
8.601480,1710,8,20,-5,-4,7,-11,7,2
8.601492,1711,13,4,-2,-3,-16,-3,-2,1
8.605899,1712,-4,35,8,2,2,0,4,0
8.605915,1713,14,-46,-5,4,4,8,9,0
8.613921,1714,-4,13,3,-2,0,2,2,-3
8.613938,1715,-7,-23,-3,-2,-1,-8,-18,-2
8.629028,1716,-15,11,-2,-6,-4,-4,-3,-3
8.629053,1717,-20,-7,-12,0,3,0,3,1
8.630143,1718,2,-9,3,3,1,8,2,2
8.630154,1719,5,23,7,-3,-3,-2,2,-7
8.651409,1720,1,-11,-1,0,-2,1,-2,4
8.651435,1721,12,11,15,0,-1,-2,3,3
8.652913,1722,-9,-32,-17,-4,-5,-5,-5,-3
8.652928,1723,14,32,18,5,3,5,13,4
8.665855,1724,-7,-8,-16,-4,-2,-3,-12,-7
8.665882,1725,18,30,1,-1,-1,-4,1,0
8.674089,1726,-2,-16,-2,1,7,9,9,3
8.674106,1727,-14,4,1,1,0,-5,-3,-3
8.689756,1728,4,7,-4,-5,-10,-7,-5,-5
8.689821,1729,-24,21,-2,-1,-3,-6,-16,1
8.689866,1730,4,-3,3,3,-7,-4,2,-1
8.689871,1731,2,-28,-40,1,6,7,5,0
8.712618,1732,4,16,45,3,3,4,6,5
8.712647,1733,24,-37,-21,-7,-5,-1,-6,2
8.714239,1734,-19,12,-6,0,12,2,7,-6
8.714261,1735,5,27,2,-1,-5,-9,-15,-4
8.725791,1736,3,-15,-23,-7,-4,-5,-9,-11
8.725813,1737,-11,-22,2,0,1,4,11,3
8.733929,1738,-3,22,9,5,4,4,-3,1
8.733950,1739,-5,4,6,-3,0,0,5,-2
8.748892,1740,53,-42,-19,-3,-5,-4,-6,-1
8.748917,1741,-20,40,12,1,1,1,8,-2
8.749741,1742,8,-7,-9,-4,-8,-1,-11,1
8.749762,1743,-13,16,-4,0,0,3,13,0
8.771461,1744,-6,0,8,4,-1,-5,-26,5
8.772261,1745,5,-33,-16,-10,-9,-6,1,-3
8.772274,1746,4,-1,-2,-1,7,5,-3,1
8.772276,1747,-17,32,-3,3,14,-1,7,2
8.785909,1748,20,-60,24,-2,-23,0,-2,0
8.785939,1749,-14,13,-7,-3,-10,-6,2,1
8.793913,1750,-10,-16,6,3,-4,2,-5,7
8.793929,1751,-5,28,1,-2,17,12,5,1
8.809198,1752,-18,-20,-19,-1,-1,-4,1,-3
8.809219,1753,8,22,5,-1,-1,-3,-3,2
8.810371,1754,14,-40,-12,-6,-8,0,-3,0
8.810382,1755,-22,-7,16,2,-4,-3,-4,0
8.831451,1756,6,20,-1,-2,8,5,7,1
8.831478,1757,3,-14,-10,2,1,1,5,-5
8.832097,1758,-32,1,-5,-2,-1,2,-9,2
8.832114,1759,19,-9,-1,-8,-10,-12,-16,-9
8.845753,1760,-18,14,-6,2,2,-3,2,1
8.845774,1761,-6,13,0,3,12,8,5,2
8.853894,1762,16,18,10,4,2,2,-4,1
8.853915,1763,9,-7,9,-1,-9,2,-12,-3
8.868775,1764,1,-12,-27,-11,-14,-14,1,-5
8.868799,1765,-24,-21,10,4,7,0,2,2
8.876503,1766,3,10,8,-1,-5,-2,0,-3
8.876523,1767,-4,-18,2,-3,-6,-1,-1,0
8.891413,1768,-28,23,0,6,12,10,11,5
8.891432,1769,-6,-3,0,-4,6,-3,-6,-10
8.892163,1770,11,12,-5,-5,-12,-7,2,-2
8.892172,1771,9,6,-2,-2,-1,-1,-4,0
8.914543,1772,2,21,9,1,1,3,4,0
8.914563,1773,-2,1,-5,3,3,1,2,-1
8.915445,1774,-27,9,-1,1,0,-2,-2,-2
8.915456,1775,20,-29,-14,-5,-3,-4,2,-1
8.928833,1776,-6,-34,-16,-3,4,-1,-8,0
8.928851,1777,-17,9,15,-2,-1,2,10,1
8.929678,1778,2,4,0,-3,-6,-8,-29,-7
8.929688,1779,-5,5,-9,-6,-8,-9,12,-3
8.952366,1780,-14,8,-2,4,5,4,4,1
8.952382,1781,4,-18,-3,0,-10,-5,-14,1
8.952386,1782,-5,20,5,4,4,1,-14,-5
8.952389,1783,26,-29,-6,-5,-9,-6,10,0
8.974530,1784,-4,-8,1,1,5,7,-6,-1
8.974546,1785,7,10,-7,-4,-3,-3,7,-2
8.975299,1786,2,19,7,1,17,2,2,0
8.975308,1787,-23,-2,11,7,-8,4,8,-2
8.989072,1788,15,-30,-6,-5,-5,-7,-5,-12
8.989099,1789,-21,-25,-10,0,-4,-3,3,4
8.991043,1790,-12,12,1,0,8,3,11,-3
8.991055,1791,43,-20,10,-4,-2,-3,-17,-4
9.011489,1792,-24,61,13,2,0,3,5,4
9.011510,1793,9,-13,-2,1,0,4,-3,1
9.012547,1794,13,-17,-7,-2,-6,-1,9,2
9.012740,1795,-23,29,-10,-1,7,0,-3,0
9.034872,1796,-5,-27,-4,3,4,5,9,1
9.034894,1797,51,13,3,-7,-7,-8,-10,-5
9.035405,1798,-13,7,4,-5,-20,-14,5,-7
9.035425,1799,-13,-10,-2,-2,0,-4,-36,-4
9.048919,1800,-5,-14,0,2,-1,-2,8,-3
9.048987,1801,38,-21,-7,-1,4,4,-2,-2
9.049825,1802,5,22,-12,-2,2,-2,8,-2
9.049846,1803,-14,1,5,3,1,4,6,2
9.071397,1804,-9,4,2,1,9,0,-4,0
9.071421,1805,0,13,6,-1,-24,-1,-4,0
9.073538,1806,-10,-11,-3,-3,-6,-10,-10,-1
9.073550,1807,28,27,10,1,9,4,8,-3
9.094556,1808,21,-39,-18,-8,-9,-10,-8,-2
9.094568,1809,-27,1,13,-1,-3,-2,-16,0
9.095176,1810,10,-36,-4,-2,3,2,18,-1
9.095186,1811,-17,22,-4,1,-2,2,-2,3
9.109113,1812,6,10,-6,-4,-2,-2,-9,-1
9.109125,1813,-3,1,9,4,4,0,-13,-4
9.109617,1814,7,-17,-1,-1,-5,3,12,4
9.109627,1815,-19,3,2,-3,2,-1,-3,-3
9.131392,1816,19,8,6,2,1,5,11,2
9.131408,1817,-12,-8,-20,-5,-8,-6,-4,-1
9.133415,1818,-4,-3,3,-1,2,-3,-9,-6
9.133430,1819,7,-2,3,-1,-4,-3,3,2
9.154957,1820,-11,37,-2,2,3,2,1,6
9.154969,1821,-16,-17,10,1,3,1,-2,-7
9.155701,1822,1,1,-8,-1,0,1,2,0
9.155717,1823,-6,-21,-9,0,2,0,5,-2
9.170417,1824,5,16,2,1,1,3,-15,6
9.170432,1825,-22,2,26,0,-2,-1,15,-2
9.170434,1826,1,5,-2,-1,-6,-10,-15,3
9.170435,1827,-18,-10,-12,-1,4,2,1,0
9.191415,1828,-16,1,-2,-1,5,4,9,-4
9.191433,1829,10,2,-10,-3,-3,-4,2,1
9.192225,1830,22,-14,5,-2,-7,2,-6,0
9.192237,1831,-28,9,7,0,-2,-3,2,5
9.213921,1832,2,-22,-11,-2,0,0,0,0
9.213943,1833,-3,-13,-8,-1,6,4,2,3
9.215673,1834,-5,36,1,-2,5,2,-1,-1
9.215686,1835,5,-6,-2,1,1,2,2,-3
9.229014,1836,6,3,7,-2,-6,-4,-3,-2
9.229036,1837,-7,-7,-12,-3,0,-2,-4,0
9.230320,1838,-12,-27,5,0,1,5,7,-3
9.230341,1839,9,-11,-10,-3,-3,-3,-5,2
9.251439,1840,-4,15,11,5,-5,-2,-1,1
9.251460,1841,15,7,-14,-7,0,2,8,-4
9.252652,1842,-14,-23,4,3,1,-1,2,2
9.252674,1843,4,23,0,1,-1,1,-6,-1
9.274593,1844,-7,-4,3,0,0,0,7,2
9.275663,1845,9,25,4,0,9,-1,-6,-3
9.275673,1846,-11,-11,-12,-3,-7,1,0,0
9.275675,1847,-5,-16,4,-2,-2,-3,-2,0
9.289026,1848,3,14,-2,-6,-3,-4,-6,-3
9.289048,1849,-8,11,6,5,10,1,5,1
9.290271,1850,-1,1,-4,0,-1,0,-3,-3
9.290282,1851,4,4,4,3,-1,1,9,1
9.311361,1852,-52,16,9,1,10,8,-4,-5
9.311373,1853,65,-35,-11,-6,-16,-7,4,0
9.312160,1854,-2,-29,-11,-6,-12,-10,-8,0
9.312243,1855,2,31,9,-1,-3,-7,-14,4
9.334576,1856,-3,-4,-8,-3,1,-4,-1,-6
9.334594,1857,-33,-6,2,2,2,7,-10,5
9.336425,1858,16,12,-4,1,7,2,10,-4
9.336436,1859,-4,-24,-2,-2,-2,-3,2,-1
9.348456,1860,3,-1,0,0,0,0,3,1
9.348478,1861,-18,16,1,2,1,0,-5,-2
9.359175,1862,-3,-1,5,-1,1,-2,0,-4
9.359191,1863,-13,-19,-25,8,18,11,4,6
9.371521,1864,48,14,54,-7,-16,-11,-4,-10
9.371550,1865,-68,-58,-25,-9,-19,-9,-13,-7
9.373444,1866,11,30,-4,-5,-4,-5,-8,-3
9.373456,1867,5,-47,-2,1,3,1,3,-2
9.394671,1868,4,17,-16,-2,2,-2,-1,-1
9.394687,1869,1,14,2,3,5,3,4,1
9.395317,1870,0,8,9,3,7,1,0,0
9.395329,1871,-10,14,3,-1,-4,-1,-1,-3
9.408856,1872,-5,-14,-5,-3,-5,-3,-3,1
9.408867,1873,11,17,7,-1,-1,1,0,2
9.409578,1874,-7,-7,-7,1,1,2,2,0
9.409590,1875,9,5,-5,-4,-5,-5,2,-3
9.431402,1876,-18,-12,-17,-1,0,-2,-6,-7
9.431424,1877,13,23,13,3,-1,4,7,9
9.432760,1878,4,-34,4,0,7,7,2,-8
9.432771,1879,-46,-23,-1,0,7,-1,6,-4
9.454602,1880,33,-21,-5,-12,-28,-13,-18,4
9.454618,1881,-18,2,-12,-1,3,-6,-5,-1
9.455279,1882,6,18,-1,2,1,1,0,5
9.455300,1883,3,14,18,4,8,7,5,2
9.470481,1884,-14,0,-7,5,9,7,9,-1
9.470493,1885,5,3,3,2,1,1,-6,-2
9.476484,1886,2,3,6,-3,-3,1,1,1
9.476506,1887,7,-10,-25,-4,-2,1,0,-4
9.491363,1888,-4,9,10,4,-1,0,-6,0
9.491381,1889,-34,-10,14,-13,-16,-23,-16,-13
9.492757,1890,5,23,-7,0,-1,-2,-2,5
9.492768,1891,34,-28,23,-2,-9,-2,-8,-10
9.514603,1892,-6,6,-9,-2,1,-2,9,-1
9.514626,1893,13,-1,-11,2,13,6,-5,7
9.516502,1894,-4,18,2,0,-11,-4,6,-1
9.516514,1895,-19,-10,-3,-4,-8,-3,-6,-1
9.528321,1896,1,4,-4,2,11,4,4,0
9.528344,1897,40,5,9,4,1,4,6,-4
9.536511,1898,-40,-8,-5,-3,1,-4,-4,-4
9.536533,1899,9,-20,-11,-4,-6,-1,-7,-3
9.551382,1900,-35,-19,-12,1,13,8,5,2
9.551477,1901,19,10,6,-2,-15,-8,-1,0
9.552224,1902,-16,-56,-7,0,-7,-3,-4,-1
9.552244,1903,6,56,22,-2,0,-5,-7,-4
9.574671,1904,2,5,-2,-4,-3,-3,-7,3
9.574693,1905,2,-5,-9,-1,8,7,9,1
9.577109,1906,6,4,-1,3,1,-1,-10,-3
9.577121,1907,7,-4,2,-2,-3,-3,3,2
9.588188,1908,-2,9,0,-2,-8,-4,-3,-1
9.588211,1909,-21,8,2,1,4,4,5,-3
9.596375,1910,35,-26,-3,-4,0,-4,0,0
9.596391,1911,-36,11,-7,-2,-3,-3,-5,-1
9.612251,1912,-3,3,1,-2,-5,-7,-5,-6
9.612267,1913,-9,30,-13,3,3,5,7,-4
9.612269,1914,-12,2,21,3,4,1,-2,3
9.612271,1915,7,-31,-5,-3,-3,-2,-4,-3
9.634752,1916,16,-12,7,0,-4,1,4,9
9.634775,1917,-3,4,-5,0,-1,-4,4,-2
9.636491,1918,-13,3,-13,-3,3,0,-8,-3
9.636504,1919,9,-2,-2,2,17,0,1,1
9.648365,1920,-2,-2,-6,-1,-40,-3,-1,-2
9.648388,1921,-5,-15,-6,-4,-1,-1,-12,2
9.663932,1922,-22,11,12,0,2,0,8,0
9.663951,1923,14,27,-9,-1,-1,4,7,-1
9.671669,1924,-6,-24,1,2,5,-5,-15,-1
9.671684,1925,15,5,-1,1,2,2,4,1
9.673503,1926,32,1,-2,-2,-4,0,-3,-6
9.673517,1927,-18,-15,-3,1,-2,3,-4,8
9.694618,1928,-1,12,-7,-2,7,-2,9,-3
9.694668,1929,9,10,3,1,-2,-2,0,4
9.695426,1930,-11,-2,-1,-2,-1,-1,-1,-1
9.695445,1931,-14,-2,-3,-2,-4,-2,-3,0
9.708787,1932,-16,-9,-9,-4,5,1,-2,-3
9.708808,1933,-13,-11,-8,1,14,1,5,3
9.716409,1934,-5,45,13,2,-15,3,4,1
9.716427,1935,4,-15,-10,-1,5,0,4,-2
9.731358,1936,-30,-24,2,4,-7,6,-2,1
9.731375,1937,6,-19,-10,-11,-11,-12,-11,-12
9.733158,1938,-14,27,6,-2,-1,-6,-6,2
9.733170,1939,13,16,-4,0,-6,-5,-7,-2
9.754553,1940,9,10,17,1,8,-3,6,-1
9.754569,1941,-11,-14,2,5,1,6,3,-1
9.755270,1942,3,-15,-11,0,1,-1,-1,-7
9.755282,1943,-5,-13,-12,-2,-9,-2,2,-3
9.768447,1944,7,9,-5,-1,8,3,-1,-1
9.768461,1945,-1,5,24,1,-4,1,-2,-1
9.776415,1946,23,-8,-16,-3,8,5,5,13
9.776437,1947,-20,3,2,0,10,5,2,-4
9.791395,1948,19,23,-12,-13,-31,-24,-21,-8
9.791412,1949,11,-3,-11,-7,-8,-9,5,0
9.792086,1950,-16,-8,1,0,-2,-4,-11,-2
9.792096,1951,6,14,9,2,8,5,7,-1
9.816037,1952,-17,-25,-14,2,9,1,1,-2
9.816061,1953,-8,1,11,1,-3,3,1,2
9.816064,1954,-1,-12,-13,-2,5,3,5,1
9.816066,1955,-2,3,-2,-4,-6,-4,-3,4
9.837178,1956,5,9,16,-1,-7,0,-1,-4
9.837194,1957,-25,29,3,7,9,9,10,12
9.838362,1958,62,-49,-11,-7,-2,-7,-9,-9
9.838370,1959,-21,0,-12,-11,-28,-15,-12,-7
9.851374,1960,24,-20,-6,5,7,3,7,3
9.851395,1961,-2,-27,-12,-6,-1,-3,-3,-3
9.852194,1962,-8,24,13,1,2,0,0,3
9.852273,1963,-1,20,18,5,-1,1,0,-4
9.874660,1964,-17,8,-4,2,4,4,5,0
9.874681,1965,8,12,3,1,-4,-2,-2,-2
9.876587,1966,-19,2,7,-2,-2,0,-1,-2
9.876599,1967,9,-15,-10,0,10,0,-4,2
9.897077,1968,-3,11,0,-5,-11,6,3,6
9.897100,1969,1,-43,5,5,-1,-1,3,-1
9.897675,1970,-3,19,-3,-8,-21,-16,-8,2
9.897693,1971,-7,-5,-9,2,4,-1,-1,-4
9.911404,1972,11,11,16,0,8,-3,0,-1
9.911423,1973,1,-2,-8,-5,1,1,6,1
9.912137,1974,-19,11,10,6,5,3,-11,4
9.912147,1975,-20,-31,4,-1,-6,0,7,-1
9.934579,1976,31,-44,-35,-6,3,-2,-11,-1
9.934596,1977,-3,19,-2,-3,-3,0,1,-1
9.936209,1978,2,-6,9,4,7,6,5,-2
9.936220,1979,4,64,5,-9,-16,-11,-20,6
9.956998,1980,2,-1,4,0,0,-9,-3,-8
9.957014,1981,-3,-8,2,-1,-2,-5,-5,-5
9.957760,1982,-11,21,-17,0,8,5,11,2
9.957768,1983,30,-17,19,7,3,7,4,1
9.972089,1984,-25,-10,10,-1,8,2,2,-4
9.972103,1985,-10,9,-7,-4,-13,-6,-11,-3
9.972203,1986,-6,1,6,8,15,13,22,7
9.972209,1987,6,9,6,1,-3,-4,-10,-4
9.994568,1988,28,-13,-17,-15,-11,-16,-16,-2
9.994585,1989,-13,-31,-19,0,10,7,5,2
9.996351,1990,-1,28,17,-2,-4,-5,0,2
9.996364,1991,-19,-66,-26,-3,1,3,-1,-6
10.017416,1992,-18,6,-1,3,3,5,4,0
10.017446,1993,19,11,1,-1,1,1,-3,-1
10.019774,1994,6,5,10,0,-5,-1,-6,-2
10.019786,1995,-2,16,-1,3,2,3,13,3
10.031476,1996,-13,-24,-7,1,-8,2,-10,1
10.031498,1997,14,-3,1,-2,-7,-9,-15,-4
10.033205,1998,-9,-16,-18,-4,-1,-4,0,-3
10.033218,1999,32,-2,12,-2,0,-1,1,0
10.054574,2000,-14,-10,0,7,0,2,-6,5
10.054682,2001,-23,16,6,1,6,4,14,-3
10.055312,2002,-7,-21,-16,-2,-5,-5,-11,-8
10.055326,2003,2,18,12,1,-3,-1,3,7
10.077088,2004,-8,28,1,1,0,2,11,-2
10.077110,2005,-1,-39,-11,-1,3,1,-6,-1
10.078808,2006,6,-37,-15,-6,6,-11,-20,-6
10.078820,2007,4,18,-3,-4,-38,-4,10,5
10.091407,2008,-9,11,-4,-2,6,0,4,1
10.091432,2009,-2,3,19,1,2,0,-4,-2
10.093079,2010,3,18,2,2,4,3,12,0
10.093091,2011,-5,-10,-8,-2,12,3,-4,-9
10.116783,2012,-13,-21,2,-4,-3,-1,-4,-2
10.116796,2013,-20,19,8,2,-4,0,3,-2
10.116798,2014,22,-52,-7,-5,-6,-1,-7,-3
10.116799,2015,-29,22,-12,-3,6,0,-2,-4
10.137274,2016,20,32,30,6,-2,5,10,2
10.137307,2017,13,19,-28,-7,-6,-6,-7,-1
10.139352,2018,-13,21,26,1,-6,-2,0,2
10.139362,2019,12,-12,-6,-3,1,-5,-7,-4
10.151398,2020,-6,-14,-10,3,12,8,10,-1
10.151420,2021,12,16,-11,-4,0,-2,8,-1
10.153512,2022,-20,10,8,-5,-18,-10,-14,-4
10.153524,2023,-4,-14,-8,-1,5,1,4,-3
10.174777,2024,-1,13,1,-3,-4,-5,-7,0
10.174812,2025,-4,-23,1,1,0,1,-4,2
10.177001,2026,9,32,-4,-2,-1,2,5,0
10.177013,2027,-4,-19,0,0,16,-3,-10,-1
10.197188,2028,3,5,6,3,-11,3,1,1
10.197210,2029,10,-8,5,0,-12,-6,-2,0
10.197861,2030,-7,-24,-10,-1,1,3,2,-3
10.197881,2031,0,-8,12,0,0,-4,-7,-5
10.211342,2032,11,-6,-21,-1,-2,-6,6,1
10.211361,2033,-17,39,0,-2,3,1,-11,-5
10.212264,2034,-25,-54,10,4,1,1,-2,-2
10.212338,2035,25,47,1,-4,-4,-2,13,2
10.234624,2036,-13,6,10,1,6,7,-14,1
10.235447,2037,-15,-6,-12,0,-3,-1,4,0
10.235459,2038,1,-9,-4,0,4,3,5,-1
10.235461,2039,-23,-10,-2,-3,-7,-3,-3,0
10.257545,2040,2,8,-1,-3,-8,-8,-1,-3
10.257563,2041,1,10,7,0,4,2,-4,-2
10.257678,2042,-1,-2,-11,-4,-6,-3,6,1
10.257711,2043,9,-9,-4,0,1,-2,-10,-1
10.274353,2044,9,16,0,-3,-3,-5,3,2
10.274365,2045,-16,11,11,3,3,2,9,-2
10.274367,2046,41,-34,-16,-4,0,0,-8,-5
10.274368,2047,-1,-2,4,-1,-4,1,-1,4
10.294534,2048,-20,-7,-11,-4,5,0,11,2
10.294557,2049,35,-23,19,-3,-2,-6,-26,-1
10.296383,2050,0,41,2,5,-15,3,10,0
10.296394,2051,-21,10,8,4,5,-3,-2,-4
10.317111,2052,22,-7,-4,-3,-3,-1,-2,-5
10.317127,2053,1,-32,-18,-7,-8,-6,3,3
10.318342,2054,-12,26,12,-1,8,-2,-4,-3
10.318357,2055,-21,-2,-1,1,0,3,0,5
10.331498,2056,13,17,11,-3,1,4,-4,2
10.331529,2057,6,12,2,-1,-7,-7,-6,4
10.333194,2058,-4,-14,-5,-3,1,-2,-1,-4
10.333206,2059,10,23,-10,-2,-2,0,2,4
10.355171,2060,-19,-15,2,1,3,1,-2,0
10.355197,2061,8,-3,5,-1,7,3,8,-2
10.355755,2062,-9,-23,-17,-5,2,-5,3,-1
10.355762,2063,-4,-8,11,1,-5,-2,-3,2
10.377209,2064,1,2,-2,-7,-6,-8,-18,-12
10.377232,2065,13,-24,-7,-4,-7,-7,-7,-4
10.378196,2066,-12,21,5,2,2,4,6,4
10.378206,2067,-6,-32,-22,-2,3,5,2,-1
10.391525,2068,2,5,7,1,1,1,3,3
10.391542,2069,3,7,-7,2,0,3,3,1
10.393409,2070,1,33,7,0,3,-1,-3,2
10.393423,2071,20,-11,-10,-1,4,1,3,-2
10.414567,2072,-29,-44,-5,3,-5,-2,-3,-6
10.414581,2073,-21,-1,-9,-12,-13,-5,-7,-1
10.415396,2074,-14,4,1,-2,-4,-3,-1,1
10.415403,2075,-8,9,1,-2,-2,-3,-19,-1
10.437128,2076,-3,-12,-15,1,4,2,14,4
10.437151,2077,10,52,30,2,6,3,-1,1
10.438915,2078,-2,-29,6,0,-2,1,-2,-1
10.438929,2079,-1,10,3,-2,-3,0,5,0
10.450788,2080,-2,-2,-8,2,1,1,-2,2
10.450809,2081,-5,-17,-8,1,-1,-1,2,-3
10.458843,2082,11,15,-17,-5,-1,-4,-4,-6
10.458866,2083,-5,-19,15,2,-1,-2,1,0
10.474628,2084,-15,1,-8,-2,4,3,-2,-2
10.474651,2085,-30,37,0,7,19,14,14,4
10.476069,2086,16,-72,-11,-6,-7,-9,-23,-4
10.476100,2087,13,-8,-12,-11,-30,-14,-5,-7
10.497152,2088,13,20,7,-3,-2,-7,1,5
10.497178,2089,-3,1,-3,5,2,4,1,4
10.497979,2090,19,14,3,4,18,10,7,-3
10.499407,2091,-6,-8,-15,0,4,0,1,-6
10.510823,2092,10,25,38,-2,-2,-1,-5,-1
10.510844,2093,0,-29,-10,-1,2,0,5,-3
10.518986,2094,-17,22,-1,1,-6,-3,2,-3
10.519006,2095,0,-16,-12,-5,-2,-2,-1,1
10.534703,2096,-15,20,11,2,-1,-2,-1,-8
10.534722,2097,-2,-6,0,0,12,1,-1,0
10.536356,2098,2,1,-15,-5,-11,-2,6,2
10.536371,2099,-1,18,0,4,2,0,0,-4
10.557361,2100,2,-42,-4,-5,-14,-5,-1,-1
10.557517,2101,8,-37,-7,-4,4,-5,-18,-6
10.557947,2102,-2,20,-5,-2,-8,-10,-9,-3
10.557996,2103,13,19,1,2,10,2,2,6
10.572708,2104,1,9,-5,3,8,5,7,-1
10.572720,2105,-6,2,4,-4,-12,-3,3,-5
10.579019,2106,-8,0,4,3,7,8,2,2
10.579046,2107,-14,2,6,0,-1,1,1,-2
10.594710,2108,5,-2,-7,-4,-1,-4,-7,-3
10.596229,2109,0,4,4,1,-3,-2,1,3
10.596246,2110,-34,50,21,6,5,4,2,8
10.596247,2111,15,-88,-2,-5,2,0,4,-2
10.618484,2112,-3,-1,-12,-7,-7,-3,-15,-4
10.618503,2113,11,-13,-18,-7,-15,-12,-3,-4
10.618505,2114,0,9,5,0,-2,0,-4,1
10.618507,2115,6,48,-19,-3,2,-5,-2,-3
10.639544,2116,-22,-31,18,7,9,8,4,1
10.639562,2117,-10,1,4,4,-1,4,2,0
10.641196,2118,6,-22,-9,-6,1,-5,-4,-1
10.641216,2119,-14,21,10,3,0,4,0,3
10.654586,2120,11,-8,-14,-3,0,0,-2,0
10.654638,2121,-2,17,10,0,3,-1,-1,-2
10.655204,2122,5,-14,-11,-5,-13,-2,11,0
10.655212,2123,-23,29,21,6,13,10,-9,1
10.677372,2124,12,-33,2,-1,-14,-10,3,-4
10.678511,2125,2,-8,-18,-8,-10,-9,-2,-3
10.678525,2126,5,0,7,-2,-14,2,-3,0
10.678528,2127,-17,-5,0,2,1,1,0,3
10.691111,2128,-7,20,-7,1,10,4,2,3
10.691141,2129,-8,-9,0,3,1,4,-1,1
10.699024,2130,17,-6,4,-1,3,-1,-2,-1
10.699044,2131,7,4,-4,-2,-4,-1,1,-4
10.714785,2132,-3,11,-7,-1,-1,0,0,4
10.714823,2133,-3,-13,-12,-3,5,1,-1,-2
10.715372,2134,-17,-7,-3,0,13,6,9,-6
10.715395,2135,4,36,8,-4,-18,-11,-25,1
10.737054,2136,-4,-60,-1,-6,-11,-14,-1,-1
10.737072,2137,-15,14,2,5,-4,1,2,9
10.738138,2138,12,-26,-14,-5,5,-2,-13,1
10.738150,2139,-7,21,13,6,9,7,11,0
10.750821,2140,2,19,-9,0,4,7,5,-1
10.752058,2141,-2,1,10,0,1,1,-1,-6
10.759022,2142,-34,-2,3,-1,9,-3,-4,-3
10.760818,2143,-5,-22,-9,-4,-10,-5,3,3
10.774743,2144,-1,-1,-12,-6,1,0,-5,-3
10.774771,2145,0,-16,0,-3,1,2,1,-6
10.776683,2146,4,30,14,5,6,2,2,2
10.776709,2147,20,1,-9,-6,0,-2,-1,-3
10.797145,2148,3,-2,7,1,-1,-1,0,-2
10.797165,2149,12,-2,-2,0,-3,-3,-4,2
10.798662,2150,-1,-5,6,0,-7,-2,-5,-2
10.800055,2151,-17,-1,11,-2,1,-3,2,0
10.819552,2152,52,10,0,0,-4,-3,-3,-3
10.819571,2153,-37,-10,0,-5,-4,-6,-7,-7
10.821173,2154,-3,-6,-8,0,-5,-2,3,-1
10.821227,2155,1,-15,-2,-3,-3,-2,0,0
10.833395,2156,-27,24,-4,3,8,5,1,-3
10.833414,2157,7,-14,-13,3,3,0,4,-1
10.842940,2158,-12,-6,12,1,-4,-2,2,-2
10.842954,2159,-8,-16,1,-5,6,-6,-4,-2
10.857146,2160,51,-16,-14,-10,-21,-5,-7,-1
10.857172,2161,-16,6,4,-3,0,-1,4,-2
10.858636,2162,6,-19,-12,1,2,4,-14,2
10.858727,2163,17,11,8,4,9,3,8,-3
10.879550,2164,-39,16,-18,-3,-1,-6,1,-4
10.879577,2165,9,-32,13,-1,-4,-2,-2,0
10.881451,2166,36,33,1,-6,0,-8,-5,-5
10.881477,2167,-24,-34,-2,0,-12,1,0,-4
10.893196,2168,-17,17,-8,2,6,2,1,2
10.893216,2169,22,11,0,-2,-1,7,4,2
10.903983,2170,-11,17,11,6,2,-2,-4,1
10.903998,2171,14,-4,-21,-8,-12,-10,-10,-4
10.917190,2172,-25,11,21,-1,2,-1,1,0
10.917277,2173,12,3,3,2,4,1,0,-2
10.919181,2174,-16,-6,-8,-3,-1,-1,10,-5
10.919193,2175,0,0,3,1,1,3,-2,2
10.939759,2176,4,2,8,-1,1,-1,-7,-5
10.939789,2177,1,12,2,1,-3,-1,-3,-5
10.941769,2178,-8,-27,-1,-1,-8,-3,4,1
10.941788,2179,2,8,-6,0,1,-3,-6,-3
10.953874,2180,-9,-2,-3,1,0,1,4,1
10.953893,2181,-36,22,-6,-1,-2,1,1,-1
10.961096,2182,70,-39,-12,-6,-1,0,-6,-3
10.961118,2183,5,10,18,4,12,9,7,5
10.977257,2184,-27,-13,-3,-5,-9,-5,-3,-2
10.977275,2185,-9,21,-16,-11,-10,-12,-14,1
10.978630,2186,-14,20,-14,1,9,0,4,0
10.978674,2187,-6,3,-5,-1,-8,-1,3,1
10.999509,2188,43,-13,0,2,16,7,-6,-2
10.999554,2189,11,4,-1,-3,-6,0,2,3
11.001018,2190,-7,-1,-9,-1,-4,-7,6,0
11.001059,2191,31,-11,-10,-5,1,-2,1,-1
11.013805,2192,-24,23,23,4,5,5,0,1
11.013819,2193,23,1,-2,0,1,-3,-5,-1
11.020634,2194,-22,-3,-3,-4,-11,-8,-3,-3
11.020658,2195,0,5,0,-2,1,-3,0,2
11.037063,2196,-6,-12,-11,2,-4,0,2,0
11.037080,2197,-3,-10,-3,0,6,3,3,4
11.039445,2198,4,32,9,2,-3,2,2,-7
11.039457,2199,-2,-4,-13,-3,-4,-3,-3,-2
11.060802,2200,3,5,-1,1,0,0,-4,2
11.060869,2201,6,-15,9,-1,0,2,8,0
11.061089,2202,-11,13,-12,0,0,0,-12,-1
11.061109,2203,-29,-22,18,4,2,1,6,-1
11.074138,2204,20,-8,-15,-12,-8,-10,-4,-2
11.074165,2205,4,-6,-4,1,-2,-2,1,-2
11.088281,2206,-14,7,1,-5,-8,-4,0,-4
11.088298,2207,-4,-8,12,-3,3,-1,-5,-1
11.097081,2208,-25,10,-6,2,-2,-2,3,-4
11.097107,2209,-23,-36,11,4,-1,6,1,2
11.098638,2210,5,4,-10,-4,-2,0,-2,-1
11.098650,2211,-20,-10,8,2,4,4,-3,-3
11.120032,2212,26,38,-1,-1,2,0,-5,2
11.120061,2213,9,-30,-18,-6,-4,-4,-3,2
11.121464,2214,-19,-18,9,-3,-3,-1,2,1
11.121476,2215,-5,-1,-12,2,6,8,9,2
11.134320,2216,-9,22,10,1,-1,2,6,-1
11.134346,2217,13,-14,-6,-5,-8,-6,-12,-11
11.141001,2218,-8,-37,-2,1,3,1,-4,5
11.141019,2219,-18,7,9,0,-6,-1,4,1
11.157036,2220,-2,3,-12,0,7,3,3,4
11.157056,2221,6,21,19,5,2,3,4,3
11.158763,2222,-13,-17,-7,-4,-11,-6,-8,-1
11.158782,2223,14,14,0,-1,-2,-3,-7,-2
11.179526,2224,-8,-20,-3,-1,-3,-3,5,-4
11.179547,2225,-10,18,-5,-2,8,1,-14,2
11.181014,2226,12,22,-1,2,5,6,17,4
11.181067,2227,-23,-19,-9,-2,-2,3,2,-3
11.193849,2228,-29,-30,3,0,8,1,-11,2
11.193867,2229,4,19,-9,-8,-22,-14,-1,-5
11.200734,2230,18,27,-1,2,5,2,0,1
11.200753,2231,4,17,-11,-1,-2,-4,-1,1
11.217107,2232,-3,-30,-1,5,2,6,6,-2
11.217124,2233,21,-16,-8,-4,1,2,-2,2
11.218604,2234,-24,15,9,-2,-4,-2,-6,-2
11.218623,2235,14,-21,-12,-6,-4,-5,-7,-8
11.239651,2236,-6,-5,3,-2,-1,-1,-1,-3
11.239678,2237,-18,2,8,3,3,1,2,0
11.241253,2238,6,-25,-5,0,8,4,1,-7
11.241270,2239,-6,31,0,0,-5,-3,-4,-3
11.253852,2240,21,-5,14,-7,-15,-10,-12,2
11.253871,2241,-6,-6,-14,-1,2,2,1,-5
11.261388,2242,12,2,6,2,6,6,3,2
11.263239,2243,-1,-31,-15,3,5,4,2,-1
11.278007,2244,11,7,9,-3,-15,-10,-14,-4
11.278018,2245,5,51,21,6,3,1,17,-5
11.278464,2246,-27,-78,-10,-8,-5,-8,-21,-2
11.278480,2247,-4,11,2,0,3,-1,1,-2
11.299743,2248,5,8,-7,-2,-1,-1,3,0
11.301094,2249,0,16,2,0,6,2,-6,-2
11.301166,2250,-4,-4,1,0,0,2,1,-1
11.301237,2251,17,6,1,-2,-10,-4,6,-2
11.313175,2252,-7,39,0,3,6,5,-2,11
11.313192,2253,-29,-40,2,1,1,0,6,-6
11.324102,2254,31,19,0,-5,-1,-5,-2,-2
11.324117,2255,30,-37,-19,-6,-2,-3,-4,1
11.337115,2256,-20,10,-7,1,10,9,7,-1
11.337134,2257,2,12,10,2,-4,-3,2,-3
11.338846,2258,2,16,18,0,-9,-7,-8,1
11.338860,2259,-27,-3,-2,0,1,-1,-3,0
11.359571,2260,13,-3,-11,-2,-2,-1,0,-5
11.359589,2261,-5,-4,-8,-2,1,1,-5,1
11.361886,2262,1,-6,18,4,-2,-2,8,-1
11.361898,2263,-13,32,5,1,-1,1,-22,1
11.373188,2264,-11,-7,-4,1,4,-1,9,-5
11.373206,2265,12,-33,-15,-12,-12,-8,-14,-2
11.382430,2266,-7,-11,-14,-2,-4,0,5,3
11.382442,2267,9,12,1,0,1,1,3,-5
11.397070,2268,-6,18,7,0,1,1,2,-2
11.397088,2269,-3,1,-9,1,2,2,0,1
11.398565,2270,-1,20,31,1,-3,1,0,2
11.398617,2271,1,-19,-14,-4,1,-1,-6,-2
11.419670,2272,-2,-14,2,-2,-3,-4,-5,-1
11.419699,2273,1,-2,-5,1,-1,-2,6,1
11.421205,2274,2,16,7,-3,2,-3,-4,-6
11.421223,2275,-6,8,3,-3,11,-2,3,-3
11.433820,2276,2,-20,-2,-1,-24,0,5,8
11.433833,2277,2,0,-5,-5,-1,-4,-10,-6
11.442662,2278,-17,-5,-13,2,2,3,11,3
11.442674,2279,23,-8,3,1,-1,2,-19,-3
11.457064,2280,16,-6,3,-3,7,-2,11,-9
11.457082,2281,-15,6,0,-3,-3,-3,-3,8
11.458616,2282,-19,-21,-16,1,-9,0,-5,-2
11.458640,2283,-23,4,8,-4,-7,-2,7,5
11.480544,2284,0,-7,-9,-3,5,2,-6,-8
11.480556,2285,27,-1,9,4,-2,1,1,2
11.481047,2286,1,44,6,1,9,4,8,-2
11.481105,2287,10,18,2,0,-11,-10,-1,-1
11.493127,2288,-15,-36,-6,-6,-9,-6,-10,-2
11.493144,2289,-4,18,2,-2,5,-1,1,-4
11.502682,2290,-1,10,-4,1,2,3,1,4
11.502695,2291,-19,-10,-7,3,1,4,9,0
11.517641,2292,14,13,11,-1,1,-4,-5,-1
11.517672,2293,-6,9,1,1,-2,0,-11,3
11.519424,2294,0,-4,-1,-2,1,-3,-3,-6
11.519435,2295,23,-4,-3,-3,-14,-6,-1,-3
11.539663,2296,-13,-8,-3,1,11,1,-5,-3
11.539687,2297,-23,12,-7,-5,-12,-1,5,1
11.540997,2298,14,9,-6,-2,1,0,-3,1
11.541066,2299,15,-14,9,-4,1,1,0,-1
11.553301,2300,-31,4,2,1,-8,-2,-1,4
11.553364,2301,13,10,12,6,8,1,7,-1
11.562462,2302,-19,-16,-22,-5,-2,0,-1,4
11.562475,2303,2,-7,12,-1,-4,-4,-2,-6
11.577405,2304,11,-7,-10,-1,8,2,0,2
11.577428,2305,-26,-14,2,1,5,5,8,-2
11.579102,2306,5,36,-15,-2,6,6,10,-1
11.579115,2307,-6,-30,47,7,-1,-1,-9,-3
11.599632,2308,-1,19,-14,-11,-18,-16,-8,-2
11.599652,2309,-5,-13,0,0,1,-2,-5,4
11.601382,2310,-13,25,0,1,1,2,3,-2
11.601396,2311,22,-22,-22,-3,8,4,3,5
11.613428,2312,-11,15,12,6,4,9,-5,1
11.613452,2313,16,-21,-10,-4,-4,-4,-2,0
11.622766,2314,12,-24,7,2,2,0,-5,0
11.622778,2315,-29,29,-14,1,7,3,8,-2
11.637100,2316,12,11,15,-2,-17,-8,-4,-1
11.637151,2317,-12,-21,-4,-3,1,-6,-7,-9
11.638741,2318,21,-20,1,-3,-5,-5,-8,-5
11.638760,2319,-20,-7,-6,3,3,5,9,1
11.659575,2320,-5,-10,-8,1,3,2,-9,-2
11.659593,2321,10,61,2,-1,-1,1,12,-3
11.661114,2322,-1,-44,-7,-5,-6,-5,-8,-2
11.661134,2323,-7,6,-5,1,0,0,0,2
11.673675,2324,-28,11,2,2,9,6,11,5
11.673693,2325,97,-37,2,-6,-7,-4,-11,-4
11.682254,2326,-4,0,-10,-1,-8,-4,-13,-5
11.682290,2327,9,10,-14,-7,-4,-5,2,1
11.697797,2328,-10,-2,-5,-3,1,-8,-2,-3
11.697813,2329,-18,21,13,5,4,3,0,3
11.698702,2330,-8,-3,1,1,1,5,0,-6
11.698724,2331,9,-30,-10,-3,-6,-5,-2,-1
11.719546,2332,5,30,-1,-2,-1,-3,2,-7
11.719573,2333,-49,3,2,2,4,4,-10,7
11.721153,2334,26,-4,-6,-6,-9,-11,-4,1
11.721243,2335,-20,23,14,1,1,0,0,1
11.742013,2336,18,-5,4,3,11,9,13,-1
11.742032,2337,-32,-48,-14,-2,-1,0,-3,-9
11.743639,2338,-26,32,13,2,3,3,4,7
11.743659,2339,9,-31,-9,-8,-13,-7,-10,-7
11.757053,2340,10,-13,-11,-6,0,-3,-4,-1
11.757071,2341,-23,17,4,2,-10,-1,0,-6
11.758608,2342,10,3,9,5,5,3,4,8
11.758626,2343,31,17,4,1,2,2,-2,-2
11.780033,2344,4,-12,1,-1,-5,-4,-5,-6
11.780065,2345,-4,3,-3,-1,2,2,-3,1
11.782005,2346,-7,1,-1,-1,4,0,-1,2
11.782016,2347,-49,0,2,0,-10,-3,-1,-11
11.802146,2348,23,-8,-6,-4,-11,-11,-2,2
11.802182,2349,-4,4,-8,0,3,1,7,0
11.804375,2350,24,-4,2,-3,-3,-4,-25,1
11.804390,2351,-33,15,0,3,12,6,15,1
11.817432,2352,-10,-13,1,4,8,8,2,2
11.817473,2353,27,-4,-4,-3,1,-5,-1,4
11.818817,2354,-6,4,-3,1,-11,-1,1,0
11.818828,2355,-12,20,7,-1,-1,0,-1,4
11.839467,2356,23,-29,-7,-1,-3,-1,-6,-3
11.839481,2357,-6,12,-4,-5,-1,-3,-1,-4
11.841027,2358,-18,-19,0,-1,6,0,7,-3
11.841041,2359,16,5,11,0,-3,0,-3,0
11.862521,2360,-26,5,-5,-1,-5,-1,1,-3
11.863601,2361,43,-21,-6,-3,3,1,-2,-3
11.863613,2362,-27,-2,-10,-4,-4,-3,4,0
11.863731,2363,-9,-1,9,4,2,0,-5,0
11.876427,2364,-4,1,-2,-3,2,-1,1,0
11.876493,2365,-7,16,10,6,-4,-1,0,5
11.883221,2366,33,-30,-11,-6,-16,-6,-4,-13
11.883240,2367,14,-12,-9,-4,3,-2,-4,2
11.900908,2368,-10,8,6,3,6,4,9,-2
11.900923,2369,0,-7,-2,1,11,3,-3,0
11.901129,2370,-10,-3,4,-3,-19,-8,-6,-4
11.901144,2371,-1,-18,-15,-1,11,-2,-3,-2
11.921959,2372,0,-8,11,1,-5,0,-5,1
11.921977,2373,-10,5,-1,4,9,4,10,2
11.928615,2374,2,8,4,-4,4,0,1,-1
11.928649,2375,-23,-23,-35,-1,-2,2,-1,2
11.936468,2376,31,18,48,3,2,-4,-6,6
11.936497,2377,-17,-24,-15,-10,-13,-8,-6,-6
11.943533,2378,8,-6,-9,2,9,4,6,-1
11.944583,2379,2,6,-5,-5,-8,-4,5,-5
11.959890,2380,-16,11,-12,1,2,-6,-8,-3
11.959909,2381,-3,1,3,0,-8,-4,-2,-4
11.961104,2382,-17,-14,1,0,1,3,-3,-2
11.961212,2383,13,15,2,1,-7,0,9,6
11.982101,2384,4,-14,-19,-13,-16,-3,-6,-4
11.982122,2385,-2,13,5,10,8,-3,0,3
11.984160,2386,6,4,5,3,19,6,9,5
11.984171,2387,4,-2,2,-5,-10,-5,-10,-3
11.996626,2388,-2,3,-2,0,3,5,13,-1
11.996761,2389,-45,-50,-11,-11,-13,-10,-16,-11
12.003505,2390,24,18,8,4,5,-1,5,3
12.003523,2391,-16,-9,-5,0,2,-1,-3,-10
12.019597,2392,10,-6,-10,-6,-2,1,-1,4
12.019649,2393,18,35,11,3,6,8,8,3
12.021156,2394,5,-42,-16,-8,-4,-8,-19,-9
12.021164,2395,36,37,15,0,-3,-3,1,-3
12.042076,2396,-11,-12,-8,4,3,2,-14,1
12.042091,2397,16,32,20,-1,1,2,13,4
12.043742,2398,-33,39,11,-1,-3,-3,0,-4
12.043769,2399,25,-39,-19,-6,-5,-7,-15,-5
12.056408,2400,-11,1,-4,0,1,-1,7,-1
12.056459,2401,-13,5,-3,-2,1,1,1,-1
12.063656,2402,-26,27,6,3,-1,2,1,4
12.063739,2403,53,-5,1,-7,-5,-4,-12,-1
12.079520,2404,-18,-21,-2,-1,0,-7,4,-4
12.079540,2405,-8,-5,1,1,-8,-1,-2,5
12.081044,2406,2,3,-7,-4,0,-3,-5,0
12.081060,2407,-17,11,5,6,9,5,3,1
12.102120,2408,16,-5,2,0,2,-1,2,0
12.102141,2409,5,1,-10,-4,-1,-2,2,-4
12.103844,2410,-21,-23,4,0,-5,-8,-21,-7
12.103943,2411,2,-3,-7,-6,-5,-5,6,-3
12.116942,2412,-1,6,-8,2,1,2,1,2
12.116979,2413,-31,7,18,5,6,7,10,-1
12.123178,2414,38,-3,-7,-2,-4,2,4,-1
12.123196,2415,-22,-15,0,-1,-3,0,-3,3
12.140284,2416,-15,1,7,3,1,6,-1,3
12.141860,2417,46,-15,-21,-12,-3,-11,-18,-1
12.141869,2418,-16,-18,-3,2,-1,2,5,0
12.141871,2419,1,16,0,-1,-1,2,0,-5
12.162755,2420,5,29,13,1,0,-1,1,-1
12.162792,2421,6,-27,-11,-3,-10,-5,-8,-6
12.164570,2422,-3,19,2,-4,3,0,-1,4
12.164581,2423,-32,1,0,5,-11,5,7,7
12.177082,2424,-2,6,-3,-4,3,3,1,-5
12.177119,2425,-1,11,10,4,3,4,-1,0
12.183373,2426,1,0,-3,1,-1,1,9,-1
12.183389,2427,-6,-12,9,1,9,1,-6,-2
12.198671,2428,-6,-19,-5,2,-9,-12,-2,-4
12.198689,2429,-3,1,2,-5,-11,-6,0,2
12.207989,2430,25,0,-13,-8,6,-2,-8,-6
12.208002,2431,-12,9,4,0,4,5,5,4
12.222061,2432,9,-7,-5,-1,4,4,-2,1
12.222083,2433,-33,5,15,7,7,4,2,-2
12.223655,2434,-5,-9,2,2,10,-3,6,1
12.223667,2435,-25,39,0,-1,-24,0,-3,3
12.235773,2436,11,-30,-13,-6,-5,-4,-7,-3
12.235790,2437,37,-21,-25,-7,-6,-6,-6,0
12.244693,2438,-15,25,-27,3,1,6,12,1
12.244711,2439,-8,-10,83,10,8,3,0,4
12.259916,2440,24,-18,-19,-10,-10,-13,-12,2
12.259927,2441,-32,7,-2,-4,-4,-1,-4,-12
12.261151,2442,-3,-28,-16,-4,-8,-2,-4,4
12.261171,2443,-13,6,-21,0,7,3,10,3
12.282121,2444,-3,17,12,4,15,7,13,-4
12.282146,2445,12,-25,-5,1,1,2,-18,3
12.283610,2446,-4,7,9,0,-13,-6,5,-3
12.283631,2447,-2,-10,-12,-4,-5,-8,-4,-7
12.295840,2448,-6,-11,4,-5,1,-2,-4,1
12.295865,2449,1,8,-6,4,7,7,8,3
12.305694,2450,-35,19,17,4,9,6,-2,-4
12.305716,2451,40,15,-4,-8,-14,-18,-7,-3
12.319560,2452,-16,-69,-20,-5,-4,-1,-10,-6
12.319596,2453,-8,17,2,0,-1,0,5,4
12.321944,2454,-8,12,13,1,4,6,9,4
12.321957,2455,-14,19,-3,5,12,10,6,0
12.342429,2456,33,43,7,0,-7,-11,-3,-1
12.342466,2457,16,-17,-7,-9,-8,-8,-8,-4
12.344859,2458,2,-7,7,1,3,1,-4,-3
12.344871,2459,-14,1,-13,-1,-2,-3,1,0
12.355786,2460,-9,28,8,1,-3,0,4,3
12.355826,2461,-31,-12,0,-1,0,1,0,-5
12.366243,2462,30,-24,-5,-6,-6,-8,-7,-2
12.366255,2463,-4,-11,-7,0,9,4,-3,-3
12.379955,2464,-10,6,0,0,6,3,1,-7
12.379993,2465,-10,16,6,4,-11,1,4,4
12.381871,2466,41,-3,-9,-8,-6,-2,-3,1
12.381883,2467,15,-22,-8,-1,4,-1,-5,-1
12.402083,2468,-14,-3,14,1,-4,-3,-5,-6
12.402138,2469,-1,10,-7,-2,10,3,9,2
12.403616,2470,-55,21,8,4,-6,-4,6,-2
12.403639,2471,46,-42,-16,-9,-3,-6,-19,-8
12.415646,2472,7,12,-2,-4,-10,-8,-6,1
12.415663,2473,-2,26,8,3,7,4,10,0
12.425107,2474,40,-36,-10,0,2,3,-4,-8
12.425118,2475,-16,13,2,2,3,1,11,7
12.440150,2476,-8,7,5,9,6,9,-10,-2
12.440171,2477,10,1,-6,-4,-3,-7,1,-5
12.441511,2478,-6,23,12,1,-5,-1,-6,6
12.441525,2479,-4,-4,-10,-3,-4,-7,-6,-6
12.462097,2480,0,11,-3,0,1,2,4,1
12.462119,2481,-14,10,-3,-1,0,1,2,3
12.463504,2482,9,-24,4,-1,-1,-4,-5,1
12.463522,2483,-2,-24,-8,-5,9,1,-2,0
12.484563,2484,-21,5,-5,-2,-17,1,6,5
12.484582,2485,6,-1,-2,2,1,1,-4,2
12.486059,2486,3,13,-3,-1,0,-2,1,-5
12.486073,2487,-11,2,4,0,-4,0,-1,-1
12.499567,2488,11,14,-4,-5,2,-1,1,-3
12.499617,2489,5,-39,-5,3,11,10,9,1
12.501081,2490,-11,-12,-6,-3,-6,-2,-5,-6
12.501115,2491,-4,24,2,-4,-11,-12,-25,2
12.523653,2492,-9,-2,2,-2,-14,-8,8,0
12.523672,2493,-1,0,-3,1,1,-2,-2,-3
12.523724,2494,-12,9,2,0,7,6,2,5
12.523823,2495,-10,21,-2,4,13,13,15,3
12.535911,2496,-6,3,0,0,-4,-5,-3,-1
12.535951,2497,4,0,9,-10,-14,-14,-17,-6
12.545737,2498,-21,-50,-6,3,-1,0,1,3
12.545750,2499,-4,-3,1,-2,-4,1,0,0
12.559584,2500,-6,4,-3,0,8,4,2,-1
12.559655,2501,21,-4,10,2,-1,-2,1,-7
12.561044,2502,1,30,2,-3,-4,-3,-6,2
12.561058,2503,-6,-13,-14,-2,-5,-4,-1,-7
12.582109,2504,5,-2,4,0,5,2,3,4
12.582125,2505,-4,2,-1,-1,-1,1,-4,3
12.583787,2506,2,25,20,2,0,-2,1,1
12.583805,2507,15,-42,-6,-5,-3,-1,-1,-3
12.596119,2508,13,17,-7,-5,-1,-1,-2,0
12.596154,2509,-14,-24,-3,0,-3,0,-2,0
12.605301,2510,-5,21,-10,-3,0,-1,2,-7
12.605320,2511,-20,15,1,1,1,-2,-9,0
12.619712,2512,26,-12,13,-2,4,0,-10,-2
12.619735,2513,20,-17,-11,-10,-16,-16,-12,-7
12.621370,2514,-23,10,5,0,5,5,9,5
12.621392,2515,-13,-32,3,4,-3,2,7,5
12.642168,2516,13,9,-6,-2,-1,-1,-1,0
12.642189,2517,-10,21,-8,2,9,6,4,2
12.643797,2518,24,-33,-5,-2,-4,0,-3,-2
12.643814,2519,-1,43,-4,-5,-3,-3,2,-3
12.664536,2520,-12,-19,-2,0,5,0,3,1
12.664583,2521,1,-12,3,-1,0,2,4,-4
12.666121,2522,36,-5,-9,-5,-8,-11,-15,-6
12.666156,2523,-24,10,8,0,0,1,3,-1
12.679955,2524,-2,-12,-8,-3,-3,0,-1,-2
12.679972,2525,-23,25,10,0,1,-2,-4,0
12.685773,2526,-2,0,1,2,2,1,3,2
12.685802,2527,0,3,3,-1,0,0,-1,-3
12.702005,2528,38,-5,-8,-3,-7,-5,-1,-3
12.702023,2529,1,-4,-2,1,-2,-2,-3,4
12.703555,2530,-14,6,-2,-2,-1,-2,-2,-5
12.703639,2531,8,-2,2,2,-1,-3,4,-1
12.724591,2532,-34,-3,3,5,5,6,7,1
12.724612,2533,-14,23,-3,0,7,5,6,-2
12.726150,2534,2,-50,-17,6,-2,-4,-4,-4
12.726179,2535,9,15,5,-12,-11,-7,-8,-3
12.739680,2536,-19,-9,-4,1,8,7,6,8
12.739705,2537,6,-15,-5,-2,-7,-5,3,0
12.741164,2538,-11,16,3,-3,-4,-5,-8,1
12.741177,2539,-1,15,8,9,8,8,13,5
12.763124,2540,16,-40,-9,-6,-1,-3,-7,-11
12.763255,2541,-5,-18,-8,-3,-5,-4,-7,1
12.764478,2542,-15,8,0,-1,0,5,6,-1
12.764499,2543,2,-23,-5,-1,-4,-6,-3,-4
12.785212,2544,-22,16,7,1,3,0,-1,-2
12.785247,2545,-5,-6,-1,3,3,4,-1,2
12.787047,2546,4,9,7,-2,-2,-1,-3,2
12.787059,2547,9,-4,-8,-2,-1,0,1,-1
12.799197,2548,19,13,6,5,-1,-6,0,-2
12.799216,2549,-6,9,12,1,3,5,-3,-3
12.805662,2550,-25,-27,-8,0,5,5,6,2
12.805680,2551,25,22,7,-9,-16,-13,-12,-7
12.822074,2552,-14,-14,-10,-4,-4,-7,-10,-2
12.822166,2553,-3,8,-1,-1,0,-3,1,2
12.823611,2554,0,3,5,2,10,6,13,2
12.823631,2555,-55,-12,4,10,9,12,4,2
12.844587,2556,29,-6,-9,-11,-20,-13,-10,-4
12.844613,2557,-1,1,4,-2,-4,-4,-2,0
12.846251,2558,1,-2,-1,-1,1,0,-2,3
12.846266,2559,8,-19,-1,3,1,4,0,4
12.858914,2560,-20,23,4,-2,3,1,4,0
12.858932,2561,9,-8,-3,-2,2,0,0,-1
12.865785,2562,12,-3,-4,-6,-9,-6,-5,-4
12.865804,2563,6,7,1,-3,-4,-2,0,0
12.882076,2564,-25,-19,-19,-1,2,2,3,-2
12.882096,2565,7,-15,12,3,0,-3,0,-4
12.883817,2566,-11,15,-2,-4,-2,-4,-8,-3
12.883902,2567,-2,16,9,3,3,2,12,4
12.904508,2568,49,-29,0,2,2,5,0,3
12.904526,2569,-7,-18,-18,1,4,2,-1,-7
12.906715,2570,-8,25,10,-9,-20,-15,-21,-2
12.906727,2571,7,16,-5,-5,-1,-2,7,0
12.918827,2572,-12,10,3,5,1,3,2,3
12.918846,2573,3,-1,-6,0,1,1,4,0
12.925879,2574,-11,-15,-2,2,6,2,2,-5
12.925902,2575,0,5,-2,0,0,0,-4,0
12.942038,2576,-24,5,7,1,1,1,2,-2
12.942056,2577,3,0,-4,-5,-6,-5,-7,-3
12.943494,2578,5,1,-2,-1,-1,1,1,4
12.943558,2579,-1,-6,-3,0,-2,-2,-4,0
12.964452,2580,-8,-2,-2,2,3,0,1,-6
12.964466,2581,-13,20,-5,-3,-1,-2,-2,6
12.966154,2582,-3,14,-49,-5,2,-2,5,-4
12.966178,2583,8,-47,76,11,6,4,-1,5
12.979551,2584,40,-11,-13,-10,-17,-12,-15,-6
12.979568,2585,-11,18,-6,-1,0,1,5,7
12.986104,2586,-36,-21,-7,5,4,7,6,-9
12.986136,2587,24,-1,-44,-7,6,-1,-1,0
13.002060,2588,-36,36,12,-1,3,2,-3,1
13.002079,2589,19,6,8,-3,-6,-6,-1,-3
13.003454,2590,7,1,6,0,2,2,-18,0
13.003494,2591,6,7,-13,-3,-3,-5,0,-3
13.024627,2592,1,-4,25,5,3,0,3,1
13.024648,2593,-10,-3,-12,-2,-4,-2,0,0
13.026293,2594,11,-3,1,2,1,0,3,1
13.026312,2595,-22,26,27,4,4,4,3,-3
13.039364,2596,-3,-46,-19,-14,-16,-8,-13,-3
13.041142,2597,1,-16,-3,-4,-2,-1,-1,-2
13.045997,2598,8,7,12,3,1,2,4,2
13.046024,2599,-12,-15,-19,-1,4,0,-7,-2
13.062039,2600,-22,24,4,5,9,2,11,-1
13.062097,2601,-14,15,12,0,-13,-6,-4,1
13.063700,2602,64,-17,-5,-7,-7,-5,1,3
13.064652,2603,10,-6,-7,-2,-5,-3,-3,-7
13.085515,2604,-59,-2,-7,4,7,4,0,1
13.086777,2605,6,17,3,2,5,4,1,7
13.086789,2606,-31,-12,-9,0,-2,-2,-3,-4
13.086791,2607,9,-17,-7,-5,-1,-4,-3,0
13.098927,2608,45,20,9,2,3,5,0,3
13.098947,2609,43,-10,-16,-5,-1,0,-3,-2
13.105708,2610,-32,0,12,1,-3,1,7,-1
13.105726,2611,36,17,-8,-4,-12,-7,-4,-7
13.122065,2612,-6,-14,4,2,3,2,-8,3
13.122081,2613,-9,16,-1,1,3,1,14,-8
13.123604,2614,20,-7,7,-3,-6,-10,-11,-5
13.123620,2615,-16,14,-9,-4,-9,-3,0,-4
13.144464,2616,2,-5,-3,3,3,0,-2,2
13.144481,2617,-3,1,7,1,5,5,1,-1
13.146157,2618,-7,-11,5,1,6,7,7,2
13.146184,2619,11,-1,-3,-1,0,0,-2,-2
13.158854,2620,-6,24,-9,-4,0,-3,4,-3
13.158873,2621,-18,-3,-4,0,0,-1,-5,0
13.165788,2622,-28,-49,0,-1,-5,-2,-3,-1
13.165809,2623,22,15,1,0,-1,-5,-7,1
13.182132,2624,-9,-3,45,2,1,1,4,3
13.182160,2625,-14,-22,-15,-3,-2,0,-2,-2
13.184030,2626,23,87,10,1,2,-2,13,1
13.184054,2627,-24,-110,-40,-6,-6,-1,-28,-8
13.204593,2628,-6,-9,-14,-3,-2,0,7,4
13.204612,2629,3,22,19,6,4,1,-4,1
13.206305,2630,6,-13,-15,-1,-8,-4,6,4
13.206323,2631,1,32,13,0,2,4,18,-2
13.218187,2632,9,-2,-3,-2,-9,-6,-11,-5
13.218234,2633,-27,-17,-4,-2,1,-2,-2,-2
13.228277,2634,13,16,2,0,5,-1,-5,-4
13.228289,2635,-14,4,0,2,-2,1,4,4
13.242199,2636,-3,2,-4,0,0,1,0,-6
13.242217,2637,-10,-12,1,1,2,1,4,-1
13.243739,2638,25,10,0,-5,-3,0,-6,3
13.243824,2639,-32,-18,3,2,3,0,3,7
13.264540,2640,2,12,-13,-2,-4,1,-8,-3
13.264555,2641,-13,-14,-3,-2,-7,-8,-10,-7
13.265982,2642,-7,-2,9,-1,1,-2,-1,-1
13.265997,2643,-14,5,-1,0,0,-1,1,-2
13.279672,2644,8,27,-9,-3,3,0,7,-3
13.279684,2645,4,-5,11,3,5,1,0,0
13.287899,2646,-18,1,4,-1,-14,-6,-9,-2
13.287911,2647,20,-20,-2,-3,0,-1,1,3
13.301994,2648,-32,5,-1,1,0,0,5,-3
13.302012,2649,17,1,0,-6,-4,0,-7,-1
13.303629,2650,-16,5,-6,-1,3,0,2,4
13.303678,2651,-8,15,-1,0,3,2,-1,-1
13.326840,2652,14,-13,1,-4,-4,-2,0,-5
13.326852,2653,6,0,-5,-3,-4,-3,-2,-2
13.326855,2654,5,-14,0,0,2,0,-2,-3
13.326856,2655,-7,11,0,-1,-2,-1,1,2
13.338530,2656,1,-5,0,-1,4,2,-1,-3
13.338549,2657,4,-3,-10,0,-2,-5,-2,-3
13.353507,2658,5,8,-6,2,5,6,11,1
13.353542,2659,39,-11,9,-1,-1,0,-7,-2
13.362087,2660,-36,-1,-15,-12,-21,-19,-15,-5
13.362105,2661,18,14,6,-3,-10,-6,-7,0
13.363836,2662,11,0,-31,-3,1,2,-11,1
13.363857,2663,-45,34,63,8,5,4,13,-4
13.384521,2664,28,-25,-11,-5,2,2,-2,4
13.384545,2665,-4,-5,-12,0,-1,0,2,0
13.386221,2666,-15,84,13,4,4,3,7,1
13.386339,2667,-51,-83,-38,-8,-10,-2,-10,-5
13.398765,2668,14,2,-2,0,-1,-1,-6,2
13.398798,2669,-22,21,15,0,1,1,5,1
13.407486,2670,48,-23,-19,-7,0,-2,0,-3
13.407497,2671,38,22,-9,-3,-2,-6,-11,-2
13.422138,2672,12,-6,15,4,-1,0,5,-3
13.422172,2673,-5,-26,-22,-2,3,0,-2,-1
13.423557,2674,-22,-10,15,3,10,8,10,-2
13.423575,2675,9,6,-11,-2,-7,-3,0,-1
13.444549,2676,-2,-14,2,-1,-15,-13,-12,-1
13.444567,2677,-4,18,6,1,11,4,3,1
13.446778,2678,-23,-25,9,2,-13,-9,1,1
13.446790,2679,20,37,-3,-6,0,-3,-1,-3
13.458641,2680,-51,-30,-14,2,9,6,1,1
13.458678,2681,9,-6,8,0,0,3,2,5
13.469171,2682,-7,-23,6,1,2,0,-5,-4
13.469189,2683,-26,-23,-22,1,0,-2,1,3
13.482394,2684,-8,62,12,4,3,1,15,-6
13.482407,2685,34,-33,11,2,1,4,-12,5
13.483453,2686,-16,-28,-19,-12,-9,-11,-15,-3
13.483474,2687,10,18,6,2,0,-3,2,-4
13.504540,2688,-10,-13,-20,-2,3,3,3,9
13.504559,2689,-28,3,0,3,-2,2,6,-2
13.506084,2690,7,19,1,-3,-1,1,-1,-1
13.506100,2691,-9,3,-1,3,-1,0,0,3
13.518187,2692,27,-3,7,2,5,1,1,-1
13.518206,2693,-11,7,-33,0,20,14,4,-8
13.527922,2694,-20,46,74,5,-19,-14,-7,-1
13.527941,2695,63,-38,3,-21,-32,-27,-21,-14
13.544022,2696,-14,14,-2,-2,-2,-4,-5,1
13.544034,2697,-16,-21,2,-2,-4,-4,-3,-4
13.544036,2698,-4,15,-22,4,18,14,13,2
13.544038,2699,-16,11,2,8,13,13,8,5
13.564572,2700,22,-5,12,-1,-5,-2,-4,-4
13.564644,2701,7,8,-8,-3,-5,-5,-2,2
13.566218,2702,-5,-24,-5,2,2,2,0,3
13.566232,2703,-7,21,3,1,-1,-3,2,2
13.578415,2704,5,-24,-17,-5,-2,1,-1,-4
13.578533,2705,-9,10,-5,-1,1,0,3,-3
13.595616,2706,-16,22,24,7,9,0,5,0
13.595627,2707,44,-37,-15,-12,-18,-12,-14,-18
13.602237,2708,-34,36,-3,-4,-5,-7,-11,-5
13.602258,2709,62,-22,-1,-6,-11,-9,-10,-6
13.603882,2710,-14,-14,-19,-6,2,2,-1,1
13.603896,2711,-20,43,2,7,15,12,13,8
13.625037,2712,2,-4,10,6,3,5,8,3
13.625068,2713,-7,2,2,-4,-9,-6,-3,-2
13.626693,2714,12,-6,-7,-6,-6,-3,-5,-5
13.626705,2715,-17,-1,-3,4,9,4,14,4
13.647261,2716,6,0,-1,-2,-1,-3,-19,-4
13.647285,2717,-15,-6,7,-2,-4,-6,4,2
13.648942,2718,15,-17,-5,-3,-5,-3,-4,-1
13.648955,2719,-30,17,14,3,3,3,2,1
13.662214,2720,3,-14,-7,-1,-1,0,2,0
13.662231,2721,14,7,7,1,1,-2,-3,0
13.663712,2722,-37,-4,-5,2,7,7,1,0
13.663788,2723,71,-11,-10,-9,-9,-9,-7,-4
13.684523,2724,-45,-2,8,4,7,4,9,2
13.684540,2725,69,-43,-24,-6,-13,-12,-24,-10
13.686114,2726,-19,-14,14,-5,-17,-12,4,-1
13.686130,2727,-47,57,-10,5,13,8,-7,4
13.707138,2728,38,-27,17,-2,-4,2,5,3
13.707157,2729,-22,-4,-5,-5,-7,-7,-5,-6
13.708782,2730,9,-5,-7,0,4,2,-2,-3
13.708879,2731,-13,-27,-31,-2,1,2,3,8
13.722047,2732,6,21,4,1,3,3,7,-3
13.722066,2733,-28,17,11,2,1,1,4,1
13.723801,2734,19,-19,-23,-6,-3,-1,-6,-1
13.723891,2735,-20,21,15,0,1,1,2,0
13.745989,2736,1,-10,-5,-2,0,-3,-2,-7
13.746012,2737,-15,-1,10,1,-1,1,4,5
13.746109,2738,4,19,-2,0,-1,-2,-7,-7
13.746118,2739,-6,-14,-1,1,3,5,2,2
13.767021,2740,-6,7,3,2,6,2,2,-1
13.767041,2741,8,2,-20,-6,-6,-3,-3,3
13.768632,2742,-9,13,35,-1,-12,-6,-1,4
13.768644,2743,-13,-8,7,-3,0,0,-4,-3
13.781757,2744,24,17,-15,-3,0,-2,-4,-3
13.781784,2745,-29,1,4,7,19,15,10,1
13.788600,2746,-8,-18,-22,-3,-8,-6,3,-3
13.790140,2747,-18,-5,3,1,-9,-5,-2,-1
13.805213,2748,37,5,-4,-7,-7,-10,-11,-6
13.805247,2749,-36,-22,0,0,0,1,-4,3
13.806740,2750,22,-1,-8,-2,9,3,-1,-2
13.806753,2751,-7,-1,13,4,0,3,0,4
13.828189,2752,-8,-16,-13,1,0,-1,5,0
13.828222,2753,-11,20,-10,-5,-5,-4,2,3
13.829230,2754,14,-3,3,-1,-1,-3,-6,-1
13.829255,2755,7,3,-4,1,0,-1,0,-4
13.841316,2756,-20,-13,3,-1,1,5,-3,2
13.841332,2757,18,3,-2,-2,-8,-6,-2,-7
13.848269,2758,-22,9,-7,1,3,3,2,-2
13.848294,2759,3,7,2,4,4,2,3,2
13.864330,2760,12,-17,-11,-5,-11,-5,5,-3
13.864349,2761,-9,8,9,1,3,-5,-5,2
13.870694,2762,0,3,-3,-3,0,1,-3,-2
13.870713,2763,-6,-7,0,-1,-1,-4,-8,2
13.887744,2764,-11,22,1,3,0,2,6,2
13.887761,2765,9,6,8,2,1,4,3,-1
13.888573,2766,-23,-1,-1,-2,4,1,2,-2
13.888591,2767,13,-28,-10,-2,2,2,-2,-7
13.902559,2768,-33,-27,-1,-6,-3,-5,-6,3
13.902571,2769,0,36,9,1,-3,-4,-2,-3
13.908555,2770,30,-11,16,3,3,1,4,2
13.909461,2771,-8,6,-2,0,-4,0,-1,0
13.924722,2772,5,-9,-1,2,-4,0,-1,1
13.926296,2773,-6,3,5,0,3,-1,3,0
13.926308,2774,-5,-11,-12,0,2,2,-8,-1
13.926310,2775,2,9,3,1,3,3,8,7
13.949305,2776,21,-22,-5,-6,-11,-5,1,-8
13.949319,2777,6,23,-11,-8,-3,-7,-20,-1
13.949323,2778,-8,11,0,1,0,2,12,2
13.949325,2779,14,-8,-3,-4,-7,-7,-6,-3
13.961608,2780,1,18,7,2,6,4,3,1
13.961626,2781,-7,-8,4,6,4,7,16,3
13.968583,2782,38,5,-11,-6,-5,-2,-13,-2
13.968620,2783,-23,-35,3,0,0,-4,-5,-1
13.984503,2784,-9,20,-9,-4,-3,-4,-4,1
13.984524,2785,-2,-9,13,-2,-4,-1,2,-2
13.986050,2786,-21,7,19,1,1,-4,-2,-2
13.986070,2787,7,-13,-26,-3,3,3,6,2
14.007200,2788,-8,20,28,3,-2,-2,-3,-3
14.007218,2789,-2,-8,1,3,-2,1,-1,1
14.008556,2790,-29,-9,-19,3,7,7,6,3
14.008651,2791,6,19,10,-2,-13,-9,-7,1
14.021378,2792,48,-13,-15,-8,-6,-7,-15,1
14.021397,2793,-13,2,-12,1,-1,-2,4,-4
14.028447,2794,5,9,1,-2,0,0,-2,1
14.028470,2795,-20,-3,-6,1,4,1,0,-4
14.045307,2796,-10,-2,-1,3,7,3,3,-2
14.045326,2797,4,1,6,-2,0,1,5,3
14.046026,2798,-12,-1,-10,-1,-2,-2,7,-3
14.046048,2799,4,2,0,-3,-2,1,-14,1
14.067135,2800,-14,-14,9,-2,-8,-8,-5,1
14.067226,2801,-4,6,-13,-3,-3,-2,0,-6
14.068640,2802,18,26,26,2,3,4,0,5
14.068652,2803,-14,-25,-5,-2,0,-1,1,-2
14.081418,2804,-10,8,-5,1,2,4,2,1
14.081490,2805,-18,-8,-3,2,9,9,7,3
14.088169,2806,12,-19,-5,-10,-16,-14,-13,-1
14.088188,2807,-21,19,5,-2,-5,-2,3,-4
14.104698,2808,16,4,-8,-1,2,1,1,0
14.104717,2809,-11,-7,-1,-2,-1,0,-5,-4
14.106058,2810,-6,-6,-8,1,1,2,1,-3
14.106093,2811,11,-11,6,0,1,-1,-3,1
14.127043,2812,-19,11,-3,2,5,2,4,1
14.127106,2813,13,-9,1,-1,-2,-2,-4,-1
14.128626,2814,13,-7,8,-1,1,0,-2,0
14.128648,2815,11,9,1,3,6,3,1,-1
14.140700,2816,-16,5,1,2,0,2,13,1
14.140720,2817,-8,11,-18,-6,-12,-9,-18,-2
14.150374,2818,6,-2,7,-13,-12,-11,-10,-1
14.150386,2819,-32,-3,8,6,7,5,6,1
14.164739,2820,46,-8,-9,-7,-3,-4,-8,-5
14.164763,2821,18,-11,-1,1,2,3,2,2
14.166158,2822,-32,-5,-5,4,2,2,-1,-2
14.166168,2823,11,8,4,-2,1,1,1,-1
14.187569,2824,-12,-4,-1,2,4,1,0,7
14.187597,2825,17,5,2,-1,-4,-4,2,0
14.188677,2826,2,-3,-8,0,0,-1,-4,-7
14.188756,2827,13,-9,1,-1,2,0,5,-2
14.200897,2828,-6,13,-7,1,0,1,-3,-1
14.200918,2829,-23,22,4,-5,-15,-10,-6,-9
14.209969,2830,-15,-29,-23,-6,-3,-6,-5,-2
14.209982,2831,-9,18,12,-2,-4,-2,-8,1
14.224553,2832,-5,-14,13,3,5,3,5,-1
14.224571,2833,-10,-22,-4,1,8,5,4,6
14.226180,2834,8,2,6,3,-2,2,-1,3
14.226204,2835,8,6,-14,-2,-6,-2,3,-3
14.247226,2836,-7,4,-4,-1,-1,-3,-4,-3
14.247238,2837,2,-7,3,-2,3,0,-2,-2
14.248638,2838,1,-7,-9,1,0,0,5,-1
14.248652,2839,-27,21,5,6,15,10,11,0
14.261822,2840,39,-31,-18,-6,-4,-3,-11,-11
14.261839,2841,-30,-5,4,-10,-27,-22,-19,-7
14.270336,2842,-4,16,-7,-1,-1,-3,0,1
14.270348,2843,5,-6,5,-1,-3,-4,3,-2
14.284589,2844,-3,7,17,4,11,10,-1,6
14.284608,2845,20,6,1,4,8,8,10,4
14.286049,2846,3,-12,-6,0,-1,-2,-1,2
14.286099,2847,10,-6,-18,-5,-3,-4,-2,-6
14.308544,2848,-11,7,-1,-2,-3,-5,-1,-2
14.308566,2849,-4,-12,-2,-2,1,1,-2,-3
14.308687,2850,-4,12,3,-2,0,-1,1,0
14.308693,2851,-44,19,15,7,3,3,4,3
14.321038,2852,20,-39,-11,-2,2,1,-4,-3
14.321077,2853,-58,37,-2,-9,-22,-9,-1,-3
14.329990,2854,89,-56,-26,-6,4,0,-8,1
14.330001,2855,14,5,11,-1,-8,-1,-2,3
14.344733,2856,-15,-2,-9,0,-4,-4,2,-3
14.344753,2857,0,1,12,7,13,6,10,-4
14.346222,2858,-26,-19,-13,-3,-2,2,-15,-1
14.346239,2859,23,-13,-11,-7,-4,-6,0,-4
14.367422,2860,-15,10,7,1,-1,3,5,0
14.367449,2861,30,-2,-17,-1,5,4,2,1
14.369083,2862,-19,26,4,5,2,2,7,-2
14.369094,2863,7,8,19,2,5,3,-3,5
14.380906,2864,30,-17,-18,-10,-11,-11,-10,-13
14.380926,2865,-30,0,11,-2,-11,-6,-4,0
14.390833,2866,35,-4,-8,-3,0,-3,0,1
14.390850,2867,-4,-3,-9,-2,-4,-1,-2,-1
14.404462,2868,-14,32,10,6,5,3,10,1
14.404476,2869,10,-4,-1,0,10,3,-6,1
14.406071,2870,-6,9,3,-3,-2,3,6,-5
14.406127,2871,2,-19,2,-1,3,0,2,-2
14.427548,2872,-5,7,8,-3,-5,-3,-7,0
14.427566,2873,8,-18,-2,3,2,3,14,2
14.429152,2874,-21,21,7,1,-1,0,-12,0
14.429165,2875,18,4,5,-3,-8,-10,-12,-4
14.440823,2876,-18,-10,3,2,2,-1,0,1
14.440841,2877,18,5,1,0,8,2,5,1
14.450487,2878,-9,1,-8,-1,-8,-4,2,-1
14.450504,2879,-8,-4,-3,-4,-5,-4,-4,-7
14.466177,2880,2,3,12,-2,-4,0,-3,3
14.466204,2881,-2,12,10,5,6,4,3,1
14.466211,2882,34,-21,-11,-4,-3,-4,-3,-7
14.466216,2883,-1,-36,-26,-3,-3,-3,-7,2
14.487046,2884,-12,7,2,1,-2,0,0,5
14.488958,2885,-15,-4,8,0,1,3,-3,2
14.488982,2886,-1,24,14,1,7,5,11,7
14.488988,2887,49,-3,-9,-7,-7,-5,-4,-2
14.500870,2888,15,7,-8,-2,2,1,0,5
14.500939,2889,-34,-85,-13,-4,-1,-5,-19,-10
14.510869,2890,-8,38,15,1,2,1,8,3
14.510892,2891,-15,4,-7,-3,-9,-6,-15,-4
14.524667,2892,-17,21,9,2,-4,-3,6,-2
14.524693,2893,-2,18,2,3,4,3,3,-3
14.526483,2894,3,-17,1,1,2,2,-2,0
14.526495,2895,-13,5,-8,-3,-2,3,3,3
14.547249,2896,-5,-9,-10,-1,-1,-2,-4,-1
14.547275,2897,-1,5,0,1,0,-2,-1,3
14.548780,2898,-20,-4,6,-1,0,-1,-3,-4
14.548803,2899,0,-4,-1,-2,2,0,2,-6
14.570103,2900,-18,8,1,-2,-6,-5,-6,0
14.570236,2901,11,11,20,-1,-1,-1,5,3
14.571775,2902,10,11,-9,-3,-1,-4,-5,-6
14.571790,2903,-29,-5,7,-1,4,1,4,-3
14.584897,2904,10,-28,2,2,3,3,0,-4
14.584919,2905,35,12,4,-2,-1,-2,-4,4
14.586052,2906,-24,2,-15,0,-1,2,4,2
14.586071,2907,-3,-15,33,1,-4,-6,-7,-5
14.607485,2908,-27,11,-13,-4,-4,-3,0,-2
14.607527,2909,5,12,-7,-2,-1,-4,0,-5
14.608700,2910,44,-36,-4,-2,-2,-2,-5,-5
14.608724,2911,-46,27,-11,1,6,6,8,5
14.629606,2912,-9,4,11,0,-4,0,3,0
14.629628,2913,21,-1,-6,-3,-6,-4,-4,1
14.631198,2914,-36,-9,1,3,-1,3,2,-2
14.631210,2915,16,-11,-12,-2,0,3,3,-3
14.644494,2916,24,-5,-1,-3,2,-2,-5,-3
14.644511,2917,-22,-9,-30,-3,1,4,2,0
14.646055,2918,-14,14,36,0,-3,-6,-4,-1
14.646114,2919,-24,5,0,0,-7,-6,-6,-2
14.667977,2920,9,-17,-9,-5,4,3,1,-5
14.667990,2921,1,-7,-4,-1,-2,0,-1,2
14.668622,2922,-12,15,-4,-1,-3,-7,-3,-4
14.668629,2923,11,5,1,0,-1,-2,0,1
14.690154,2924,22,8,-8,1,0,0,-1,4
14.690178,2925,-10,48,-17,1,5,2,15,-7
14.691911,2926,9,-62,48,3,1,2,-21,2
14.691925,2927,-17,-18,-14,-1,-4,-6,4,1
14.704488,2928,26,9,-2,-2,-2,-3,-2,-4
14.706138,2929,-2,-26,-23,-3,-3,-1,-2,-4
14.710999,2930,-20,24,-6,0,0,1,7,4
14.711131,2931,14,14,1,2,-1,2,-2,-2
14.727266,2932,-9,-19,-5,-1,0,0,-4,-2
14.727285,2933,3,5,15,0,-1,0,-4,-1
14.728970,2934,-11,6,-9,2,10,8,5,2
14.728983,2935,59,-18,0,-2,-9,-2,-4,-1
14.749599,2936,2,-15,-19,-6,-8,-8,0,-4
14.749617,2937,9,20,20,-5,-18,-16,-20,-2
14.751770,2938,-19,-42,2,-6,-1,-4,-2,-3
14.751781,2939,-7,9,-28,0,11,6,6,5
14.763960,2940,-7,3,35,8,6,5,5,4
14.763978,2941,14,-19,4,0,2,4,1,-2
14.770696,2942,-3,-14,-19,0,-2,0,3,0
14.770715,2943,6,11,-1,-4,-3,-3,-3,-4
14.788049,2944,-13,7,4,1,-2,-2,-3,-1
14.788124,2945,-7,-6,1,-1,3,1,2,1
14.789602,2946,3,27,-2,-2,-3,-3,3,0
14.789615,2947,0,-1,-5,-2,-2,0,-2,2
14.809818,2948,-14,6,-3,-1,-2,-1,-1,-1
14.809857,2949,-5,-8,0,-1,5,1,-1,-3
14.810984,2950,-14,13,-4,7,12,12,14,0
14.810998,2951,11,-26,-12,-8,-20,-14,-24,-6
14.823900,2952,-12,9,9,-4,-7,-10,-1,0
14.823918,2953,14,-13,-3,-5,-3,-2,-4,-2
14.830675,2954,-23,18,20,3,0,1,0,1
14.830694,2955,-8,-10,-2,4,13,9,14,4
14.847091,2956,-4,-3,-6,0,-2,0,-3,-2
14.847112,2957,-11,-5,-9,-1,-1,-1,0,1
14.848605,2958,17,-2,-10,-3,-5,0,3,2
14.848619,2959,-5,9,6,0,1,-1,-2,-4
14.869499,2960,-5,-8,-9,-3,-2,-1,-2,-2
14.869516,2961,-1,2,3,1,0,-1,2,-1
14.871087,2962,2,4,-6,-3,-6,-5,-5,-3
14.871103,2963,-3,13,-16,-4,0,-3,0,-3
14.883826,2964,-11,-9,-8,1,3,6,-1,9
14.883844,2965,-11,34,33,0,-2,-2,-3,0
14.891137,2966,27,-31,-6,-5,-5,-5,-2,3
14.891178,2967,-28,11,-5,3,2,4,1,1
14.907064,2968,10,-18,-2,1,7,8,12,-4
14.908448,2969,46,-12,-18,-7,-5,-8,-20,-10
14.908559,2970,-41,16,-13,-2,-8,-7,2,3
14.908633,2971,61,2,3,-3,-4,-6,-3,-2
14.930593,2972,-14,-6,2,1,-1,-1,-2,-3
14.930607,2973,-23,1,3,5,8,6,8,3
14.931045,2974,-2,-12,5,-1,-7,-5,-7,-2
14.931058,2975,-23,50,9,0,4,2,2,1
14.943979,2976,20,-3,-2,-4,-2,-3,-2,1
14.945937,2977,8,-32,-16,1,0,3,8,5
14.950942,2978,12,6,1,-4,-1,-4,-17,-8
14.952812,2979,-28,-20,13,4,5,2,6,1
14.967080,2980,0,7,-12,-6,-5,-2,-9,-3
14.967096,2981,-19,19,11,2,1,-2,7,1
14.968709,2982,-6,-17,-6,1,2,6,9,0
14.968721,2983,-4,-11,2,-4,-8,-9,-7,-2
14.989562,2984,-4,-13,-12,2,1,0,2,4
14.989584,2985,-20,10,2,3,2,5,5,2
14.991235,2986,34,9,-6,-5,0,-4,-6,-5
14.991255,2987,4,-6,-4,-4,-1,4,-4,2
15.004074,2988,-8,28,23,6,1,-1,0,-3
15.004096,2989,-19,-4,-7,-1,-4,0,3,0
15.010822,2990,-7,-8,-1,0,0,-2,-1,-5
15.011673,2991,-22,-2,-5,-3,-3,-2,-1,2
15.027037,2992,21,1,-3,-4,-2,-3,-1,-5
15.027055,2993,5,-8,-3,-2,-1,-3,-5,-1
15.028534,2994,-30,-8,2,2,3,5,3,3
15.028552,2995,0,6,5,4,9,6,11,-1
15.049668,2996,-13,-11,-10,-2,-8,-7,-19,2
15.051216,2997,26,24,19,-4,-11,-10,5,0
15.051228,2998,-7,1,-7,2,4,5,4,5
15.051229,2999,3,0,6,-4,-4,-3,-4,0
15.063866,3000,14,-1,-2,0,4,3,6,-1
15.064001,3001,5,-27,-28,-5,-1,2,-5,-3
15.072365,3002,-9,-2,22,0,-4,-7,-8,-4
15.072377,3003,-6,26,4,-5,2,-2,2,-4
15.088495,3004,0,2,-7,-2,-1,1,0,-1
15.088516,3005,-3,-37,-10,0,-3,1,-3,-1
15.088705,3006,31,33,-1,2,4,2,8,3
15.089310,3007,13,-79,-15,5,-4,2,-6,-4
15.109545,3008,1,17,-8,-8,-12,-7,-4,2
15.109561,3009,-9,-2,11,-1,1,0,1,1
15.111040,3010,5,0,-13,-4,0,-2,-2,-2
15.111058,3011,11,16,17,1,2,1,2,-4
15.123141,3012,-18,-23,-14,-3,-3,-3,-3,-3
15.123161,3013,-5,-3,3,-2,1,1,-2,-4
15.133741,3014,-14,23,8,-1,-2,-5,3,0
15.133755,3015,-2,-4,-6,3,-2,1,-17,4
15.147320,3016,10,-22,3,0,2,0,9,-5
15.147343,3017,-2,-6,-1,0,3,1,-3,1
15.148994,3018,-7,24,-6,0,-5,-1,4,-2
15.149006,3019,14,-9,-6,-1,-1,-4,3,0
15.169603,3020,1,39,11,-1,0,-3,-5,-4
15.169621,3021,46,-4,-8,-5,0,-1,-4,2
15.171695,3022,2,-26,-13,-3,1,-3,-7,-7
15.171707,3023,-13,-2,-14,-3,-3,-3,2,2
15.183169,3024,-23,7,14,4,3,2,1,2
15.183209,3025,5,22,5,0,0,1,3,-2
15.192410,3026,-15,-9,11,-2,-8,-4,-3,2
15.192421,3027,12,16,9,-2,-5,-3,2,-1
15.214464,3028,4,-16,-12,1,0,-1,-6,-6
15.214478,3029,-24,15,4,0,1,1,1,-3
15.216124,3030,7,-14,-14,-4,3,1,-1,1
15.216145,3031,2,5,4,2,0,0,3,1
15.229521,3032,-31,-2,2,-2,0,1,13,1
15.229533,3033,-6,-14,-3,1,-1,-1,-16,-1
15.230992,3034,47,-28,-13,-4,-3,-6,-1,-5
15.231008,3035,-27,-12,-3,-2,-2,-2,-5,-3
15.245234,3036,-5,18,5,1,0,-1,1,-4
15.245248,3037,0,15,-4,3,1,2,2,3
15.260342,3038,-12,4,5,2,-1,1,-1,-2
15.260353,3039,2,0,8,-2,2,-2,-3,5
15.267584,3040,42,-38,-9,-4,0,-1,-6,-6
15.269276,3041,-28,0,-9,-1,1,-3,2,1
15.269289,3042,-2,26,8,-1,-8,-5,-6,-1
15.269291,3043,11,-8,-3,-3,0,-2,0,-2
15.291369,3044,-24,-3,4,3,0,-1,1,-5
15.291381,3045,6,21,11,-5,-6,-5,-15,-3
15.291383,3046,-22,-15,4,-1,1,-2,7,2
15.291385,3047,50,28,-4,-4,-5,-3,-6,3
15.303174,3048,-4,-6,-1,2,0,2,1,3
15.303196,3049,-18,-29,-6,0,1,3,6,-2
15.312536,3050,-15,11,0,-1,-1,1,-1,2
15.312552,3051,-15,-25,-6,-2,0,-1,-5,-3
15.327232,3052,-29,1,-9,-4,-2,-3,0,-6
15.327256,3053,7,40,23,-1,-1,-3,-2,-8
15.328747,3054,-7,-24,-8,1,-3,4,1,5
15.328807,3055,35,8,-3,-3,-3,-1,3,-5
15.349781,3056,-44,-25,-11,-2,-3,-3,-7,0
15.351510,3057,-5,9,6,3,0,1,5,4
15.351526,3058,5,13,-6,1,5,4,4,2
15.351529,3059,-21,-13,-10,-1,-7,-3,-4,-4
15.363188,3060,18,21,19,0,2,-1,2,5
15.363209,3061,21,33,-14,-1,7,4,2,0
15.372785,3062,-7,-78,5,0,0,-3,-3,-3
15.372799,3063,0,6,-10,-6,-20,-13,-4,1
15.387193,3064,2,-10,-2,-3,-1,-6,-12,-6
15.387287,3065,4,-17,-19,-5,-6,-4,-2,-3
15.388658,3066,-3,28,-3,1,4,0,-4,-4
15.388676,3067,-20,18,10,1,8,5,7,2
15.409652,3068,17,-20,-6,1,0,3,0,1
15.409670,3069,11,-5,13,3,5,0,-9,-2
15.411399,3070,-38,15,0,-2,-4,-2,2,-1
15.411423,3071,9,1,6,-2,1,-1,-3,-2
15.423249,3072,-2,-17,-1,-4,-7,-5,-6,-3
15.423272,3073,-31,-8,-10,-1,3,-1,4,0
15.432098,3074,1,12,3,2,0,2,-2,4
15.432173,3075,-18,3,0,4,4,2,4,-1
15.447381,3076,11,38,-1,0,3,3,1,5
15.447397,3077,-12,-23,-3,0,-4,-1,3,-1
15.448655,3078,0,-11,-9,-2,-6,-2,-6,0
15.448679,3079,-16,20,3,0,8,6,3,1
15.469674,3080,-1,2,-2,1,1,-1,6,1
15.469696,3081,24,19,0,-2,-9,-1,11,-1
15.470987,3082,27,-36,2,-1,-5,-3,-13,-8
15.471003,3083,-1,-11,-7,-3,0,-4,-4,-4
15.483195,3084,-16,12,7,1,-2,0,-2,1
15.483214,3085,-7,-9,-8,3,7,5,-3,4
15.492899,3086,25,27,1,-1,1,-1,8,-5
15.492914,3087,55,-21,-9,-6,-6,-4,-10,-11
15.506676,3088,31,3,1,-1,2,2,3,5
15.506695,3089,1,-8,6,-1,-6,-4,-4,-1
15.513227,3090,17,7,-10,-1,5,2,5,4
15.513245,3091,-35,27,-2,5,5,5,5,0
15.537613,3092,48,-5,25,-4,-10,-12,-15,-6
15.539424,3093,4,-39,-18,-4,-2,-1,-3,-2
15.539437,3094,-16,16,-3,-2,1,0,-2,-4
15.539438,3095,-13,-8,1,3,-1,0,7,2
15.552346,3096,-6,7,-13,-3,-1,2,2,0
15.554331,3097,-6,0,2,-1,-4,-5,-3,0
15.554343,3098,-8,3,5,1,-3,-2,-3,2
15.554345,3099,7,1,-4,-2,2,3,0,2
15.567163,3100,-27,-10,-3,-1,2,2,-3,-3
15.567243,3101,4,-7,-4,-4,-9,-4,-4,1
15.569159,3102,-16,-2,-8,-3,-1,-4,-1,-3
15.569173,3103,-19,9,25,3,2,0,0,-1
15.589564,3104,-18,4,-7,0,3,3,3,1
15.589583,3105,29,-28,0,-7,-7,-8,-8,-2
15.591136,3106,27,7,3,-2,0,-3,-4,-1
15.591156,3107,-41,1,1,3,3,3,1,5
15.612466,3108,-18,-31,-10,1,-3,-1,-2,-1
15.612486,3109,15,2,11,-2,-2,-3,-5,-6
15.614241,3110,6,-11,-12,-2,1,0,0,3
15.614255,3111,-17,-6,-2,-3,0,1,-1,0
15.627104,3112,7,0,-4,0,-2,0,9,4
15.627123,3113,-22,36,25,1,3,1,1,-5
15.628529,3114,3,7,-4,-3,-2,-3,-5,-1
15.628572,3115,-16,-21,-5,1,-1,2,3,1
15.651475,3116,0,16,-13,-2,-8,-8,-5,-3
15.651489,3117,3,-20,12,-2,1,1,2,2
15.651492,3118,-19,17,-3,-2,-3,-2,-3,-1
15.651493,3119,1,-7,6,0,0,-2,-2,-1
15.672699,3120,12,5,-15,6,14,13,10,5
15.672733,3121,-33,10,36,3,-6,-3,8,1
15.674434,3122,21,-12,-11,-10,-20,-10,-5,-4
15.674446,3123,9,-27,-14,-9,-3,-6,-12,-1
15.686727,3124,-27,-4,-7,-1,-1,-3,-1,-1
15.686743,3125,-9,-4,-23,5,9,7,0,-1
15.693280,3126,-34,7,20,5,6,4,4,2
15.693304,3127,20,7,1,1,-7,-1,5,1
15.709505,3128,14,-1,13,-2,-2,-2,-2,-6
15.709524,3129,-3,0,-13,-3,-1,-1,0,2
15.711054,3130,10,1,-6,-3,-3,-2,-4,-2
15.711106,3131,13,18,4,0,2,-1,3,-1
15.731338,3132,-4,7,-29,-4,1,-1,6,-3
15.731355,3133,14,-44,40,4,1,-1,-15,2
15.732491,3134,-27,-1,-4,-4,-11,-8,-7,-7
15.732511,3135,-15,-1,1,-1,0,-3,-2,2
15.745642,3136,-18,-1,-1,-2,-1,0,-1,0
15.745657,3137,-6,-1,-27,-4,-2,-1,4,0
15.754190,3138,9,15,7,3,9,6,5,0
15.754214,3139,-3,0,7,1,-3,-1,-5,-1
15.769306,3140,10,-1,14,0,-4,-4,-4,-1
15.769323,3141,-1,8,-19,-1,2,-2,4,4
15.770601,3142,3,-23,8,2,4,0,-2,1
15.770614,3143,-7,8,-11,-4,0,-1,-1,-9
15.791327,3144,-4,11,-9,-5,2,2,-2,1
15.791342,3145,-12,8,-10,1,-6,0,7,0
15.792078,3146,-8,-30,9,-5,-6,-4,-9,-8
15.792094,3147,3,-37,-7,-2,-6,-7,-10,1
15.806737,3148,6,17,19,-1,4,-2,-2,-1
15.806749,3149,-20,-1,-18,0,2,2,1,0
15.814033,3150,28,1,-10,2,2,5,8,6
15.814067,3151,10,1,2,0,1,5,5,0
15.829128,3152,-7,-1,9,-3,-3,-3,-6,-3
15.830354,3153,9,4,-11,-5,-5,-3,-1,-4
15.830366,3154,-5,0,-6,0,1,2,1,3
15.830368,3155,-6,4,-1,-4,-1,-4,6,-6
15.851278,3156,-7,36,33,5,4,3,-12,7
15.851296,3157,43,-65,-4,-4,-11,-4,4,-7
15.852285,3158,-11,-4,-11,-3,4,4,-4,0
15.852303,3159,-17,37,-7,-6,-11,-11,-14,-5
15.866063,3160,18,-20,-17,-2,-7,-3,21,8
15.866082,3161,-2,38,31,2,-3,-7,-24,-4
15.873865,3162,6,-3,-3,1,5,2,11,2
15.873884,3163,-2,-11,1,4,3,3,4,2
15.888785,3164,27,-9,1,-3,-1,-1,3,-4
15.888802,3165,-33,-5,-14,-2,3,1,3,0
15.889417,3166,-6,2,-4,-2,0,-3,1,-3
15.889860,3167,3,24,12,4,-1,1,1,1
15.911356,3168,-39,-13,-6,3,1,1,-3,-4
15.911376,3169,53,-9,-11,-7,-5,-5,-7,-3
15.912573,3170,-2,22,5,0,0,-1,-6,1
15.912598,3171,-9,-4,3,0,8,7,3,5
15.925890,3172,19,-4,-11,-3,-6,-5,-5,-3
15.925908,3173,-19,43,24,-2,-4,-5,-1,-2
15.933951,3174,8,-32,-6,-1,-1,-1,0,0
15.933974,3175,-36,-2,-2,3,0,-1,-2,-4
15.949625,3176,18,-15,-10,-4,1,0,-5,1
15.949642,3177,-10,1,-14,-1,3,4,2,2
15.949645,3178,-8,8,2,-2,-2,-3,-6,-3
15.949727,3179,-19,-2,2,0,-6,-2,1,0
15.971812,3180,-7,24,1,0,6,5,9,0
15.971847,3181,2,6,-1,3,-5,-3,-9,4
15.972926,3182,-28,-6,1,0,-3,-4,3,4
15.972933,3183,20,-10,-1,-2,3,3,1,0
15.985865,3184,25,-9,0,-4,-4,-5,-6,-7
15.985886,3185,-12,-3,-11,1,8,4,8,3
15.994605,3186,1,9,10,-1,0,-1,-3,-6
15.996126,3187,-1,13,-12,-3,-4,-4,-3,-3
16.008918,3188,-20,-25,11,4,0,0,-3,3
16.008937,3189,15,-34,-6,-4,1,0,2,0
16.010067,3190,13,5,-9,-2,-4,1,-1,1
16.010076,3191,6,-12,-5,0,0,-2,-1,2
16.031454,3192,-1,40,-4,-1,-1,-1,-1,-1
16.031474,3193,-2,-43,8,0,2,-1,0,-4
16.031990,3194,6,0,0,-4,-7,-1,-1,6
16.032003,3195,12,12,-3,-2,2,1,1,-4
16.045709,3196,-15,-12,0,0,0,1,-2,1
16.045727,3197,-33,39,1,-2,-8,-5,0,-1
16.054059,3198,39,3,-4,-3,-6,-8,-3,-5
16.054077,3199,-12,-39,0,-5,-3,-6,-7,2
16.069048,3200,-7,11,5,5,4,3,2,5
16.069106,3201,-8,15,-3,1,3,4,3,-1
16.070401,3202,-21,-2,-2,2,2,-1,-4,-2
16.070412,3203,15,-16,-6,1,-2,0,-1,1
16.091359,3204,-8,-2,4,-5,-4,-3,-1,-3
16.091384,3205,-14,11,0,2,2,2,3,0
16.092002,3206,-7,-45,-15,-4,0,-2,-3,-4
16.092073,3207,-23,-2,3,2,-2,0,1,-1
16.105759,3208,7,24,18,0,-4,0,-3,-2
16.105776,3209,-2,-9,-17,-3,-3,-3,-4,-2
16.113984,3210,18,-18,-4,1,0,4,-1,0
16.114004,3211,-5,20,9,2,0,2,1,2
16.128891,3212,-24,-17,-7,1,-2,-1,1,1
16.128913,3213,31,1,-3,-3,0,-2,0,-4
16.130090,3214,-17,33,4,0,-1,-1,-2,1
16.130105,3215,24,-29,-5,-3,-2,-3,-3,-6
16.152250,3216,-3,6,-5,0,0,-1,-1,-2
16.152264,3217,-12,5,-7,5,12,9,9,3
16.152266,3218,-16,2,6,-5,-18,-9,-16,-9
16.152268,3219,29,-14,0,-8,-8,-8,1,2
16.165781,3220,-10,-20,1,2,-5,-3,-6,-2
16.165806,3221,-9,-5,-3,0,7,1,4,-3
16.174144,3222,-2,4,-6,2,11,7,1,2
16.175352,3223,0,16,1,-2,-8,-9,-7,-2
16.188984,3224,6,-10,1,-3,-4,-4,-6,-3
16.190922,3225,9,-6,-7,-2,-5,-2,2,-4
16.190934,3226,-38,25,6,4,5,4,7,2
16.190936,3227,31,-28,-6,1,1,1,-3,-5
16.211745,3228,-9,-6,3,-3,-1,-3,-3,-4
16.211784,3229,-8,11,-4,-2,-8,-6,-7,1
16.213930,3230,13,22,-2,1,0,0,8,1
16.213943,3231,0,-27,5,-2,0,3,-7,-2
16.226061,3232,24,-21,-16,-5,-4,-3,-2,-1
16.226081,3233,0,2,13,0,-2,-3,-2,-1
16.233903,3234,8,-3,-3,1,-1,-1,5,1
16.235450,3235,-26,31,-8,0,5,4,9,-4
16.248977,3236,8,5,1,-5,-4,-8,-13,-5
16.249000,3237,-35,-8,4,-1,-4,-3,-5,-5
16.249782,3238,36,1,-6,-4,2,-1,0,-1
16.249807,3239,2,35,7,5,7,3,19,0
16.271508,3240,6,-58,-20,-4,-5,0,-16,1
16.271528,3241,-24,12,5,-4,-10,-6,-7,-1
16.273030,3242,3,-3,-10,-6,-4,-6,-5,-4
16.273042,3243,21,22,3,2,3,1,3,3
16.285885,3244,-44,14,7,4,3,4,9,2
16.285917,3245,79,-10,-10,-4,2,0,-2,-2
16.293953,3246,-17,8,4,-1,-1,1,-1,-3
16.293972,3247,-23,-19,-2,-1,-1,-1,-5,-1
16.309415,3248,-8,25,3,0,0,0,4,0
16.309433,3249,0,-14,-5,0,-2,0,-3,2
16.309593,3250,2,-2,-3,-1,-1,1,5,4
16.309637,3251,6,25,8,1,-2,1,-4,1
16.331353,3252,-17,-39,2,-2,0,0,3,-1
16.331371,3253,6,-13,-4,0,3,4,1,-3
16.332622,3254,-7,3,6,4,2,-1,-3,3
16.332636,3255,12,-13,-12,-7,-6,-4,-5,2
16.345710,3256,-1,14,1,1,7,4,8,5
16.345728,3257,1,53,10,-1,-7,-5,-3,-5
16.354003,3258,-67,-25,-9,-4,-5,-7,-11,1
16.354026,3259,18,-8,1,-1,-3,-5,-4,-1
16.368885,3260,0,22,-2,2,-2,4,4,-3
16.368910,3261,-9,-24,-4,3,7,6,-2,8
16.370715,3262,-4,43,12,0,0,2,5,-3
16.370739,3263,4,-22,-7,-4,0,1,-4,1
16.391405,3264,1,18,-3,1,10,8,3,4
16.391429,3265,-58,4,21,2,-8,-6,3,-5
16.392155,3266,50,-59,-22,-11,-9,-16,-15,-2
16.392180,3267,-25,4,-2,0,-2,-1,-3,-2
16.405917,3268,-3,4,5,-1,-1,-2,1,-3
16.405944,3269,-15,47,-7,3,12,7,10,7
16.413978,3270,2,-55,7,7,3,7,0,-5
16.413996,3271,-15,-10,-7,-10,-11,-8,-14,-5
16.428993,3272,-8,31,-4,-3,-5,-5,-2,3
16.430243,3273,34,-5,-5,-3,-2,1,1,0
16.430255,3274,-9,29,7,4,1,4,6,2
16.430257,3275,-4,0,2,3,2,-3,3,-3
16.451370,3276,13,-13,3,-1,-3,-4,-4,-3
16.451436,3277,-18,-11,-2,-4,-5,-5,-5,-4
16.452288,3278,-13,-6,-6,-1,2,4,4,-1
16.452312,3279,-59,13,9,7,3,5,6,0
16.474739,3280,28,17,2,-2,-1,-4,-11,-2
16.474775,3281,-8,-5,0,-3,-9,-5,-3,2
16.476546,3282,0,-26,-4,-4,0,-3,-3,-5
16.476560,3283,10,8,-3,0,-2,0,0,2
16.488949,3284,-7,-3,-1,-1,0,0,3,1
16.488967,3285,14,-9,-2,0,5,0,-1,-2
16.490484,3286,-19,35,7,4,2,4,4,2
16.490498,3287,27,-45,-9,-4,-2,-2,-5,-8
16.511454,3288,-47,-14,-3,-3,-5,-2,-3,-8
16.511485,3289,-2,-19,-5,-4,-2,-5,-5,-1
16.512994,3290,-3,13,-6,-1,-2,0,-1,2
16.513011,3291,11,11,14,3,4,4,3,0
16.534594,3292,-29,-13,-3,2,1,0,5,4
16.534617,3293,27,-23,-23,-7,-1,-1,-3,1
16.535370,3294,-5,43,7,3,6,1,1,-1
16.537176,3295,10,-18,17,1,2,3,-8,1
16.548913,3296,-2,-26,-2,-4,-23,-14,-1,-3
16.548936,3297,-8,13,2,-1,-1,-6,-3,-3
16.549667,3298,16,-30,-10,-2,-1,-1,-3,1
16.549713,3299,-5,21,-7,-2,2,-1,3,-8
16.571510,3300,18,13,3,1,4,7,2,4
16.571595,3301,-30,-24,-2,2,4,4,-3,-4
16.573640,3302,6,-9,1,-1,-3,0,4,0
16.573654,3303,-21,8,-7,-7,-19,-13,-12,-1
16.594353,3304,43,-17,-3,-4,0,0,-1,-1
16.594383,3305,-3,1,-14,-4,-1,-1,-2,-5
16.595195,3306,17,10,15,-1,1,-2,-3,-2
16.595215,3307,0,-3,-12,-1,2,3,3,3
16.609375,3308,-27,-24,-1,2,2,-2,0,-4
16.609387,3309,-4,-11,-9,-1,0,1,0,-2
16.609530,3310,28,15,-9,-3,0,-1,-2,-7
16.609544,3311,2,8,1,2,-3,0,0,-1
16.631351,3312,-1,12,2,0,0,-3,0,-4
16.631372,3313,12,12,11,4,3,2,2,4
16.632771,3314,-2,-6,2,1,-2,-1,-5,1
16.632783,3315,-14,34,4,-1,4,0,5,1
16.654880,3316,36,-57,-26,-8,0,-1,-7,-5
16.656741,3317,6,21,23,2,-5,-1,-2,1
16.656753,3318,-19,-8,-13,-3,-4,-3,-4,-7
16.656755,3319,6,1,-3,-2,-1,-1,9,-2
16.668843,3320,-11,17,14,-1,-6,-3,-15,0
16.668865,3321,-5,-10,-10,-2,-2,-3,1,-4
16.670028,3322,-5,-6,3,0,1,-1,0,1
16.670046,3323,-10,-12,-6,1,5,4,2,4
16.691431,3324,13,28,3,2,4,3,2,4
16.691460,3325,-36,-8,0,-3,1,-2,-2,-1
16.692286,3326,83,-17,-17,-3,-2,-1,2,-1
16.692321,3327,-23,-21,24,-4,-8,-6,-8,-6
16.714682,3328,-18,17,-6,-4,0,1,3,1
16.714710,3329,8,4,-5,0,0,0,-3,0
16.716370,3330,-24,7,9,1,0,2,-1,3
16.716386,3331,2,-8,-9,1,0,-1,-4,-3
16.728814,3332,0,4,-5,-1,-1,0,0,-4
