timestamp,emg1,emg2,emg3,emg4,emg5,emg6,emg7,emg8,label
10.013784,25,-15,-14,-17,1,-88,-11,18,0.848862744
10.013928,1,31,2,10,-3,23,-11,-37,0.848862744
10.014540,-39,30,8,-16,-46,-66,4,-24,0.848862744
10.014571,28,-82,-7,18,12,21,14,7,0.848862744
10.036917,13,2,3,-14,18,-21,-12,25,0.848862744
10.036938,-7,21,6,-9,-44,10,10,-13,0.848862744
10.039214,12,10,-4,10,37,8,-10,16,0.848862744
10.039227,-26,33,7,5,-5,27,25,-25,0.848862744
10.059758,26,-4,3,-11,-58,-15,-18,-16,0.848862744
10.059770,-12,0,-6,12,97,11,8,29,0.848862744
10.059917,12,61,12,-2,-3,7,11,8,0.848862744
10.059953,-11,35,3,-15,-6,-1,2,-5,0.848862744
10.075642,27,-68,-15,-14,-25,-19,-51,59,0.848862744
10.075657,2,-24,0,2,-12,41,13,46,0.848862744
10.075659,16,31,1,6,-1,38,-5,11,0.848862744
10.075662,5,31,-2,-15,2,-16,3,-31,0.848862744
10.096969,-7,-35,0,-1,-46,68,24,1,0.848862744
10.097006,13,-18,3,14,37,-107,-6,-13,0.848862744
10.098888,4,-1,0,-9,-29,9,0,46,0.848862744
10.098902,0,19,1,3,39,-15,-19,-59,0.848862744
10.119795,-34,-22,0,15,23,17,8,-8,0.848862744
10.119820,-2,2,-6,-9,11,11,16,21,0.848862744
10.121807,-35,-8,-5,10,-26,-4,20,52,0.848862744
10.121819,-7,34,-10,-8,3,-1,-16,-11,0.848862744
10.133794,-9,-22,0,-3,10,-4,-8,-9,0.848862744
10.133827,0,-12,-1,-1,-20,-58,9,0,0.848862744
10.136578,13,56,2,-2,-22,8,-36,-71,0.848862744
10.136595,-11,-110,-3,12,44,18,-13,40,0.848862744
10.156940,-37,41,-6,-11,-38,-24,2,-35,0.848862744
10.156959,23,8,1,-8,12,74,17,11,0.848862744
10.157333,-18,-78,-13,-7,-9,-6,-18,-32,0.848862744
10.157344,4,43,8,17,-27,-18,11,6,0.848862744
10.179623,13,21,4,15,10,23,7,-19,0.848862744
10.179655,-4,32,0,-12,-22,23,7,-12,0.848862744
10.181949,2,-5,-7,-7,-8,-87,-17,48,0.848862744
10.181960,18,43,6,12,11,45,16,-4,0.848862744
10.194008,-20,-64,-11,-13,-17,-11,-8,-21,0.848862744
10.194043,6,-7,-9,-5,-3,-10,-19,-8,0.848862744
10.196025,-1,-13,2,9,-1,24,9,1,0.848862744
10.196032,11,22,-1,-4,18,-35,-11,-11,0.848862744
10.216879,15,29,5,2,14,16,-1,-12,0.848862744
10.216890,-15,-5,-3,-6,-17,-68,0,0,0.848862744
10.217356,43,41,5,-3,-7,10,2,-16,0.848862744
10.217392,-72,-31,-16,-18,5,-37,-6,-46,0.848862744
10.239363,17,30,1,7,27,-20,22,28,0.843049112
10.239380,0,34,4,-19,-2,32,0,-7,0.843049112
10.241039,-16,-30,1,17,20,-7,7,-25,0.843049112
10.241060,52,53,4,3,-14,-12,-14,27,0.843049112
10.253250,-31,8,0,8,-3,19,3,9,0.843049112
10.253283,9,58,10,8,1,10,4,-74,0.843049112
10.262957,-50,-122,-18,-2,61,-41,20,18,0.843049112
10.262971,-52,20,4,-18,-42,21,9,-18,0.843049112
10.279056,3,36,-2,1,9,-22,-33,1,0.843049112
10.279073,5,-39,-6,3,-21,0,-6,15,0.843049112
10.279079,4,46,7,-3,-10,33,-8,-11,0.843049112
10.279085,19,-20,2,8,1,7,15,-6,0.843049112
10.299359,1,25,6,-10,-1,-3,9,17,0.843049112
10.301210,4,2,0,4,-46,-25,17,-4,0.843049112
10.306220,-1,-57,-9,2,40,38,-47,-6,0.843049112
10.306239,26,26,0,-1,29,-34,-23,24,0.843049112
10.313192,-4,39,8,6,-41,30,15,-24,0.843049112
10.313216,15,-32,0,6,-13,30,-6,28,0.843049112
10.321335,9,27,-7,-8,19,52,18,-38,0.843049112
10.321363,8,-18,5,4,-18,-58,7,9,0.843049112
10.337013,-20,-4,-2,4,10,-22,-6,-32,0.843049112
10.337056,-33,-21,-7,-4,-2,9,-4,-30,0.843049112
10.339255,-5,-71,-11,-8,-37,-9,5,14,0.843049112
10.339268,20,82,9,6,12,21,-4,22,0.843049112
10.359349,-10,-67,-7,-11,8,-5,17,31,0.843049112
10.359373,-24,14,-7,-2,-29,-7,6,-15,0.843049112
10.360018,24,29,5,0,-10,-3,4,-8,0.843049112
10.360042,41,18,4,6,16,19,3,13,0.843049112
10.372995,-11,-10,-6,9,6,-10,2,4,0.843049112
10.373013,13,27,7,2,15,4,-5,35,0.843049112
10.381448,-24,-4,6,-2,-57,28,-35,-15,0.843049112
10.381473,-1,-36,-13,12,-3,-39,-5,-63,0.843049112
10.397043,26,-80,0,-10,2,56,-2,21,0.843049112
10.397068,10,12,-3,3,57,13,21,64,0.843049112
10.398762,-8,-6,8,2,-39,-16,12,8,0.843049112
10.398772,-11,6,-3,0,-26,40,-3,-31,0.843049112
10.419312,-27,9,1,-9,46,-29,-5,-75,0.843049112
10.419338,11,22,7,10,47,4,-15,4,0.843049112
10.420142,33,15,1,3,18,-3,11,5,0.843049112
10.420170,-29,17,1,-4,-49,7,-11,4,0.843049112
10.434443,-28,-22,-7,-3,-4,-14,-8,4,0.843049112
10.434451,18,29,-6,-27,-43,45,38,-3,0.843049112
10.441259,28,68,4,7,57,-62,-7,11,0.843049112
10.441280,-34,-61,-6,-7,1,75,-7,-9,0.843049112
10.456583,17,50,5,-4,-10,-54,-3,16,0.843049112
10.457909,-12,-54,-6,3,-61,9,-33,-74,0.843049112
10.458213,-57,68,5,-3,25,32,38,-8,0.843049112
10.458216,18,16,-7,-16,-17,4,5,44,0.843049112
10.481124,9,-77,-2,6,20,18,11,52,0.843049112
10.481135,5,7,-2,-4,0,-34,-17,-14,0.843049112
10.481138,-19,35,1,-7,-19,30,11,-23,0.843049112
10.481141,41,-26,-2,-13,19,38,-14,41,0.843049112
10.493603,-3,39,-5,-5,-40,-79,-15,-20,0.838875914
10.493648,-3,-19,-6,0,50,-4,-9,1,0.838875914
10.501327,0,2,-3,-13,-27,-10,-6,22,0.838875914
10.503853,-31,12,-7,-5,31,-1,6,-11,0.838875914
10.517361,46,85,8,9,-65,9,10,17,0.838875914
10.517467,-16,-27,2,-2,16,0,-24,39,0.838875914
10.517995,28,50,2,9,28,-11,-5,-9,0.838875914
10.518010,-2,-17,-1,3,-17,-23,-1,-41,0.838875914
10.538398,-43,7,7,6,13,69,19,-57,0.838875914
10.539815,-1,-46,-3,-14,-43,17,-36,-18,0.838875914
10.546307,-33,-99,-5,4,0,-22,23,6,0.838875914
10.548186,-8,-12,5,-4,-22,-20,-21,-22,0.838875914
10.553268,20,33,-3,7,30,23,2,38,0.838875914
10.553300,0,15,-2,-13,7,-6,6,20,0.838875914
10.561114,-21,-28,-3,-13,-31,33,-11,-16,0.838875914
10.561178,13,35,-4,37,49,-74,11,23,0.838875914
10.576747,2,-60,-1,-11,-4,20,15,-3,0.838875914
10.576762,-15,29,3,13,-4,3,-19,0,0.838875914
10.577374,22,-55,-9,-7,14,-25,-7,10,0.838875914
10.577386,-28,30,-2,-15,-49,-2,6,-48,0.838875914
10.599288,-22,-87,-10,9,22,32,0,-3,0.838875914
10.599307,30,-4,7,4,2,-47,18,73,0.838875914
10.601218,32,31,4,-1,-9,26,-5,3,0.838875914
10.601236,24,-27,-3,-4,44,68,16,77,0.838875914
10.622707,9,40,-2,4,76,-53,-37,10,0.838875914
10.622719,14,10,-1,-9,1,8,32,-35,0.838875914
10.622722,-15,64,1,-2,-28,-32,-4,-5,0.838875914
10.622725,-16,-122,-15,-8,-61,-11,-9,79,0.838875914
10.638536,7,45,1,-9,-1,37,4,-11,0.838875914
10.638550,4,17,-6,-10,12,6,2,-5,0.838875914
10.638552,18,51,4,14,18,9,5,19,0.838875914
10.638555,-21,-54,3,-10,3,-19,-10,-38,0.838875914
10.659361,4,-2,0,6,-36,58,9,2,0.838875914
10.659387,-18,6,3,10,-15,-69,-19,-30,0.838875914
10.661120,13,81,13,11,-13,-5,-9,26,0.838875914
10.661137,-8,-77,-16,-18,53,12,-2,-21,0.838875914
10.681839,18,69,10,-1,-67,24,5,-9,0.838875914
10.681864,-58,-82,-10,8,68,2,-3,-22,0.838875914
10.683063,22,30,3,7,-28,-8,-5,-4,0.838875914
10.683082,-3,61,7,7,40,14,-62,-23,0.838875914
10.696870,15,4,-6,-9,0,-19,37,76,0.838875914
10.696906,-2,72,8,4,-44,-8,-16,-27,0.838875914
10.698918,-4,-120,-10,-11,-28,-1,-7,-8,0.838875914
10.698939,29,109,17,12,15,9,3,0,0.838875914
10.719306,-22,-110,-16,-9,31,24,2,-46,0.838875914
10.719331,43,80,3,7,9,4,-19,6,0.838875914
10.720811,-29,-18,-3,-8,33,25,4,11,0.838875914
10.720832,7,61,0,-1,-40,-42,4,-13,0.838875914
10.741733,-27,43,5,-1,-22,-16,-6,2,0.838875914
10.741757,-11,-64,-11,-20,-82,4,22,-5,0.838875914
10.743396,31,-23,3,9,110,29,0,-52,0.838875914
10.743409,-14,18,6,3,-10,33,15,-5,0.838875914
10.755373,16,-41,-3,1,33,-43,-17,61,0.849556776
10.755391,-38,30,6,0,-58,-6,18,32,0.849556776
10.765194,-37,-73,-13,-9,30,5,10,-66,0.849556776
10.765205,7,32,10,-1,-27,8,15,18,0.849556776
10.780882,23,22,-5,3,1,-25,-18,1,0.849556776
10.780893,15,-35,-5,-4,14,6,4,-31,0.849556776
10.780896,15,-44,-6,0,-5,-13,-11,31,0.849556776
10.780898,-42,14,4,0,-9,-15,13,-23,0.849556776
10.802096,-9,6,0,-5,-44,-8,-3,-26,0.849556776
10.802117,8,46,-3,13,-14,-1,2,0,0.849556776
10.804131,-14,13,2,-5,34,44,4,9,0.849556776
10.804153,13,-54,-8,-11,-32,-9,6,13,0.849556776
10.824300,2,41,9,4,-1,-27,-12,-55,0.849556776
10.824319,-3,-11,-7,6,42,19,7,7,0.849556776
10.826307,36,-27,-5,-2,-87,21,9,37,0.849556776
10.826319,16,24,0,-11,-18,-77,10,-12,0.849556776
10.839228,-55,-40,-7,-20,31,1,-14,-76,0.849556776
10.839245,-3,6,1,-6,-11,39,36,-38,0.849556776
10.840962,-5,25,1,15,55,-5,-1,-25,0.849556776
10.840974,-28,7,-3,0,-8,-12,-8,-10,0.849556776
10.861882,15,-35,-3,10,-13,-3,-6,3,0.849556776
10.861898,36,36,4,-4,-38,-27,-22,40,0.849556776
10.863187,-20,42,-6,-13,-19,12,18,3,0.849556776
10.863202,7,-30,-2,17,25,27,4,4,0.849556776
10.875306,23,25,0,-14,-1,-2,-3,15,0.849556776
10.875323,-16,8,5,-11,24,15,-10,-3,0.849556776
10.886052,0,-86,0,-8,-12,-17,-8,9,0.849556776
10.886073,-16,65,8,15,-6,-1,-2,4,0.849556776
10.899699,39,-15,-6,-10,-34,-11,-12,39,0.849556776
10.899742,-38,-32,-2,11,65,17,11,28,0.849556776
10.902647,51,71,1,-1,-11,5,-31,45,0.849556776
10.902663,-81,-37,-7,-13,-11,-38,6,-27,0.849556776
10.923449,55,75,8,23,5,28,24,-4,0.849556776
10.923462,-2,45,-15,0,105,63,-43,-69,0.849556776
10.923465,-20,-60,-3,-10,-54,-58,0,4,0.849556776
10.923468,16,-8,-2,-8,4,30,-12,-13,0.849556776
10.936749,15,40,2,4,-8,-14,1,12,0.849556776
10.936796,16,18,5,-1,-30,-20,5,15,0.849556776
10.943064,-26,31,6,-3,24,-2,0,-27,0.849556776
10.943085,28,-27,-2,-7,-6,4,0,9,0.849556776
10.959419,-22,-10,6,-3,-1,-15,-7,-18,0.849556776
10.959537,23,50,8,4,29,-5,4,-10,0.849556776
10.960805,-6,-83,-7,5,-14,-11,16,39,0.849556776
10.960821,-6,-18,-5,-17,-56,-13,11,-22,0.849556776
10.981953,14,16,-4,16,95,27,-1,-12,0.849556776
10.981978,-27,-33,1,4,-93,-26,-25,-5,0.849556776
10.984851,6,91,8,6,-13,56,9,7,0.849556776
10.984863,26,-53,-19,4,27,-38,11,64,0.849556776
10.996464,-35,2,-6,-23,-22,93,0,3,0.849556776
10.996496,12,-79,-17,-28,-45,14,-2,-23,0.849556776
11.003282,33,97,9,3,-14,-4,13,34,0.856974786
11.003314,-12,28,7,20,15,8,-46,-28,0.856974786
11.019269,-7,-35,5,-21,5,-25,-6,-10,0.856974786
11.019328,-4,-28,1,31,41,-20,18,-17,0.856974786
11.021142,-20,61,2,-10,10,-1,0,-25,0.856974786
11.021167,18,1,1,-7,14,18,-13,24,0.856974786
11.041801,-3,-59,-7,-3,-21,-25,-2,23,0.856974786
11.041827,8,4,5,-2,-2,-14,-2,16,0.856974786
11.043302,-15,-28,-6,9,10,-22,5,-14,0.856974786
11.043383,13,64,6,-4,21,24,22,4,0.856974786
11.056116,-22,82,11,22,-48,54,-23,-13,0.856974786
11.056134,50,-55,-21,-8,15,45,2,17,0.856974786
11.063030,-24,70,6,-5,-35,-9,2,4,0.856974786
11.063055,-18,25,-8,5,20,-8,-6,-6,0.856974786
11.080041,0,-11,-1,-10,9,7,2,-24,0.856974786
11.080059,29,52,19,6,-11,9,16,60,0.856974786
11.080640,-3,0,-4,-10,-12,-13,-7,-27,0.856974786
11.080649,-69,-105,-7,-5,3,34,19,-24,0.856974786
11.102283,23,55,6,8,-24,-59,1,31,0.856974786
11.102309,2,-77,-12,-5,25,-12,4,-12,0.856974786
11.104733,-9,-10,-3,-1,-8,-18,-6,-23,0.856974786
11.104745,-7,3,3,-8,10,16,22,-39,0.856974786
11.115463,-2,12,-4,10,-1,-26,-5,-16,0.856974786
11.115481,-28,-9,5,-1,-22,-22,11,-18,0.856974786
11.126012,5,-35,-6,0,-3,23,-28,7,0.856974786
11.126022,35,-18,-2,9,19,12,-1,19,0.856974786
11.139355,-42,7,-9,-23,-50,83,14,9,0.856974786
11.139373,2,20,9,21,78,1,4,-35,0.856974786
11.141124,-6,34,3,5,3,-16,-21,20,0.856974786
11.141136,-1,-75,-7,-7,8,11,-1,-23,0.856974786
11.162030,-3,-8,0,10,24,-18,-10,-32,0.856974786
11.162061,-42,-20,-3,-4,-47,-28,1,13,0.856974786
11.165247,7,-19,-6,-14,14,32,5,-28,0.856974786
11.165257,23,73,7,7,-1,-13,-9,-7,0.856974786
11.175435,19,-75,-7,-11,-1,-38,4,20,0.856974786
11.175448,-5,87,0,2,-28,5,-3,-18,0.856974786
11.186914,13,-93,-13,-1,14,-47,-22,-7,0.856974786
11.186934,-1,48,3,16,52,29,-2,7,0.856974786
11.200170,-9,4,0,5,-11,23,-4,-3,0.856974786
11.200195,26,-15,-12,-21,-65,-62,-19,-44,0.856974786
11.202369,-31,-32,-2,4,15,90,3,-29,0.856974786
11.202383,15,29,4,15,20,-19,4,7,0.856974786
11.221804,8,69,4,-1,15,-6,16,6,0.856974786
11.221820,-8,-61,-3,-4,5,-3,-8,-2,0.856974786
11.223249,-8,16,-6,1,-8,-9,0,-8,0.856974786
11.223327,-4,-19,0,-5,-26,8,-7,-12,0.856974786
11.235696,12,-26,-7,-10,1,-36,-9,-4,0.856974786
11.235708,-11,69,4,-6,-21,29,2,15,0.856974786
11.250729,4,-12,1,-3,7,-34,18,23,0.856974786
11.250758,-2,28,-2,-5,14,34,-14,-6,0.856974786
11.259437,-14,-102,5,21,43,-1,12,20,0.874131766
11.259460,-1,28,4,-8,-72,14,-7,42,0.874131766
11.261581,-5,17,-7,4,68,-71,37,-20,0.874131766
11.261592,-2,-14,6,-5,-36,-8,2,7,0.874131766
11.284100,-36,-7,-13,-5,16,-5,-6,-71,0.874131766
11.284111,-17,44,11,17,52,14,-4,-1,0.874131766
11.284114,52,-6,-3,-1,-40,-36,-16,-10,0.874131766
11.284117,-87,-8,-5,-9,-39,-9,23,-21,0.874131766
11.295424,-3,18,8,5,1,-32,-60,-39,0.874131766
11.295450,3,9,-7,0,44,43,19,5,0.874131766
11.305649,1,-11,0,0,-16,8,-11,5,0.874131766
11.305662,25,-19,-6,-3,10,-11,-6,44,0.874131766
11.320240,-6,-1,6,-6,-32,-2,20,36,0.874131766
11.320255,3,8,5,1,35,-2,-1,6,0.874131766
11.321972,4,62,0,16,14,8,-14,8,0.874131766
11.321995,12,-46,-18,-32,-41,12,-5,-14,0.874131766
11.341859,-18,-7,4,21,16,5,14,18,0.874131766
11.341876,13,-3,1,-4,-36,0,-7,13,0.874131766
11.344303,14,73,4,-13,27,24,14,-74,0.874131766
11.344315,-7,-43,-6,13,78,-49,-37,15,0.874131766
11.355446,17,20,-9,-13,-12,7,3,4,0.874131766
11.355464,-12,-9,-9,-11,1,1,-4,58,0.874131766
11.366021,4,6,6,8,-41,-60,-1,10,0.874131766
11.366030,23,65,10,3,-41,2,6,-9,0.874131766
11.379962,-7,-53,-13,-27,-33,29,4,3,0.874131766
11.380055,-24,-20,0,16,43,-21,-9,-32,0.874131766
11.381193,-1,-37,0,-3,-5,37,-3,6,0.874131766
11.381209,40,25,-3,-7,-16,-19,-4,1,0.874131766
11.401798,-2,27,0,6,-2,-39,27,18,0.874131766
11.401814,14,-23,4,-4,-6,7,-36,-21,0.874131766
11.404444,-22,-40,-5,-16,27,15,-37,9,0.874131766
11.404457,9,-15,-5,0,-43,-20,-3,-26,0.874131766
11.415784,9,16,2,14,-12,28,-15,-37,0.874131766
11.415816,-3,47,5,6,76,80,41,17,0.874131766
11.424511,10,-10,0,1,-12,1,7,27,0.874131766
11.424519,-1,0,4,1,0,12,-17,-14,0.874131766
11.439610,4,-9,-3,-13,-14,-33,-28,-68,0.874131766
11.439621,-6,1,-3,-4,-30,-10,7,13,0.874131766
11.440818,-25,-81,-9,-3,21,51,-7,0,0.874131766
11.440832,-43,-39,-5,-7,-63,-40,39,-60,0.874131766
11.462061,-25,18,5,26,107,23,5,40,0.874131766
11.462094,28,-97,-21,-20,-23,-35,-16,-29,0.874131766
11.464291,3,40,5,10,-5,-2,4,6,0.874131766
11.464301,14,-1,-3,-12,-2,-3,-7,-10,0.874131766
11.475514,-18,24,8,-3,-39,18,11,5,0.874131766
11.475532,-12,23,2,0,-20,17,-16,-15,0.874131766
11.486400,-2,-29,-4,-4,5,-63,5,-2,0.874131766
11.486415,12,6,6,6,22,54,3,29,0.874131766
11.499459,17,7,-1,-2,-13,-22,2,20,0.874131766
11.499488,21,2,3,0,-21,0,8,15,0.874131766
11.502260,-32,17,-3,-9,33,74,-24,-1,0.874131766
11.502273,15,40,-3,-14,-39,-62,16,43,0.874131766
11.521769,-30,14,14,25,111,77,44,94,0.877097168
11.521834,-15,-90,-11,-9,-15,-13,-14,-57,0.877097168
11.523286,17,115,2,-2,-11,-9,12,9,0.877097168
11.523304,-22,-56,0,0,-22,8,-25,1,0.877097168
11.544501,7,61,0,-15,-20,-17,-12,-16,0.877097168
11.544526,-15,-10,-2,-6,-19,-33,11,-43,0.877097168
11.547144,26,-20,5,9,-26,3,-2,43,0.877097168
11.547163,-22,31,-3,-4,34,36,-19,-18,0.877097168
11.559453,6,-16,-2,-1,-19,16,-4,-17,0.877097168
11.559477,-14,40,-2,2,14,-70,4,-4,0.877097168
11.561485,1,-45,-5,3,-23,-9,-10,-30,0.877097168
11.561497,22,25,0,1,40,2,-9,-1,0.877097168
11.581672,-23,-75,-3,15,49,62,11,-4,0.877097168
11.581683,-42,21,-3,7,-38,-27,35,57,0.877097168
11.583214,-3,3,0,-14,-6,-19,-29,-53,0.877097168
11.583221,27,-85,0,16,-1,15,13,34,0.877097168
11.604397,5,1,0,-6,-27,-81,-14,-45,0.877097168
11.606303,19,25,0,-6,-44,10,-37,-6,0.877097168
11.606316,-7,68,8,18,64,20,1,-65,0.877097168
11.606319,-66,-45,-7,-14,27,26,2,-19,0.877097168
11.619622,9,-60,-9,2,-20,-19,-31,-19,0.877097168
11.621818,30,36,9,-1,15,15,12,4,0.877097168
11.621831,-7,-3,-3,-11,-40,-32,-3,7,0.877097168
11.621834,31,27,4,15,33,58,-1,-34,0.877097168
11.643041,-9,-21,-7,-15,-28,16,15,7,0.877097168
11.643059,-3,-10,-7,-2,36,-1,-11,-6,0.877097168
11.643146,-1,-7,6,-5,47,23,33,21,0.877097168
11.643154,31,-17,-7,5,3,50,21,27,0.877097168
11.664575,-8,84,4,-21,-12,10,4,-4,0.877097168
11.664607,-61,-89,-4,2,16,12,-19,1,0.877097168
11.666121,0,-32,-8,-4,-39,-6,6,32,0.877097168
11.666130,14,38,-2,-2,-28,-3,-13,-52,0.877097168
11.679355,17,-3,-9,-5,10,20,-10,14,0.877097168
11.679373,20,38,11,16,31,19,20,-25,0.877097168
11.681149,0,-14,-15,-26,7,-14,-9,82,0.877097168
11.681166,-19,-83,-5,-3,-3,-23,-25,-29,0.877097168
11.702074,-10,25,0,-4,-19,-32,15,25,0.877097168
11.702107,22,57,10,7,10,87,4,53,0.877097168
11.705010,5,-82,-4,4,-50,-3,14,-3,0.877097168
11.705024,5,60,6,6,-3,-13,-1,14,0.877097168
11.724284,1,-42,-10,-6,32,-4,-12,0,0.877097168
11.724302,38,67,8,-1,-32,-2,5,10,0.877097168
11.725756,-26,12,4,6,16,3,-5,-10,0.877097168
11.725769,3,45,-1,-10,-40,-6,18,25,0.877097168
11.738530,7,-20,6,1,-16,-21,-39,-17,0.877097168
11.738547,-21,-2,-6,2,9,5,2,-15,0.877097168
11.745451,25,-45,-14,-21,-38,12,20,-2,0.877097168
11.745476,-1,36,16,4,34,-24,-7,-3,0.877097168
11.761927,-30,-32,-10,-2,-57,-12,17,39,0.877097168
11.761951,25,19,1,0,41,32,-24,-23,0.877097168
11.764188,11,75,-3,8,38,-28,10,-5,0.877097168
11.764198,-14,10,10,6,-20,-49,85,17,0.877097168
11.786147,43,-68,-11,-5,1,-15,-17,-23,0.863514000
11.786161,-11,32,4,-5,-13,-41,-6,-15,0.863514000
11.786164,-16,-44,-1,3,-20,7,-4,-5,0.863514000
11.786167,21,-33,-1,-4,-2,46,-15,2,0.863514000
11.798866,-9,45,11,6,8,-12,-3,-1,0.863514000
11.801782,-15,-10,-9,-11,-23,-23,17,-52,0.863514000
11.805556,-4,0,-4,6,31,4,-25,-28,0.863514000
11.805573,1,19,-4,-5,-5,0,-6,17,0.863514000
11.821857,3,-3,-1,-11,15,7,1,-6,0.863514000
11.821877,17,-12,-9,-22,-35,6,3,19,0.863514000
11.823892,42,104,17,19,57,-10,-7,33,0.863514000
11.823904,-53,-8,-19,-8,-24,52,-22,0,0.863514000
11.844880,0,-23,-4,-7,-52,-51,10,-55,0.863514000
11.844912,34,25,4,7,37,76,29,77,0.863514000
11.847148,-3,46,2,16,4,-19,-8,-19,0.863514000
11.847159,11,-18,0,6,-26,20,3,2,0.863514000
11.859037,-11,-6,1,-1,45,32,3,-45,0.863514000
11.861068,17,42,7,-8,6,-20,-13,0,0.863514000
11.865852,-41,-65,-5,-4,-58,2,10,-39,0.863514000
11.865878,40,-37,10,15,49,-12,-31,47,0.863514000
11.881927,-2,-22,-8,-1,8,-14,22,15,0.863514000
11.881939,-48,55,2,6,-15,-21,-29,-79,0.863514000
11.885254,-7,-40,-4,3,13,19,-2,18,0.863514000
11.885265,-28,12,-6,-10,-10,-38,8,-26,0.863514000
11.904530,12,10,3,6,-2,11,-9,-35,0.863514000
11.904549,-4,-116,-9,-5,-42,-19,2,6,0.863514000
11.905913,25,24,1,-11,-26,-10,2,30,0.863514000
11.905926,-21,-2,5,18,37,54,-12,44,0.863514000
11.919068,4,60,-8,-16,-20,-49,-21,3,0.863514000
11.921665,-3,-49,-11,0,16,-44,-15,-9,0.863514000
11.933276,-63,-46,1,-4,6,70,-11,-14,0.863514000
11.933300,29,19,-11,-14,10,22,-17,-37,0.863514000
11.942161,7,54,9,0,-35,1,1,-10,0.863514000
11.942195,-15,28,-5,5,32,12,-8,-6,0.863514000
11.944111,43,17,0,-7,-19,-24,17,26,0.863514000
11.944125,-28,-7,-8,-11,-36,-46,-18,-17,0.863514000
11.964883,-26,-50,2,21,45,48,19,7,0.863514000
11.964915,-3,25,-7,-21,-31,-21,20,13,0.863514000
11.968394,34,17,0,1,-6,8,9,-15,0.863514000
11.968405,10,27,-7,-11,-39,18,-2,-8,0.863514000
11.978779,14,20,9,-9,-1,-16,-3,76,0.863514000
11.978803,-16,-60,-1,8,58,29,23,12,0.863514000
11.985482,-5,47,10,14,25,-17,-15,-16,0.863514000
11.985543,2,-47,2,-6,-19,4,10,9,0.863514000
12.002304,-44,15,1,-4,-8,36,-35,-62,0.863514000
12.002318,20,7,1,30,17,-71,27,15,0.863514000
12.003332,-13,43,-2,-2,-27,22,-38,-9,0.863514000
12.003355,-28,-78,4,13,45,-19,-10,-22,0.863514000
12.024357,46,52,-3,2,-14,13,5,-4,0.863514000
12.024406,5,-21,3,-3,8,15,-15,-9,0.863514000
12.026674,-11,-23,-7,-6,-3,10,14,1,0.877646982
12.026687,1,74,3,3,15,-32,6,4,0.877646982
12.038020,2,21,4,3,-10,6,-5,55,0.877646982
12.038039,-23,-100,-14,-18,-41,-4,2,10,0.877646982
12.048652,-17,-23,0,-3,9,1,41,13,0.877646982
12.048664,3,97,5,-9,16,24,-44,-4,0.877646982
12.062244,58,-73,1,14,25,33,-9,-2,0.877646982
12.062276,-80,4,-10,-6,6,-44,4,31,0.877646982
12.064592,-29,-39,0,-3,-33,6,-5,-30,0.877646982
12.064604,27,19,-1,14,36,74,14,-6,0.877646982
12.084536,-10,30,2,-29,-47,-43,4,-9,0.877646982
12.084556,26,-1,-4,-2,17,43,-36,-25,0.877646982
12.085659,-17,11,-6,6,-81,-14,-18,-12,0.877646982
12.085683,-34,-18,-7,-8,1,-24,17,6,0.877646982
12.097986,-29,-43,-14,-8,-29,9,-16,56,0.877646982
12.098032,4,7,7,-6,-14,-5,10,-18,0.877646982
12.108102,-10,-11,-5,-7,-9,-11,13,4,0.877646982
12.108113,3,34,2,-15,2,-7,-23,-72,0.877646982
12.121924,21,18,-3,14,17,-34,14,-7,0.877646982
12.121941,-7,7,5,2,-13,32,-12,-5,0.877646982
12.123763,-13,39,4,-2,3,14,-4,16,0.877646982
12.123776,-1,-54,3,-3,-39,-41,27,68,0.877646982
12.144351,14,84,-1,3,72,28,15,-1,0.877646982
12.144366,-19,-28,-2,-9,-52,24,-4,-16,0.877646982
12.145709,33,42,14,9,-8,-17,-27,-17,0.877646982
12.145722,15,-37,-8,-16,26,25,23,6,0.877646982
12.157830,5,16,5,24,13,-34,8,66,0.877646982
12.157846,18,24,6,-7,-43,-14,-8,23,0.877646982
12.168149,-20,-46,-8,12,82,40,15,13,0.877646982
12.168159,16,40,1,1,-26,-27,-20,-15,0.877646982
12.181950,-12,22,1,1,-10,17,-8,-12,0.877646982
12.181974,-1,-63,-3,2,7,-21,-16,-19,0.877646982
12.184371,61,42,6,-5,13,21,3,76,0.877646982
12.184389,-71,-76,-5,9,15,16,3,2,0.877646982
12.204573,0,-6,0,-5,-23,-18,3,-24,0.877646982
12.204585,12,11,-1,3,37,31,-3,4,0.877646982
12.213290,-25,-30,-1,-8,-7,-80,-29,-110,0.877646982
12.213306,46,15,11,10,-53,36,27,64,0.877646982
12.221412,-10,2,-6,14,48,-2,-1,-4,0.877646982
12.221432,2,32,-1,1,23,52,12,-4,0.877646982
12.229006,3,-86,-8,-13,18,-27,-9,17,0.877646982
12.229015,-12,12,-2,1,-12,-67,8,-11,0.877646982
12.242048,7,-43,-3,-4,-9,21,14,-11,0.877646982
12.242081,21,25,1,2,-47,-20,-11,0,0.877646982
12.244868,17,98,-4,-26,4,7,-3,-6,0.877646982
12.244879,-9,-75,0,22,44,11,33,-28,0.877646982
12.264792,-29,-9,-2,-8,-16,-4,-13,-2,0.877646982
12.264824,18,11,0,-1,27,31,7,-35,0.877646982
12.267799,-13,36,0,1,-27,-4,3,30,0.877646982
12.267807,16,-44,-5,-4,7,-18,-31,-4,0.877646982
12.278183,-23,-1,-2,-7,-4,10,-9,-24,0.877646982
12.278208,6,15,-5,-8,-9,1,4,4,0.877646982
12.289105,31,46,7,31,-30,-4,9,-1,0.877444184
12.289120,-74,-15,-11,-16,23,8,-21,2,0.877444184
12.302304,7,-58,-7,11,46,-2,16,-53,0.877444184
12.302333,-24,33,5,4,29,5,2,-3,0.877444184
12.303315,23,-79,-12,-17,-58,14,29,4,0.877444184
12.305319,44,57,-2,-4,35,-12,-46,46,0.877444184
12.324208,0,20,0,-10,-26,5,-9,-52,0.877444184
12.326386,-24,0,2,4,22,8,7,16,0.877444184
12.326405,7,-21,3,2,1,-14,5,-16,0.877444184
12.326411,13,47,2,-1,-57,10,11,-27,0.877444184
12.337889,-19,-32,-7,-13,7,-12,-6,9,0.877444184
12.337910,23,-4,2,3,1,-19,-4,14,0.877444184
12.353191,8,62,11,4,11,18,0,62,0.877444184
12.353224,-51,-99,-15,-20,-111,1,5,-60,0.877444184
12.361682,10,31,2,2,82,-6,-71,22,0.877444184
12.361699,25,-26,-1,17,38,-9,21,66,0.877444184
12.363201,-12,-81,-13,-7,-23,-18,3,-20,0.877444184
12.363283,22,70,6,-3,39,49,5,2,0.877444184
12.384551,34,62,10,-1,-54,12,10,7,0.877444184
12.384584,-42,-27,-3,-5,-17,21,-9,-28,0.877444184
12.387415,-1,7,1,3,20,19,-8,-5,0.877444184
12.387429,27,35,6,9,8,-21,-1,8,0.877444184
12.398319,1,-30,-4,-5,-25,-5,5,3,0.877444184
12.398336,-13,6,-3,-7,0,-1,-5,-70,0.877444184
12.406925,33,-2,2,5,28,-4,-2,71,0.877444184
12.406939,-15,9,-2,15,37,30,-3,-59,0.877444184
12.422414,9,43,4,-13,-30,47,27,19,0.877444184
12.422426,-2,-30,-4,-5,18,-24,3,10,0.877444184
12.423176,-29,-69,-7,2,2,-8,-59,-39,0.877444184
12.423183,-3,-31,-4,14,68,3,65,-8,0.877444184
12.444781,1,14,-3,-11,-29,-15,-56,6,0.877444184
12.444805,23,46,4,2,-33,-25,-2,18,0.877444184
12.447292,-8,4,-4,-1,7,24,7,-15,0.877444184
12.447303,30,44,10,-7,-15,17,-25,15,0.877444184
12.468986,-82,-107,-4,8,-15,-39,25,-15,0.877444184
12.468999,27,24,0,-5,1,-4,9,16,0.877444184
12.469049,-29,37,-1,-2,-2,6,-31,-27,0.877444184
12.469052,20,11,0,-2,19,39,-8,2,0.877444184
12.489283,-35,-49,-10,-6,9,34,54,-37,0.877444184
12.489339,-17,91,6,-3,15,9,-36,-42,0.877444184
12.490870,1,-106,-20,6,76,-48,25,57,0.877444184
12.490890,18,64,0,-11,-58,-34,-37,-18,0.877444184
12.504489,9,28,2,7,51,15,15,-3,0.877444184
12.504555,-2,-22,-2,1,-12,26,2,6,0.877444184
12.507350,-1,58,3,8,-46,22,22,-38,0.877444184
12.507364,10,30,10,0,0,-27,3,-3,0.877444184
12.527372,12,33,-5,-2,-5,-21,-10,23,0.877444184
12.527468,14,-119,-6,-4,-13,-3,-4,-13,0.877444184
12.529324,-17,79,4,-5,0,4,4,-12,0.877444184
12.529337,-18,-56,-6,-3,-7,-25,-2,2,0.877444184
12.541763,-15,-49,-7,1,-17,5,8,-1,0.868255038
12.541787,9,8,7,18,13,30,-16,26,0.868255038
12.544155,36,51,4,-11,55,86,16,-1,0.868255038
12.544168,-37,2,-3,-7,-66,-58,-4,-4,0.868255038
12.564195,25,57,9,17,2,37,8,-7,0.868255038
12.564210,-6,-95,-18,-15,-30,-89,-9,-21,0.868255038
12.565612,-3,-26,1,-3,7,-15,-1,4,0.868255038
12.565621,-6,21,-3,-1,-6,17,4,8,0.868255038
12.586735,26,-12,-4,-4,4,-10,-19,-18,0.868255038
12.586755,-9,24,2,4,-49,-2,-3,17,0.868255038
12.588873,21,13,6,2,-2,5,8,-18,0.868255038
12.588886,-13,-66,-4,-9,-12,-19,-2,17,0.868255038
12.601719,7,23,2,1,37,-12,-5,19,0.868255038
12.601736,27,-4,3,-5,-9,-11,3,7,0.868255038
12.603601,-32,-91,-2,-1,-33,32,-10,-10,0.868255038
12.603618,0,-27,-3,-3,11,-18,-10,-5,0.868255038
12.625349,19,2,6,9,74,27,-7,0,0.868255038
12.625368,13,82,0,-1,-8,30,11,7,0.868255038
12.625687,-19,22,3,-3,-56,-47,-3,-12,0.868255038
12.625697,-3,-8,-4,6,31,67,8,37,0.868255038
12.647149,-4,-34,-2,-15,-55,-75,-8,-18,0.868255038
12.647174,-13,-37,-7,-5,-16,60,9,-38,0.868255038
12.649141,11,1,-5,-5,36,-3,-18,13,0.868255038
12.649151,-7,-28,-6,0,-15,36,11,-11,0.868255038
12.661052,15,26,0,0,-37,1,16,20,0.868255038
12.661070,-17,13,-3,2,8,-7,1,-47,0.868255038
12.667913,-22,15,5,0,6,-33,-12,-53,0.868255038
12.670413,13,-39,2,-2,3,-4,3,2,0.868255038
12.684741,5,3,2,11,-3,4,6,-1,0.868255038
12.684766,14,70,9,-9,-42,-14,-27,48,0.868255038
12.687368,-6,-94,-5,3,54,58,31,7,0.868255038
12.687382,67,79,-4,6,5,-47,-3,3,0.868255038
12.706803,-2,-13,-3,-12,-24,16,-18,-13,0.868255038
12.706820,3,26,0,12,-33,11,29,61,0.868255038
12.708172,-12,-2,-6,-5,9,1,-43,-74,0.868255038
12.708187,37,1,6,9,25,-42,9,41,0.868255038
12.721112,-17,-35,-5,-1,23,-4,-14,-6,0.868255038
12.721131,16,85,11,6,0,-6,21,-1,0.868255038
12.727907,17,40,-6,-14,-41,-9,-5,-7,0.868255038
12.727925,-29,-28,-14,-23,-14,25,-2,-29,0.868255038
12.744170,5,23,-5,6,12,5,14,10,0.868255038
12.744187,-9,-35,3,9,45,-10,-22,-15,0.868255038
12.745664,-32,-26,2,3,-4,-12,23,31,0.868255038
12.745676,-6,-10,-2,-11,19,-4,-7,43,0.868255038
12.768099,20,46,8,-4,-20,21,-14,36,0.868255038
12.768111,-14,-58,0,17,91,-10,23,56,0.868255038
12.768115,54,44,-9,2,-28,-8,4,14,0.868255038
12.768161,-29,-8,-4,-1,-18,19,8,31,0.868255038
12.782979,-16,-46,-3,-13,-57,-22,-20,-77,0.868255038
12.782991,-7,12,-2,-4,27,-78,-29,-13,0.868255038
12.788200,-4,23,10,12,-31,29,16,-1,0.868255038
12.788226,2,22,0,-4,15,-41,-7,-18,0.868255038
12.804377,33,59,2,-5,-30,15,19,12,0.866033239
12.806113,-17,-77,-7,-5,3,19,-17,-3,0.866033239
12.806128,-28,27,-2,-4,2,-22,-2,11,0.866033239
12.806132,52,80,3,12,3,-1,-24,-24,0.866033239
12.827226,-86,-128,-3,-21,-24,20,23,5,0.866033239
12.827244,17,43,1,3,44,-16,-19,-13,0.866033239
12.829203,-10,25,-1,3,-3,52,16,-1,0.866033239
12.829214,-17,-3,6,5,-18,-3,4,24,0.866033239
12.841346,7,25,4,11,-18,0,-4,18,0.866033239
12.841370,8,45,5,-8,-29,-1,11,38,0.866033239
12.848180,-16,-52,-3,-13,37,23,-23,35,0.866033239
12.848204,-4,61,2,7,6,-56,9,-34,0.866033239
12.864231,6,-49,-13,-11,7,22,-2,12,0.866033239
12.864244,-11,-13,-4,-4,-34,-1,10,-32,0.866033239
12.865570,-3,12,6,-1,-2,-31,-5,-27,0.866033239
12.865579,-3,-8,-2,-6,-32,49,-14,-3,0.866033239
12.887260,18,30,-1,3,63,-69,16,11,0.866033239
12.887285,-18,4,-5,-7,-15,14,12,-34,0.866033239
12.889521,27,-19,-3,-6,16,-17,9,19,0.866033239
12.889534,-1,13,-2,-1,-3,5,1,-11,0.866033239
12.901172,-12,-30,-5,3,-27,0,0,-10,0.866033239
12.901189,10,17,-2,-2,31,41,3,-24,0.866033239
12.907961,4,-23,-1,2,-8,7,13,16,0.866033239
12.907979,-16,9,-4,3,-38,-20,0,-13,0.866033239
12.924573,11,36,2,4,63,23,-9,-21,0.866033239
12.924585,3,-96,-9,5,43,14,2,3,0.866033239
12.925726,-5,40,6,-1,-18,17,-3,-2,0.866033239
12.925740,15,0,-3,1,21,-66,-7,-50,0.866033239
12.947293,-43,-36,0,-14,-39,22,-25,38,0.866033239
12.947328,19,14,-2,0,-17,9,37,34,0.866033239
12.953284,-55,-3,-3,3,15,19,-17,36,0.866033239
12.953317,18,-35,3,4,-1,27,-5,15,0.866033239
12.960508,36,34,1,9,23,-7,-4,-2,0.866033239
12.960528,-43,51,1,2,-14,-10,-8,-19,0.866033239
12.971464,21,-63,-8,-6,-4,-16,-1,-15,0.866033239
12.971478,-36,-32,2,-3,26,21,2,-39,0.866033239
12.984647,7,22,1,9,-21,-55,10,-22,0.866033239
12.984679,21,10,-7,-20,9,67,-6,-11,0.866033239
12.987308,9,2,-2,25,64,9,1,-21,0.866033239
12.987323,7,22,-6,-12,-60,-8,10,18,0.866033239
13.006851,-26,-104,-13,5,3,4,-53,-53,0.866033239
13.006868,-31,-6,-1,-17,-7,-40,-17,40,0.866033239
13.008282,1,23,-11,-12,-8,-36,7,-17,0.866033239
13.008296,13,-24,3,-4,16,20,-15,4,0.866033239
13.020519,32,71,5,6,-27,4,16,26,0.866033239
13.020611,-33,-47,1,2,-34,-10,-11,32,0.866033239
13.031431,3,31,-2,-3,-42,7,-3,32,0.866033239
13.031454,-28,-84,-3,3,19,19,-19,1,0.866033239
13.044892,17,78,5,-4,-2,24,5,-5,0.866033239
13.044916,14,-64,-3,2,1,-11,-9,-5,0.866033239
13.047325,15,14,2,-2,-18,-9,16,-11,0.866033239
13.047335,-5,13,3,-2,-9,-23,10,54,0.866033239
13.066804,-3,55,1,-18,2,21,-7,11,0.861242625
13.066820,-18,-5,-10,12,57,24,29,-53,0.861242625
13.068176,-9,42,2,-5,-13,-34,-19,-7,0.861242625
13.068211,18,-60,-4,-6,34,59,13,-25,0.861242625
13.081083,-12,1,-4,-3,-4,-79,-20,5,0.861242625
13.081099,6,66,8,1,-44,31,7,1,0.861242625
13.090297,-34,-57,-2,-3,3,19,13,-25,0.861242625
13.090309,7,14,-6,14,52,-30,-22,-9,0.861242625
13.104177,-38,-51,5,-22,-36,51,37,0,0.861242625
13.104200,14,-6,-12,-4,-32,-97,-24,-23,0.861242625
13.106354,25,49,6,4,-9,-15,-9,-38,0.861242625
13.106369,-35,-51,-2,4,2,13,5,-15,0.861242625
13.128522,20,-23,1,-4,-5,-3,0,71,0.861242625
13.128534,1,52,-1,0,37,13,6,-18,0.861242625
13.128537,1,-79,-6,-21,-106,-19,-10,-18,0.861242625
13.128540,10,56,5,20,70,67,3,-10,0.861242625
13.140389,-2,27,-5,4,18,-17,-56,-15,0.861242625
13.140415,22,-14,2,-3,-30,-9,-17,-32,0.861242625
13.150478,18,45,-1,12,2,37,5,35,0.861242625
13.150491,-13,3,7,-18,-36,-64,11,-15,0.861242625
13.164593,10,-43,-8,-3,59,47,-3,-22,0.861242625
13.164617,-6,38,-3,-19,28,3,-1,7,0.861242625
13.166951,10,17,2,14,16,4,8,63,0.861242625
13.166961,-41,-24,-2,-10,-15,11,3,-3,0.861242625
13.187284,-5,22,-4,5,10,-10,8,-10,0.861242625
13.187329,0,-24,-3,-10,-30,-7,7,2,0.861242625
13.189623,-5,8,0,-6,34,12,-7,-2,0.861242625
13.189635,-27,38,0,-6,-25,-27,-7,-13,0.861242625
13.200970,70,1,1,6,-6,-11,21,18,0.861242625
13.201002,-62,-14,6,-4,-49,51,5,1,0.861242625
13.210830,-45,18,-6,1,84,-90,-23,-36,0.861242625
13.210843,38,-15,-17,-14,-10,26,7,37,0.861242625
13.224504,-67,-109,-4,-10,-52,11,-3,-75,0.861242625
13.224532,27,11,2,10,28,2,-3,-5,0.861242625
13.225793,-1,-5,1,4,-18,-17,-4,-16,0.861242625
13.225814,-15,59,1,0,-9,-1,3,5,0.861242625
13.247630,13,41,3,0,16,-4,9,5,0.861242625
13.247675,-21,-2,-2,9,-17,-32,-14,-13,0.861242625
13.250166,24,-3,2,-2,-22,34,9,-36,0.861242625
13.250175,18,-72,-1,4,11,10,4,12,0.861242625
13.260847,-39,17,-2,1,-15,14,-8,17,0.861242625
13.260879,-17,-21,-3,-3,-5,-64,27,-3,0.861242625
13.271275,22,43,1,4,19,42,-51,38,0.861242625
13.271289,84,34,-1,-1,2,28,44,53,0.861242625
13.285356,-72,-92,-11,-4,-8,24,5,-5,0.861242625
13.285368,2,3,1,-9,-8,-28,-12,3,0.861242625
13.285731,-1,14,0,-3,8,2,18,-49,0.861242625
13.285741,-9,44,6,0,-40,-29,-19,-14,0.861242625
13.306650,30,0,5,11,10,45,-4,35,0.869210455
13.306670,10,-7,3,6,-40,-13,4,-9,0.869210455
13.308846,11,-8,-6,-12,70,29,12,47,0.869210455
13.308858,-45,-81,8,7,25,2,-12,-12,0.869210455
13.320884,26,-19,-10,-8,-56,-8,3,50,0.869210455
13.320913,-19,-4,2,9,24,-9,3,-29,0.869210455
13.331096,5,4,-3,-12,-38,-24,4,8,0.869210455
13.331105,2,31,1,15,32,9,18,6,0.869210455
13.346856,4,65,4,-7,30,20,12,-4,0.869210455
13.346867,73,-31,-1,9,-2,-8,-21,24,0.869210455
13.346870,-39,-77,0,-2,-55,28,35,37,0.869210455
13.346873,-31,35,-5,-9,-31,-7,-15,-85,0.869210455
13.367022,14,13,8,15,13,-9,5,-30,0.869210455
13.367064,0,19,-3,-6,-3,29,-8,4,0.869210455
13.368648,13,36,-2,9,33,-65,-9,-22,0.869210455
13.368678,21,25,0,-26,-20,13,0,-6,0.869210455
13.389270,-30,-51,-14,-1,23,-30,-5,-52,0.869210455
13.389309,16,17,1,-14,-3,25,0,32,0.869210455
13.391621,-11,-56,-4,21,2,11,-13,-2,0.869210455
13.391641,-8,0,1,-2,-38,-1,15,15,0.869210455
13.404517,28,45,8,6,-10,-44,-39,5,0.869210455
13.404543,-3,10,2,3,18,29,11,19,0.869210455
13.406726,6,4,1,-18,-57,-20,5,-26,0.869210455
13.406738,-10,52,1,6,-5,7,-43,1,0.869210455
13.427252,-26,-40,3,7,3,3,41,-34,0.869210455
13.427277,11,57,2,3,-11,-23,4,14,0.869210455
13.428235,10,-68,-18,-1,9,-7,-16,21,0.869210455
13.428257,-10,-28,-2,9,29,28,12,4,0.869210455
13.449379,20,72,-5,-17,-4,-55,0,14,0.869210455
13.449403,-6,-76,-5,-3,21,44,-10,-21,0.869210455
13.451014,-39,17,0,-2,0,-15,-14,-9,0.869210455
13.451025,20,-7,2,2,-26,-18,-4,26,0.869210455
13.464385,9,34,-2,-1,8,21,-6,19,0.869210455
13.464411,-18,-56,-5,3,6,4,-10,-8,0.869210455
13.466328,22,77,7,-2,-3,6,5,32,0.869210455
13.466339,-13,-59,-8,2,0,-5,2,1,0.869210455
13.486662,-10,90,7,-5,38,-26,-9,-51,0.869210455
13.486679,0,0,-1,17,85,40,-27,34,0.869210455
13.488555,5,33,14,-4,-57,76,54,6,0.869210455
13.488574,12,-72,-19,3,29,-87,12,-6,0.869210455
13.509387,-49,33,7,3,20,19,-21,-5,0.869210455
13.509406,8,-7,-5,-15,-19,34,-2,-12,0.869210455
13.510863,-3,6,-1,-6,-11,-92,-3,-33,0.869210455
13.510876,-14,9,2,-4,1,26,-8,-14,0.869210455
13.524477,9,-25,4,0,5,4,15,-6,0.869210455
13.524529,7,9,-1,-1,-10,-8,-10,-3,0.869210455
13.526710,-27,-3,1,-1,42,32,-23,6,0.869210455
13.526723,35,-6,6,6,-11,-24,2,6,0.869210455
13.546927,-48,-117,-23,-13,-17,-27,-11,3,0.869210455
13.546952,-8,31,2,8,-24,23,14,6,0.869210455
13.549562,13,13,-3,-4,-29,-2,3,-13,0.869210455
13.549573,17,90,4,-10,6,-6,-23,19,0.869210455
13.569685,28,-59,0,20,-9,-10,5,14,0.864518988
13.569705,-31,11,0,-4,-34,-50,6,-94,0.864518988
13.571942,23,-6,0,-18,6,81,-22,-63,0.864518988
13.571957,-69,51,6,0,10,-77,15,-44,0.864518988
13.583700,18,12,-6,-2,-18,65,2,8,0.864518988
13.583726,-11,-36,-2,-20,-6,-14,24,-11,0.864518988
13.590491,17,0,3,8,-15,-24,-24,-14,0.864518988
13.590509,-46,-28,-5,-13,45,36,-4,-8,0.864518988
13.606766,24,42,6,0,-22,21,12,4,0.864518988
13.606782,-12,5,-7,6,7,-16,-5,4,0.864518988
13.608863,1,-82,-3,-13,-49,-36,7,16,0.864518988
13.608882,24,17,3,26,37,55,-6,11,0.864518988
13.629365,-7,-23,1,-6,48,-25,4,31,0.864518988
13.629380,14,46,3,20,12,16,7,39,0.864518988
13.630879,-17,-3,-4,-15,-4,-24,-23,37,0.864518988
13.630929,-5,-29,-9,-3,11,36,-2,-15,0.864518988
13.643607,10,1,-2,-9,-81,-56,2,-8,0.864518988
13.643644,13,82,7,12,101,69,-51,42,0.864518988
13.650499,50,-50,-4,7,36,53,21,63,0.864518988
13.650515,-13,9,-4,-7,-30,-46,0,12,0.864518988
13.666833,16,18,-3,5,12,13,-10,-18,0.864518988
13.666850,-9,-5,1,-24,-61,-34,-16,-20,0.864518988
13.669046,29,75,10,28,43,-19,30,0,0.864518988
13.669065,10,-4,3,14,-18,63,-14,15,0.864518988
13.689407,12,-36,-5,11,44,12,12,22,0.864518988
13.689419,-15,-7,-5,-17,-13,-17,21,-26,0.864518988
13.690732,-22,51,12,11,12,20,-39,32,0.864518988
13.690746,62,-43,-5,-8,27,-26,50,62,0.864518988
13.704977,19,60,7,12,7,10,25,27,0.864518988
13.704990,3,0,1,-9,-27,21,22,-19,0.864518988
13.710392,-42,-19,-11,-2,-18,-3,-73,-36,0.864518988
13.710411,-3,-19,1,10,8,-49,20,3,0.864518988
13.726610,-12,11,-1,1,-11,38,-12,-37,0.864518988
13.726631,14,-13,0,5,-12,-16,7,48,0.864518988
13.728427,7,45,1,-7,-20,31,14,-21,0.864518988
13.728439,-6,-39,-14,-18,-92,-66,-36,-48,0.864518988
13.749557,-44,-46,-5,8,8,29,-4,-11,0.864518988
13.749590,0,19,2,-12,-24,-41,13,-57,0.864518988
13.751971,11,-46,-11,-9,37,-23,3,-59,0.864518988
13.751989,-21,52,2,-21,-52,-13,-35,-15,0.864518988
13.763918,-2,-32,-5,-3,48,-4,33,-11,0.864518988
13.763943,2,-8,-8,-8,-12,-41,8,-12,0.864518988
13.770446,11,69,6,9,-32,0,33,9,0.864518988
13.770471,-28,-77,-4,-2,15,18,-46,43,0.864518988
13.786697,33,73,-1,-8,-52,-27,-28,-49,0.864518988
13.786728,-32,-51,1,21,-1,-10,-6,-6,0.864518988
13.793024,6,55,15,-7,15,-3,6,-9,0.864518988
13.793046,-2,-16,-3,2,-10,15,10,-27,0.864518988
13.809365,15,65,4,-3,4,1,-8,-38,0.864518988
13.809382,-18,-88,-7,2,19,19,1,39,0.864518988
13.810824,-23,-35,-1,-1,-50,-3,5,-8,0.864518988
13.810838,32,127,6,-5,0,-26,26,-13,0.864518988
13.823656,-67,-107,-4,-1,13,26,-4,33,0.880851239
13.825880,-10,0,-6,-14,-3,-47,-41,-24,0.880851239
13.837979,-5,-49,-10,-2,-6,27,-1,10,0.880851239
13.837998,3,-22,0,12,-12,-39,-2,-4,0.880851239
13.847157,-17,23,1,4,30,102,-2,29,0.880851239
13.847174,51,2,-3,-4,25,5,44,17,0.880851239
13.849350,-19,15,-5,1,-30,-23,-14,-3,0.880851239
13.849361,9,8,5,-2,45,28,-25,9,0.880851239
13.868482,28,-47,-5,-10,-25,-24,8,-5,0.880851239
13.868504,14,0,10,8,-5,33,9,3,0.880851239
13.878697,-39,-20,5,8,41,-16,-6,99,0.880851239
13.878716,8,-47,-8,-8,-11,21,24,-37,0.880851239
13.883600,26,19,0,5,-29,-27,10,17,0.880851239
13.883610,3,60,1,-7,-13,18,-13,-12,0.880851239
13.892954,-34,-95,-12,-5,41,1,17,-39,0.880851239
13.892965,29,55,7,0,-94,31,-12,-37,0.880851239
13.907322,-25,-6,7,-1,-3,-85,7,63,0.880851239
13.907334,33,26,-6,6,104,97,19,-8,0.880851239
13.908235,-34,3,-6,6,40,-15,-34,-33,0.880851239
13.908288,-3,-56,2,11,44,47,2,-4,0.880851239
13.928633,49,70,3,-7,-60,7,14,-16,0.880851239
13.928659,-21,-15,-3,-9,-49,-23,-80,-71,0.880851239
13.938987,-19,1,1,-3,-14,-5,18,28,0.880851239
13.939000,8,-37,-7,-4,40,4,4,-42,0.880851239
13.943309,19,78,0,-10,-23,-11,-13,38,0.880851239
13.943343,12,-121,-5,2,-6,-6,16,14,0.880851239
13.954362,13,36,1,-6,0,8,11,-17,0.880851239
13.954374,-15,45,4,20,23,-15,-7,12,0.880851239
13.967425,13,-40,-9,-9,45,3,-5,-6,0.880851239
13.967583,6,93,8,-2,-50,39,-4,-23,0.880851239
13.970211,-17,-66,-8,2,-1,-42,28,-5,0.880851239
13.970232,-19,18,0,-10,17,25,2,-5,0.880851239
13.989174,4,-86,-6,9,-1,-6,-19,-2,0.880851239
13.989191,-9,52,5,5,20,0,-3,18,0.880851239
13.990836,11,-13,-5,-12,-22,-20,-36,-24,0.880851239
13.990929,6,28,2,7,-24,14,-9,72,0.880851239
14.002846,-23,-14,2,-5,-3,15,9,-11,0.880851239
14.002864,22,35,2,-3,-11,-83,-22,9,0.880851239
14.017758,41,-46,-1,4,25,43,14,-3,0.880851239
14.017774,-29,-15,-10,-15,-88,-67,1,38,0.880851239
14.027370,-20,15,2,9,96,26,-9,-29,0.880851239
14.027494,30,-25,1,-17,-53,-8,12,21,0.880851239
14.029543,-34,8,-7,-1,24,6,14,-12,0.880851239
14.029553,2,-68,-5,9,36,8,26,-78,0.880851239
14.050226,8,42,0,-2,-28,-5,-7,-21,0.880851239
14.050237,-59,-117,-3,-14,-76,-11,16,-5,0.880851239
14.050591,26,71,12,-4,40,12,-61,-13,0.880851239
14.050600,-23,-22,-6,-7,8,-2,17,-4,0.880851239
14.063774,-26,11,-8,-2,-36,-29,-2,-8,0.880851239
14.063782,-39,50,0,22,52,78,9,-60,0.880851239
14.072735,39,47,-2,-12,-47,-35,7,3,0.899022221
14.072748,-11,-105,-4,-2,0,29,-3,16,0.899022221
14.087021,14,24,3,2,38,-56,-9,-35,0.899022221
14.087058,-11,34,1,3,-25,-23,-6,17,0.899022221
14.089188,49,25,-3,-2,-19,-4,4,22,0.899022221
14.089203,6,48,0,1,35,28,-4,8,0.899022221
14.109300,-49,-21,0,-18,-52,-55,-10,-17,0.899022221
14.109324,27,63,1,-6,-5,11,-7,4,0.899022221
14.111604,-34,-87,-17,21,28,-33,9,7,0.899022221
14.111616,3,51,9,5,-13,14,4,30,0.899022221
14.122993,27,21,-1,1,1,69,-18,6,0.899022221
14.123010,-5,8,3,5,27,-67,1,44,0.899022221
14.133387,12,4,-2,-10,-14,14,16,40,0.899022221
14.133395,-8,20,-1,-8,-21,-8,-18,-32,0.899022221
14.146788,18,25,6,2,10,3,13,9,0.899022221
14.146819,-43,-96,-6,0,-39,22,-11,0,0.899022221
14.153178,-34,-37,-10,3,31,-57,-1,-62,0.899022221
14.153211,12,19,-3,-6,-23,21,2,16,0.899022221
14.169680,32,37,3,-2,3,53,12,1,0.899022221
14.169716,-17,7,2,-2,15,-33,-5,3,0.899022221
14.171978,18,43,11,-2,-23,12,-1,32,0.899022221
14.171994,-2,9,-7,-4,19,-10,-15,-1,0.899022221
14.183477,7,17,3,14,-38,18,-5,16,0.899022221
14.183521,5,17,-8,-6,9,18,3,-15,0.899022221
14.193611,13,35,10,1,16,5,8,-18,0.899022221
14.193622,-31,-39,0,12,49,35,-28,-20,0.899022221
14.206804,-18,-41,2,-2,-10,-41,-9,84,0.899022221
14.206820,38,14,-11,7,89,26,23,-8,0.899022221
14.208153,-14,20,3,-3,-40,21,22,-15,0.899022221
14.208165,45,74,6,-2,-36,-8,13,10,0.899022221
14.229290,-14,-86,-12,-6,-8,-11,6,-2,0.899022221
14.229307,-3,-33,2,-1,-18,-12,-3,6,0.899022221
14.231626,7,99,7,4,14,19,3,14,0.899022221
14.231637,28,-2,-8,1,3,-5,1,3,0.899022221
14.243088,-45,18,8,-17,-2,20,0,11,0.899022221
14.243113,3,-20,1,23,14,-57,-23,-22,0.899022221
14.252713,35,-53,-14,-7,-29,-16,32,16,0.899022221
14.252727,-62,-3,1,-4,21,-11,-3,15,0.899022221
14.268933,19,35,-3,7,31,30,20,-24,0.899022221
14.268946,-4,17,3,-5,-8,26,0,15,0.899022221
14.268950,-17,-34,-3,-2,-42,5,-20,-16,0.899022221
14.268953,-1,-17,3,-4,-5,-24,2,-28,0.899022221
14.289216,19,67,5,14,25,13,38,7,0.899022221
14.289235,32,-48,-8,-18,-23,-6,-11,-29,0.899022221
14.291152,-6,-4,12,19,6,22,-2,33,0.899022221
14.291164,-2,-60,-20,-29,-21,-22,-13,-9,0.899022221
14.302999,14,-14,-13,-9,-10,13,-4,-17,0.899022221
14.303025,-10,49,0,-8,-12,-10,2,-5,0.899022221
14.314049,-1,-24,7,-4,14,-2,-8,-5,0.899022221
14.314060,27,65,14,0,-11,-2,7,13,0.899022221
14.327437,-39,-103,-9,12,-3,-20,-27,-18,0.899022221
14.327481,29,23,-3,-17,-30,61,24,85,0.899022221
14.330046,24,-25,-4,14,54,-35,20,-8,0.874843818
14.330058,-47,27,-1,-6,2,16,6,10,0.874843818
14.349795,7,18,0,-12,-17,24,-10,-19,0.874843818
14.349821,27,66,5,12,7,-2,8,2,0.874843818
14.352173,-101,-67,-11,-12,-18,28,3,-47,0.874843818
14.352185,55,-17,2,13,-22,-2,-10,73,0.874843818
14.371865,6,30,6,5,-35,-45,-32,1,0.874843818
14.371882,0,27,-4,-1,20,-2,8,-12,0.874843818
14.373773,-17,-16,3,-5,-8,7,0,30,0.874843818
14.373787,17,-62,3,10,21,-19,2,26,0.874843818
14.386898,-9,-9,-4,-11,-17,8,-7,-67,0.874843818
14.386927,-30,-1,4,19,17,-10,-16,13,0.874843818
14.389065,22,-21,-6,-1,1,0,-10,10,0.874843818
14.389078,-37,19,-2,-28,-5,-1,-1,-39,0.874843818
14.409269,15,-87,-6,10,13,7,8,-7,0.874843818
14.409284,-30,-15,4,1,5,19,9,-15,0.874843818
14.410658,32,6,0,-1,-105,-31,-7,-16,0.874843818
14.410673,0,38,2,-2,92,76,-19,-21,0.874843818
14.432026,-8,20,7,-3,20,-26,25,13,0.874843818
14.432045,-4,-40,-7,1,-21,-41,-11,-14,0.874843818
14.433906,-10,-12,-10,-4,-29,60,-4,-3,0.874843818
14.433917,31,61,5,6,-24,7,18,58,0.874843818
14.446942,10,-13,-3,-5,0,-11,-10,17,0.874843818
14.446966,-12,-14,0,-4,10,-2,1,7,0.874843818
14.448797,-3,105,5,-8,17,-6,-20,-27,0.874843818
14.448806,19,-74,-5,4,-25,-19,13,-15,0.874843818
14.471843,-18,16,-1,4,-11,1,-2,7,0.874843818
14.471954,13,-7,-1,-14,2,-2,21,43,0.874843818
14.471957,0,17,-9,-3,-1,-40,-69,-54,0.874843818
14.471960,20,47,1,3,70,-15,-11,34,0.874843818
14.491698,-14,-28,-3,-6,-8,-12,37,21,0.874843818
14.491716,10,9,-4,-1,0,59,-19,-27,0.874843818
14.493234,25,22,6,4,22,-58,11,14,0.874843818
14.493255,-52,14,-4,-9,-42,70,-2,-38,0.874843818
14.506761,-6,-4,1,5,19,32,-22,-6,0.874843818
14.506778,13,-10,-1,-11,-8,-8,-7,-37,0.874843818
14.508450,-13,-11,2,3,46,2,6,-1,0.874843818
14.508467,21,11,1,5,-38,6,-10,-24,0.874843818
14.529431,20,24,-1,-3,14,-7,-4,3,0.874843818
14.529497,4,53,6,2,-3,-20,0,-28,0.874843818
14.532120,-46,-73,-7,-2,-1,27,1,1,0.874843818
14.532132,-12,-20,3,5,-19,-51,3,-7,0.874843818
14.551796,6,74,-4,-17,-71,6,-9,-19,0.874843818
14.551811,22,-118,-18,-10,55,-11,-4,15,0.874843818
14.553445,-12,67,0,-17,-3,-10,2,-5,0.874843818
14.553470,9,9,4,20,-37,34,11,-3,0.874843818
14.565982,7,-16,-2,6,73,-29,-1,10,0.874843818
14.565996,-76,-29,0,-1,-21,85,18,-8,0.874843818
14.572843,26,25,-2,8,22,18,-29,2,0.874843818
14.572860,18,53,1,-13,16,-19,-12,-79,0.874843818
14.589304,-24,-61,3,-7,-1,86,-3,11,0.860462967
14.589323,13,70,6,12,-55,-38,14,9,0.860462967
14.591254,-9,-71,-5,-16,19,28,18,-73,0.860462967
14.591266,33,-12,-4,2,3,-13,5,38,0.860462967
14.612141,-20,-40,-7,-1,-11,1,-17,-25,0.860462967
14.612153,-6,32,9,4,24,-20,-6,31,0.860462967
14.613160,12,41,12,6,-26,-1,0,-4,0.860462967
14.613198,-9,2,-7,-12,-23,-24,-12,-7,0.860462967
14.627404,-7,74,2,13,43,-7,12,-9,0.860462967
14.627425,-4,-97,-14,-31,-109,-36,-5,10,0.860462967
14.632925,37,61,8,36,99,37,8,25,0.860462967
14.632950,-10,32,2,-3,-49,-17,-4,-5,0.860462967
14.649641,-3,-49,-4,-6,-15,9,-11,12,0.860462967
14.649655,-24,33,8,6,-10,-43,16,-20,0.860462967
14.651700,-13,-6,-8,-11,-57,67,7,13,0.860462967
14.651710,49,36,6,6,22,-21,-22,77,0.860462967
14.673713,-15,4,1,4,-24,7,14,-19,0.860462967
14.673726,11,-23,0,9,16,12,-21,-2,0.860462967
14.673729,-5,-25,-3,2,-3,-21,14,2,0.860462967
14.673732,10,10,-5,8,32,9,5,-12,0.860462967
14.686702,11,26,5,-7,-20,-25,-8,16,0.860462967
14.689006,-6,8,-1,6,18,-22,-8,23,0.860462967
14.692916,21,33,-2,-19,-42,45,-2,-3,0.860462967
14.692956,-27,-122,1,18,89,0,8,15,0.860462967
14.709415,-5,-30,-11,-13,-23,-20,1,28,0.860462967
14.709435,33,51,-12,-6,45,5,6,23,0.860462967
14.711435,-13,10,-2,-10,-8,-115,1,-14,0.860462967
14.711447,-13,-27,-1,4,-11,25,-23,-73,0.860462967
14.731983,10,25,6,-2,-2,-6,6,27,0.860462967
14.732015,1,-65,-3,4,15,7,-13,-17,0.860462967
14.734687,9,21,2,-7,-26,17,19,16,0.860462967
14.734699,-32,41,3,-8,-2,-16,8,-31,0.860462967
14.746276,36,-18,0,13,29,12,-6,2,0.860462967
14.746301,-7,32,7,-25,-83,5,-12,-26,0.860462967
14.753033,-13,-22,-1,13,95,11,-3,-41,0.860462967
14.753060,-36,16,1,3,27,38,10,-13,0.860462967
14.769272,24,25,2,6,-27,-12,-5,-31,0.860462967
14.769297,13,38,-6,5,-3,-8,-10,21,0.860462967
14.770995,-29,-49,-11,-7,-76,4,12,3,0.860462967
14.771015,2,1,7,0,64,-1,8,66,0.860462967
14.791825,-2,32,5,1,19,21,-10,-20,0.860462967
14.791844,-19,-17,-2,6,-9,-16,8,-37,0.860462967
14.793270,1,-38,-3,5,43,72,-11,66,0.860462967
14.793302,-7,-69,-16,-8,-36,2,9,-12,0.860462967
14.806185,-1,26,0,-9,-15,-11,-16,-5,0.860462967
14.806203,-67,-5,0,4,35,9,1,-39,0.860462967
14.813148,52,-3,-1,-4,-24,-26,-13,-59,0.860462967
14.813183,-32,73,2,-19,-55,-13,17,26,0.860462967
14.830286,-6,-2,0,20,26,5,2,3,0.860462967
14.830297,4,-35,0,3,45,37,-8,-20,0.860462967
14.830632,-29,-8,1,-16,-25,-101,8,-4,0.860462967
14.830641,25,21,1,15,-22,15,8,-21,0.860462967
14.851778,16,14,-5,-4,-16,-26,4,7,0.854036424
14.851807,15,33,-11,-4,-10,-9,12,22,0.854036424
14.854292,-15,24,10,7,35,-15,-20,15,0.854036424
14.854306,-34,-96,-7,0,38,102,-9,-40,0.854036424
14.865735,-4,18,3,-7,-7,-51,8,10,0.854036424
14.865762,-10,44,-2,-13,-5,-9,-13,-62,0.854036424
14.875941,-3,-3,-3,3,44,84,5,-27,0.854036424
14.875953,-8,-14,-5,-3,-27,-59,-10,-40,0.854036424
14.889214,6,-11,-4,-15,-28,33,-31,-4,0.854036424
14.889240,2,25,6,11,16,0,-7,2,0.854036424
14.890968,2,91,0,5,-11,-18,-1,-2,0.854036424
14.891117,15,-76,5,7,-20,-29,18,25,0.854036424
14.911802,-37,-40,-12,-10,49,5,-1,-32,0.854036424
14.911833,-5,-22,1,7,4,-27,-9,10,0.854036424
14.913307,54,-14,6,-7,-82,14,14,44,0.854036424
14.913330,6,67,6,5,19,35,-4,4,0.854036424
14.925459,20,10,5,-5,-35,-80,7,36,0.854036424
14.925485,-4,18,5,-9,-21,17,-23,9,0.854036424
14.935214,-5,-82,-9,4,53,35,1,7,0.854036424
14.935225,32,29,-4,-15,-44,-60,-1,-3,0.854036424
14.949291,4,-12,1,-7,-8,80,4,69,0.854036424
14.949317,-5,-6,-2,19,14,-63,33,17,0.854036424
14.951119,29,28,-1,-19,-9,31,-27,-21,0.854036424
14.951135,0,4,-1,7,29,19,-11,0,0.854036424
14.979098,-3,9,-1,18,11,23,9,22,0.854036424
14.979272,19,-46,-6,-8,-8,9,1,-9,0.854036424
14.986081,6,32,2,-6,21,-11,3,-20,0.854036424
14.986102,28,98,9,0,-45,-11,-3,45,0.854036424
14.986816,-35,-66,-12,5,11,0,1,-44,0.854036424
14.988600,14,35,4,-23,3,47,30,25,0.854036424
14.995854,-38,-10,-3,14,0,-39,-45,-44,0.854036424
14.995869,-55,-72,-16,-3,44,27,22,-36,0.854036424
15.009444,-18,-4,2,1,-6,34,21,-10,0.854036424
15.009488,8,7,8,2,-4,-69,-2,6,0.854036424
15.013092,-26,-100,-1,-11,-16,30,14,39,0.854036424
15.013102,13,-14,0,-9,-2,-86,-20,-16,0.854036424
15.031623,9,30,-4,-1,5,20,-2,-11,0.854036424
15.031672,-20,-26,-8,0,8,42,-13,-14,0.854036424
15.034091,2,35,0,-1,-11,-33,14,7,0.854036424
15.034102,2,13,4,7,-5,4,-7,52,0.854036424
15.045457,-10,-33,-10,-19,-44,3,-9,-33,0.854036424
15.045477,28,85,7,0,-9,59,12,17,0.854036424
15.055926,-9,-18,-5,7,27,-33,9,52,0.854036424
15.055940,37,65,6,-18,-52,-20,2,7,0.854036424
15.069316,-62,-78,-11,11,74,6,-55,31,0.854036424
15.069342,5,29,2,9,36,61,40,18,0.854036424
15.070819,-7,-45,-9,-10,-44,-84,7,9,0.854036424
15.070844,-13,40,0,-10,-28,7,-40,-14,0.854036424
15.091731,31,10,9,-1,-16,-21,19,-8,0.854036424
15.091752,9,-1,-7,5,5,10,-18,-15,0.854036424
15.093439,-2,-14,-9,5,12,11,10,-5,0.854036424
15.093455,-7,97,6,-10,6,3,8,-39,0.854036424
15.105551,24,-56,-8,-22,-27,-18,-3,-13,0.863315702
15.105568,-16,-58,-8,14,25,-3,-19,-1,0.863315702
15.114270,-5,55,6,1,-20,40,-7,-65,0.863315702
15.114285,17,42,4,5,18,13,-1,4,0.863315702
15.130618,-6,-1,-1,-7,-21,4,-4,-12,0.863315702
15.130631,12,-24,-4,1,-53,-47,8,0,0.863315702
15.130636,-43,24,4,-11,76,81,26,-10,0.863315702
15.130680,38,-41,-6,18,87,-8,-3,2,0.863315702
15.151971,-24,43,7,3,26,60,44,-18,0.863315702
15.151991,-8,-48,-9,-16,-46,-48,-40,-32,0.863315702
15.154583,18,29,-1,2,-62,-26,23,2,0.863315702
15.154595,-6,-32,-12,5,4,34,-52,17,0.863315702
15.165511,1,40,4,0,12,-26,-1,-21,0.863315702
15.165536,16,12,-1,3,7,24,-3,10,0.863315702
15.175552,1,-34,6,-2,-6,-23,-16,23,0.863315702
15.175564,-40,13,0,-15,-42,32,14,4,0.863315702
15.189323,24,-33,-6,12,-44,-94,-3,-9,0.863315702
15.191055,-1,16,6,-2,95,54,-2,35,0.863315702
15.191068,-13,8,-2,8,-17,-5,14,-2,0.863315702
15.191072,-10,-23,-5,-2,-8,0,4,-27,0.863315702
15.211944,7,73,0,0,-23,-6,-15,-9,0.863315702
15.211968,9,23,8,-4,0,-22,0,-16,0.863315702
15.215114,2,-19,5,1,24,-8,-13,4,0.863315702
15.215124,-14,51,-5,-11,-2,77,36,-6,0.863315702
15.225487,28,24,5,3,24,-24,-32,16,0.863315702
15.225541,-1,-81,-4,-1,-11,37,3,15,0.863315702
15.236295,14,14,-5,-4,-5,12,-15,3,0.863315702
15.236312,-16,-52,1,4,-10,-3,4,-14,0.863315702
15.248893,31,41,5,4,11,16,25,57,0.863315702
15.248910,-11,-18,-4,3,7,-11,-2,-16,0.863315702
15.255386,-44,-32,0,-16,-26,0,-5,-1,0.863315702
15.255409,-29,-16,3,14,51,-12,-3,-1,0.863315702
15.272074,54,-110,-7,-2,35,13,9,38,0.863315702
15.272086,-24,8,-5,9,-13,-58,22,-17,0.863315702
15.273205,31,39,1,-9,-10,-5,-6,25,0.863315702
15.273220,5,14,-1,0,-88,-35,-4,-1,0.863315702
15.287223,-3,34,10,2,-36,4,9,-32,0.863315702
15.287236,-9,-21,-10,-17,24,68,-7,82,0.863315702
15.294524,-5,20,-3,0,-8,-73,0,-43,0.863315702
15.294533,15,-30,-3,-9,11,3,9,-1,0.863315702
15.309191,-12,4,-3,7,-13,17,-18,-18,0.863315702
15.309211,7,-23,-1,-15,-54,-15,-14,-23,0.863315702
15.310808,3,74,3,3,-14,15,1,-12,0.863315702
15.310823,2,-33,-2,-2,47,-3,-1,1,0.863315702
15.334098,-19,-2,-9,-24,-39,-6,-4,-11,0.863315702
15.334110,4,37,2,18,20,-15,-10,-11,0.863315702
15.334113,-9,-9,5,-2,-6,25,-19,10,0.863315702
15.334115,-25,19,5,4,-36,-17,28,-28,0.863315702
15.354295,-4,-23,-12,-6,11,41,5,29,0.854013894
15.354326,-29,23,11,-6,5,-28,-22,-30,0.854013894
15.355738,57,-5,-10,14,-58,17,16,8,0.854013894
15.355759,-40,31,1,-1,37,13,-13,13,0.854013894
15.369504,-17,-68,-5,-13,11,-20,10,-53,0.854013894
15.369531,73,20,6,9,-12,15,23,99,0.854013894
15.370769,-10,-13,-3,-4,5,26,-1,-1,0.854013894
15.370789,8,0,2,5,-14,-59,-18,-24,0.854013894
15.391916,0,68,7,7,1,-9,3,5,0.854013894
15.391940,-3,-14,-8,-3,-6,20,-13,-30,0.854013894
15.394414,-12,5,4,-1,3,-9,-11,-13,0.854013894
15.394427,28,38,-4,2,7,10,10,-14,0.854013894
15.414390,-33,-27,-4,2,6,-3,-15,-46,0.854013894
15.414411,13,35,6,1,-69,-6,14,-5,0.854013894
15.415595,-70,-69,1,15,23,-18,-15,7,0.854013894
15.415631,10,7,-7,0,-4,0,3,-14,0.854013894
15.429355,15,-43,-3,-6,3,30,3,17,0.854013894
15.429372,-2,-14,-5,-5,-1,14,3,-28,0.854013894
15.430724,-5,-1,-3,2,7,13,7,-4,0.854013894
15.430740,21,-18,0,-10,1,-5,-20,24,0.854013894
15.452297,-5,55,8,4,7,-7,-2,-10,0.854013894
15.452329,44,16,1,6,45,-9,35,40,0.854013894
15.455165,-46,18,-3,7,32,13,-23,-29,0.854013894
15.455178,2,-79,0,0,-31,39,-7,22,0.854013894
15.474550,-8,21,0,4,25,-70,6,31,0.854013894
15.474562,15,37,-2,-13,8,34,-17,-14,0.854013894
15.475668,8,-39,-9,14,-14,-17,5,-8,0.854013894
15.475682,-8,-72,-8,-5,16,-10,9,-12,0.854013894
15.489797,-21,37,3,-12,-37,28,-2,8,0.854013894
15.489810,-37,-16,2,-2,-2,-31,-21,-42,0.854013894
15.495449,8,18,-5,-11,-12,-31,10,1,0.854013894
15.495468,1,-7,-2,-2,-33,6,12,1,0.854013894
15.511698,-6,33,-1,-2,30,-5,-41,-17,0.854013894
15.511717,-13,-18,-1,1,-33,15,10,-7,0.854013894
15.513522,24,36,0,-8,23,-25,10,25,0.854013894
15.513530,-7,-59,-5,22,47,9,-18,-9,0.854013894
15.533758,3,10,4,12,0,2,36,33,0.854013894
15.533849,-35,2,-3,2,4,-5,-37,-71,0.854013894
15.541855,28,97,12,-9,-14,40,14,-19,0.854013894
15.541879,-37,-34,-7,10,-8,-27,-4,-1,0.854013894
15.549032,23,5,-4,-8,-21,-5,16,74,0.854013894
15.549061,-21,32,-8,15,56,17,12,-8,0.854013894
15.555456,31,-40,-3,-12,-16,11,-6,26,0.854013894
15.555473,31,53,10,-13,13,-8,0,22,0.854013894
15.571931,-14,-74,-4,-1,3,23,-1,-35,0.854013894
15.571948,-17,-32,-10,-10,-18,4,25,13,0.854013894
15.573230,22,23,1,8,-24,-36,-40,44,0.854013894
15.573321,18,21,0,-10,-41,40,25,20,0.854013894
15.594347,-15,27,5,12,-51,-25,-26,-21,0.854013894
15.594364,15,-52,5,15,60,0,-9,6,0.854013894
15.596372,-30,-51,-11,-12,47,38,-15,-12,0.854013894
15.596390,-1,-40,0,2,-31,-51,23,-15,0.854013894
15.609313,12,56,6,-1,-18,11,-13,-36,0.851192705
15.611284,-1,7,1,-8,-46,-8,-8,-14,0.851192705
15.615674,35,5,4,8,15,43,14,4,0.851192705
15.615703,-22,-5,-4,-12,12,-28,3,-13,0.851192705
15.632341,30,51,0,10,2,24,-1,-25,0.851192705
15.632354,-33,-58,-7,-7,-25,-31,-16,-11,0.851192705
15.633102,2,-65,-9,-1,12,38,6,-2,0.851192705
15.633111,41,108,6,-18,-51,-52,-22,-7,0.851192705
15.654403,-48,-128,-14,18,15,-24,28,-62,0.851192705
15.655710,31,113,6,-17,26,64,-65,19,0.851192705
15.655900,-1,41,2,7,18,-7,1,1,0.851192705
15.655948,-51,-68,-6,-3,-14,-15,-17,20,0.851192705
15.668776,16,14,-2,-1,18,-3,39,-1,0.851192705
15.668802,-15,2,2,13,-20,-24,11,-10,0.851192705
15.675929,-3,-7,-4,2,3,28,-6,-16,0.851192705
15.675961,22,52,5,11,27,-14,-11,-4,0.851192705
15.691798,-17,19,3,-5,22,13,-2,6,0.851192705
15.691816,-9,-26,-13,-22,-11,-18,0,-68,0.851192705
15.694591,-15,7,2,8,-10,40,5,5,0.851192705
15.694603,-22,-85,-8,12,6,6,16,31,0.851192705
15.714416,16,27,2,-7,16,18,-18,23,0.851192705
15.714440,-6,4,7,1,-10,-4,13,19,0.851192705
15.716980,-12,14,2,-9,-32,-31,-2,-36,0.851192705
15.716991,1,24,-1,-3,23,30,-3,-22,0.851192705
15.728991,8,2,-2,-7,-10,-4,-10,3,0.851192705
15.729021,-8,-22,-5,-3,-13,-9,-1,14,0.851192705
15.735899,47,89,6,5,11,-24,6,24,0.851192705
15.735930,-29,-96,-11,0,0,61,6,-2,0.851192705
15.751501,36,92,2,-27,-6,-51,-56,-17,0.851192705
15.751532,-34,-114,-27,0,95,75,36,34,0.851192705
15.753616,-15,10,0,-10,-26,-69,8,29,0.851192705
15.753629,33,42,9,16,10,26,-18,-16,0.851192705
15.773494,-7,-33,-3,0,-22,7,-10,-15,0.851192705
15.773508,15,12,4,-4,-37,-37,-3,14,0.851192705
15.774178,-6,-24,-3,-1,14,15,4,-15,0.851192705
15.774189,-10,8,-5,-12,-11,5,-2,2,0.851192705
15.787935,-35,3,0,-3,9,0,8,-39,0.851192705
15.787954,27,51,5,12,-2,-12,-11,-26,0.851192705
15.795795,28,-99,5,-3,-32,25,-10,6,0.851192705
15.795819,-4,61,19,2,30,-35,5,-29,0.851192705
15.811386,-52,-108,-34,-26,-48,-33,-19,12,0.851192705
15.811419,11,-11,-9,0,-16,15,29,-5,0.851192705
15.813784,-19,39,-6,-8,-6,8,-2,-28,0.851192705
15.813796,40,37,4,8,-5,-32,-1,8,0.851192705
15.836116,8,-56,6,11,29,-2,4,24,0.851192705
15.836131,-15,3,2,-7,-11,48,-11,27,0.851192705
15.836133,2,36,-3,3,-34,-61,12,-7,0.851192705
15.836136,1,-58,-9,-6,9,15,15,17,0.851192705
15.848375,-7,38,7,9,13,66,0,-36,0.851192705
15.848409,-28,-44,3,4,-37,-62,29,-13,0.851192705
15.855304,69,86,-6,-16,-8,-7,-25,52,0.851192705
15.855322,0,-44,-15,-9,85,23,3,-11,0.851192705
15.871075,-20,46,-4,-7,-24,17,11,4,0.850183202
15.871100,25,43,10,7,8,-12,-6,9,0.850183202
15.872663,-25,-10,1,-1,7,-5,3,-30,0.850183202
15.872680,-5,20,-10,-16,-57,5,-14,-14,0.850183202
15.894181,30,50,17,-9,-47,-27,26,17,0.850183202
15.894217,-56,27,8,6,40,64,-15,-14,0.850183202
15.896835,39,-44,-5,5,34,0,26,65,0.850183202
15.896846,-51,-55,-16,-16,-7,8,-37,-4,0.850183202
15.908125,-4,-25,-6,-13,9,23,25,-60,0.850183202
15.908150,11,43,9,22,41,10,-4,29,0.850183202
15.915717,-11,-20,-4,2,-8,-10,8,-20,0.850183202
15.915751,18,94,10,2,-27,29,-3,5,0.850183202
15.931477,7,-21,-5,-2,-1,-61,-4,50,0.850183202
15.931509,-25,-11,-4,-16,-12,15,-17,-12,0.850183202
15.933385,-18,-76,-6,12,48,1,0,-1,0.850183202
15.933399,22,36,3,3,1,-31,6,53,0.850183202
15.953442,-22,5,-3,4,-9,30,-3,12,0.850183202
15.953462,27,11,1,-6,-31,-36,5,5,0.850183202
15.955495,-10,9,0,-9,-5,43,-3,-30,0.850183202
15.955506,35,-14,13,12,-42,-25,0,11,0.850183202
15.968141,-55,56,4,11,-27,-3,0,-12,0.850183202
15.968263,29,-90,-3,15,42,27,-13,40,0.850183202
15.975309,13,39,-3,-10,0,5,-7,-18,0.850183202
15.975332,-11,-75,-8,-17,-21,32,10,-23,0.850183202
15.991098,16,-39,-1,0,2,-17,-15,-16,0.850183202
15.991115,69,81,7,19,8,-31,-17,-4,0.850183202
15.992618,-121,-47,-3,2,30,42,1,-27,0.850183202
15.992628,40,99,1,-4,-5,-23,1,5,0.850183202
16.014436,32,-20,-9,0,37,-10,9,23,0.850183202
16.014453,15,39,2,9,6,-42,-15,-14,0.850183202
16.016467,-17,-44,-1,2,-40,-12,-41,-28,0.850183202
16.016483,-3,80,-3,-9,48,-2,7,-16,0.850183202
16.028346,-13,-1,5,3,42,80,-7,7,0.850183202
16.028394,-14,-20,-6,-15,-31,-29,-4,-70,0.850183202
16.035642,16,28,7,15,7,0,13,-1,0.850183202
16.035666,-78,-39,-9,-3,-6,14,2,-11,0.850183202
16.051567,7,-17,2,5,-40,-92,-10,9,0.850183202
16.051594,7,59,1,-21,-69,4,-12,8,0.850183202
16.054385,-55,-36,-4,-1,59,98,43,-92,0.850183202
16.054398,-35,11,-2,7,-5,-71,-14,-9,0.850183202
16.073700,11,3,-4,-2,48,56,1,4,0.850183202
16.073756,-10,46,-2,0,-101,-24,4,-1,0.850183202
16.074407,19,-24,0,-8,3,-10,-11,-26,0.850183202
16.074447,31,-59,3,-14,47,8,-5,37,0.850183202
16.088045,27,103,2,8,26,51,4,8,0.850183202
16.088155,-13,-75,-14,-13,-9,-20,30,23,0.850183202
16.095732,30,-8,3,2,-26,-27,-30,54,0.850183202
16.095765,-11,-6,5,15,0,-12,8,-21,0.850183202
16.111473,25,-22,8,-6,-22,-3,-6,-8,0.850183202
16.111491,-13,29,-5,-12,45,9,11,10,0.850183202
16.113254,14,-60,3,10,-55,4,-4,8,0.850183202
16.113263,12,18,4,17,78,75,-2,72,0.850183202
16.133449,2,46,-2,-9,-15,-32,-6,-33,0.858786477
16.133487,10,-92,-5,-1,0,-12,-31,-4,0.858786477
16.134086,-1,41,1,-5,44,-4,1,22,0.858786477
16.134094,2,9,-2,-5,-77,-3,-24,-38,0.858786477
16.147952,-22,-48,-4,2,29,5,18,-22,0.858786477
16.147977,-20,35,0,8,91,16,17,-33,0.858786477
16.155432,-5,7,-10,-10,-48,-52,-18,-7,0.858786477
16.155450,1,-38,-3,-13,-14,22,9,-24,0.858786477
16.171190,21,98,5,-2,9,-26,9,-15,0.858786477
16.171210,-41,-86,-12,-6,-14,2,0,-19,0.858786477
16.172665,29,45,-1,7,12,28,23,59,0.858786477
16.172680,9,15,-1,-15,-18,-37,6,-31,0.858786477
16.195538,-33,-50,-8,-1,20,27,-16,13,0.858786477
16.195550,-18,1,8,9,17,-27,4,-13,0.858786477
16.195553,7,58,2,-6,-51,21,-31,0,0.858786477
16.195556,4,-82,-6,-7,30,-20,22,6,0.858786477
16.208275,12,33,4,7,-36,-82,-17,26,0.858786477
16.208301,8,-5,-5,-20,5,36,12,18,0.858786477
16.215795,-32,-65,-4,-2,-20,-13,3,1,0.858786477
16.215826,18,60,4,13,-2,48,4,-11,0.858786477
16.231485,-22,-63,-2,-4,-17,20,-4,-3,0.858786477
16.231507,4,84,1,-1,-13,-16,-11,-64,0.858786477
16.232068,38,7,14,32,73,14,31,-49,0.858786477
16.232084,-28,-21,-5,-9,-15,-5,-14,10,0.858786477
16.253724,-6,-35,-3,13,-10,30,26,-22,0.858786477
16.253746,-13,2,0,6,16,1,-48,25,0.858786477
16.255743,11,18,-2,-20,6,20,11,23,0.858786477
16.255758,29,26,1,2,-4,34,-40,-13,0.858786477
16.276138,0,2,-3,-8,-1,-65,-9,17,0.858786477
16.276152,22,16,-5,-4,-5,17,16,59,0.858786477
16.276756,-18,7,0,-16,-36,-8,-7,-16,0.858786477
16.276773,-24,2,2,30,35,-14,-1,-62,0.858786477
16.290982,26,75,4,2,9,32,20,24,0.858786477
16.291004,-4,-74,-9,-10,-29,7,-10,-5,0.858786477
16.291730,-3,44,3,0,-7,-34,-8,9,0.858786477
16.291742,-6,-11,-5,-13,-23,-34,14,-5,0.858786477
16.313837,14,31,4,13,-15,105,-5,5,0.858786477
16.313869,-4,23,5,10,-33,-7,22,3,0.858786477
16.315942,-6,32,0,-9,65,22,11,47,0.858786477
16.315949,-19,-30,-7,10,33,-22,-50,0,0.858786477
16.337951,-14,-53,-10,-6,13,15,-10,3,0.858786477
16.337963,20,28,4,-2,-2,-29,-11,-30,0.858786477
16.337966,10,-11,-3,-4,9,-9,14,1,0.858786477
16.337968,2,31,3,-13,-84,90,26,2,0.858786477
16.351837,5,7,0,-1,37,-96,-7,23,0.858786477
16.351895,-27,-2,10,-2,-7,47,-19,-23,0.858786477
16.354748,-10,-22,-12,9,24,-31,2,-35,0.858786477
16.354762,19,41,-9,6,-27,-2,13,1,0.858786477
16.374095,-9,-32,-5,-7,23,14,-7,-2,0.858786477
16.374126,22,13,2,5,-55,-44,-5,69,0.858786477
16.376347,12,-30,-4,-7,51,54,26,69,0.858786477
16.376359,-22,-4,1,3,-18,-35,13,14,0.858786477
16.396220,-6,10,1,-9,-15,-8,1,-24,0.873699123
16.396252,8,-1,-1,-16,-27,-16,-13,18,0.873699123
16.399040,8,15,4,18,61,49,-3,-25,0.873699123
16.399052,-9,22,4,-6,-14,-6,10,-6,0.873699123
16.411706,-40,-35,-3,5,-1,23,-18,-22,0.873699123
16.411729,-23,-94,-19,-1,-20,-67,15,-56,0.873699123
16.411735,-1,7,1,-11,-42,-39,-49,-35,0.873699123
16.411741,9,20,1,-4,23,7,20,21,0.873699123
16.433614,21,28,5,-5,-10,12,1,-9,0.873699123
16.433668,15,13,2,-4,8,33,6,8,0.873699123
16.434110,-33,16,-7,-1,-48,-32,-19,-1,0.873699123
16.434126,24,-21,5,2,25,-6,5,-11,0.873699123
16.456105,4,-22,-7,-18,-38,-6,-17,13,0.873699123
16.456122,1,74,8,10,54,21,22,3,0.873699123
16.458040,4,37,1,-4,-21,-32,15,-6,0.873699123
16.458055,-10,-15,-6,-14,-35,-68,-15,53,0.873699123
16.471195,-19,-14,1,1,18,63,32,7,0.873699123
16.471270,-6,-12,0,-13,-43,-82,-38,2,0.873699123
16.473051,-25,-29,-7,33,12,88,-28,9,0.873699123
16.473066,-13,-46,-7,-14,39,-29,23,0,0.873699123
16.493586,19,21,4,18,5,8,-31,18,0.873699123
16.493602,46,37,-2,-1,8,27,6,8,0.873699123
16.494105,-29,-75,-1,-6,-61,-50,-9,-36,0.873699123
16.494140,-29,-56,-7,10,-1,15,-8,-25,0.873699123
16.516308,-25,2,-1,1,26,-10,8,35,0.873699123
16.516340,6,-14,5,4,12,38,12,24,0.873699123
16.519411,3,-15,-3,-23,-52,-12,-6,3,0.873699123
16.519431,6,9,8,27,50,1,-7,-7,0.873699123
16.531171,18,7,-1,-21,2,7,16,-63,0.873699123
16.531237,4,49,-4,0,12,-46,5,-46,0.873699123
16.533904,-22,-93,-12,-18,-66,-7,-13,23,0.873699123
16.533913,21,24,12,-7,15,77,10,0,0.873699123
16.554953,-31,-20,-11,3,-19,-98,32,-41,0.873699123
16.554966,1,4,11,7,32,44,-39,-20,0.873699123
16.554969,24,2,-7,-16,82,-35,21,-15,0.873699123
16.554973,-3,87,8,4,3,-2,1,-14,0.873699123
16.576461,0,-70,-11,-1,-33,16,-9,3,0.873699123
16.576493,-35,36,-4,-11,-10,23,22,3,0.873699123
16.583869,3,-45,4,14,-1,-25,-7,-1,0.873699123
16.583907,2,1,-10,-4,-13,18,-5,-6,0.873699123
16.591313,10,18,-2,0,8,2,0,29,0.873699123
16.591337,-3,15,-7,1,-14,8,2,20,0.873699123
16.593583,-5,17,5,4,1,9,-1,-2,0.873699123
16.593593,4,-20,-6,-6,-8,-13,2,3,0.873699123
16.613743,-13,7,6,-10,-31,-13,-12,-40,0.873699123
16.613767,-15,-54,-8,3,13,71,-12,15,0.873699123
16.615945,39,60,6,13,-21,-25,16,-6,0.873699123
16.615957,-59,-108,-22,-19,-14,-14,-16,-13,0.873699123
16.636093,33,57,1,9,80,52,15,24,0.884537713
16.636114,17,5,4,0,-27,-59,-53,-4,0.884537713
16.636845,-15,36,8,2,24,30,14,-49,0.884537713
16.636858,-10,47,0,1,-38,14,2,17,0.884537713
16.652520,34,98,7,-5,-34,-7,-43,-8,0.884537713
16.652539,-4,-87,-2,4,-1,12,31,15,0.884537713
16.653516,1,51,-9,-14,25,6,-6,10,0.884537713
16.653534,40,-24,2,16,-15,-36,-2,-33,0.884537713
16.674150,6,6,3,14,-45,21,27,61,0.884537713
16.674175,-9,13,-4,-3,72,2,-7,-1,0.884537713
16.681281,12,63,6,-2,-23,-60,-46,28,0.884537713
16.681295,4,-38,-13,-21,-16,56,33,-2,0.884537713
16.696498,-4,-67,-1,6,-71,-99,-7,-45,0.884537713
16.696509,-11,32,-1,13,66,51,20,2,0.884537713
16.696580,19,23,6,-7,-31,52,12,6,0.884537713
16.696588,-10,-26,4,-1,20,-53,-14,15,0.884537713
16.712287,5,-3,-3,5,12,25,4,8,0.884537713
16.712297,-6,-13,4,-6,-31,-21,-25,54,0.884537713
16.712300,0,8,-14,-11,-13,32,-13,-25,0.884537713
16.712303,-6,83,12,12,0,-15,-2,-5,0.884537713
16.733949,-27,-76,6,8,42,10,-1,13,0.884537713
16.733977,-34,-46,-17,-15,-44,-5,15,-58,0.884537713
16.736597,2,24,5,21,54,3,3,41,0.884537713
16.736616,3,16,-3,-20,-14,-1,-14,-37,0.884537713
16.756048,-11,24,-6,1,22,1,-17,-11,0.884537713
16.756067,5,7,2,-1,9,18,34,0,0.884537713
16.757966,-21,-40,-7,-1,-43,-81,6,-18,0.884537713
16.757978,14,-13,-1,-5,6,0,-7,-12,0.884537713
16.770694,-14,-27,-3,-1,7,15,-5,0,0.884537713
16.770720,65,62,9,-2,-12,43,34,37,0.884537713
16.778976,-58,9,0,-22,-52,-69,-11,-4,0.884537713
16.781451,5,-71,-9,14,-14,44,2,2,0.884537713
16.793581,7,4,-1,-14,10,-21,-13,-26,0.884537713
16.793597,12,6,-3,13,39,6,24,20,0.884537713
16.794172,-7,-65,-4,5,43,-14,-39,-26,0.884537713
16.794188,28,78,12,2,7,2,-9,87,0.884537713
16.816525,8,7,-3,-8,-22,-12,13,-18,0.884537713
16.816548,-33,2,1,-6,-16,-16,-15,-56,0.884537713
16.819100,20,-8,-3,4,9,61,16,-37,0.884537713
16.819120,-24,10,-4,-13,-12,-3,-16,-16,0.884537713
16.831483,35,42,1,-9,6,20,3,17,0.884537713
16.831516,-17,-92,-5,0,-3,-17,-5,4,0.884537713
16.834096,26,-1,1,4,-17,19,10,25,0.884537713
16.834106,7,87,0,-10,-40,-8,8,-5,0.884537713
16.854161,-8,-70,-5,8,24,12,4,22,0.884537713
16.854180,-6,35,1,-5,-40,1,0,-35,0.884537713
16.854904,-13,-9,0,-2,-9,3,9,-4,0.884537713
16.854920,20,-7,3,-8,-71,10,-29,-49,0.884537713
16.876097,28,127,4,34,66,-56,22,0,0.884537713
16.876117,6,-51,-10,-10,3,10,9,12,0.884537713
16.877119,37,37,6,1,0,31,8,-42,0.884537713
16.877129,-46,14,0,13,-36,-26,0,44,0.884537713
16.890567,14,1,-2,-20,19,35,-16,1,0.892690321
16.892629,8,7,1,-3,-16,-22,0,-1,0.892690321
16.899768,-3,66,1,-6,-4,-10,-1,-57,0.892690321
16.899779,-18,-112,-14,14,69,30,10,-26,0.892690321
16.915323,-35,-40,5,3,-17,33,-10,-14,0.892690321
16.915334,-5,-7,-5,-10,-63,-78,6,2,0.892690321
16.915337,-40,-42,-12,2,32,34,-29,4,0.892690321
16.915339,11,-13,-6,-4,-4,7,15,1,0.892690321
16.936321,-41,-39,-2,-7,-10,-9,-8,-21,0.892690321
16.936353,16,48,11,-14,-34,85,-15,-21,0.892690321
16.938051,35,4,4,19,-13,-91,12,97,0.892690321
16.938064,2,56,8,-4,37,7,11,-6,0.892690321
16.950463,2,-106,-17,-4,-17,0,-20,-1,0.892690321
16.950479,-17,23,-3,-6,-6,-2,-7,-20,0.892690321
16.958781,12,20,3,6,-16,8,-7,22,0.892690321
16.958815,4,33,9,4,26,5,17,7,0.892690321
16.973803,23,105,4,-6,-31,3,7,-15,0.892690321
16.973824,-31,-64,-6,3,33,-5,-10,31,0.892690321
16.975670,-4,-62,-7,-9,6,11,11,69,0.892690321
16.975680,-6,-41,-2,-4,-30,-32,-18,-20,0.892690321
16.996437,35,61,-6,-22,-41,4,-7,-4,0.892690321
16.996482,-25,-6,3,30,78,-14,-5,-21,0.892690321
16.998682,14,18,1,-4,11,40,29,-3,0.892690321
16.998691,26,32,2,-6,-92,-54,8,16,0.892690321
17.010340,-32,63,7,22,74,110,-39,-2,0.892690321
17.010357,6,-98,-7,-6,-39,-65,26,16,0.892690321
17.018938,-10,-18,-4,7,-32,-14,0,-31,0.892690321
17.018959,46,54,4,8,13,14,9,20,0.892690321
17.033918,0,32,0,-11,40,12,37,-13,0.892690321
17.033985,23,-44,-6,5,-9,-10,-18,-26,0.892690321
17.036172,-20,-12,-2,-1,2,5,-10,-43,0.892690321
17.036194,-3,6,-1,-10,1,1,12,-20,0.892690321
17.056099,7,-9,2,4,-37,-44,-8,21,0.892690321
17.056112,2,4,-1,-3,30,21,2,10,0.892690321
17.056703,-6,23,5,-14,-50,-15,10,14,0.892690321
17.056714,-14,3,-8,11,44,22,-11,40,0.892690321
17.070366,-30,-79,-1,-3,-14,-13,-11,7,0.892690321
17.070385,-24,28,-6,-7,-23,-19,-15,-11,0.892690321
17.079259,7,-31,0,12,-1,-14,13,2,0.892690321
17.079283,12,60,11,-17,-27,55,-17,-33,0.892690321
17.094054,-39,-36,-9,-7,6,-49,-2,-14,0.892690321
17.094079,24,74,7,4,-36,51,2,8,0.892690321
17.096547,-26,15,4,14,79,-58,-7,20,0.892690321
17.096557,15,5,9,8,12,6,-30,1,0.892690321
17.116328,59,30,-9,-10,-42,-10,31,31,0.892690321
17.116364,-52,22,3,10,13,-3,-21,32,0.892690321
17.118981,57,43,0,-2,-53,-2,17,-7,0.892690321
17.118996,-40,9,-1,-7,33,-2,-26,-31,0.892690321
17.147174,3,-17,3,0,-20,-3,-4,1,0.887241730
17.149145,19,12,-4,-1,29,-5,-3,-12,0.887241730
17.149155,2,6,1,2,0,29,0,10,0.887241730
17.149158,-20,17,-6,-22,-31,-21,10,-29,0.887241730
17.153557,0,-1,3,16,28,0,-2,-17,0.887241730
17.153585,-37,-32,7,8,26,9,1,-2,0.887241730
17.154333,3,0,-8,-13,1,-5,-3,-27,0.887241730
17.154350,7,-29,-12,7,2,87,-1,8,0.887241730
17.176691,-7,4,1,-15,-42,-74,-41,-11,0.887241730
17.176735,9,2,2,-6,-8,2,-28,14,0.887241730
17.179288,-17,-7,-1,0,-1,25,42,-24,0.887241730
17.179299,-17,-73,-7,7,27,-14,-13,-1,0.887241730
17.190759,-45,23,3,8,-5,9,0,5,0.887241730
17.192509,29,32,5,-2,-13,-6,4,-14,0.887241730
17.198655,-3,-73,-18,-19,11,32,-22,-13,0.887241730
17.198687,43,59,13,4,-43,-15,12,87,0.887241730
17.213972,-20,-59,-4,9,92,28,8,5,0.887241730
17.214047,26,34,4,-15,-98,-12,5,-21,0.887241730
17.215896,-34,-11,8,0,48,-3,25,-3,0.887241730
17.215909,-8,-5,-11,-11,-16,-15,-26,-39,0.887241730
17.236138,32,15,-3,11,29,70,31,17,0.887241730
17.236166,41,57,3,4,-9,-84,-2,4,0.887241730
17.237720,6,-60,-15,-2,25,20,-9,-21,0.887241730
17.237734,17,1,2,15,33,-16,16,2,0.887241730
17.259777,7,14,2,-17,-45,11,11,8,0.887241730
17.259796,16,21,2,3,28,25,0,-2,0.887241730
17.259863,11,80,10,3,-69,-4,-24,-2,0.887241730
17.259871,-32,-87,-12,-4,25,-25,15,-18,0.887241730
17.273578,-23,-14,0,-6,-19,-1,-10,-27,0.887241730
17.273601,-2,27,-6,8,-2,23,12,21,0.887241730
17.275417,-1,-28,0,-10,-11,-18,-22,5,0.887241730
17.275431,14,14,-3,2,21,16,3,-16,0.887241730
17.296235,6,47,7,2,-25,-21,3,69,0.887241730
17.296259,-46,-15,-1,-6,-3,-2,-9,-8,0.887241730
17.298355,-5,-40,-5,-14,-15,16,6,-8,0.887241730
17.298363,-22,-60,-8,13,9,-30,29,40,0.887241730
17.319275,23,-2,-3,-9,-36,32,-47,-54,0.887241730
17.319301,-6,8,-1,5,28,63,7,-6,0.887241730
17.322063,-1,54,13,-10,13,-41,37,34,0.887241730
17.322080,-8,-9,-3,25,57,-37,-10,-59,0.887241730
17.333776,40,33,3,1,-33,-29,4,23,0.887241730
17.333813,-14,-33,-9,-15,2,23,-16,9,0.887241730
17.336638,-4,59,3,-1,-71,8,-26,-5,0.887241730
17.336653,25,-21,4,1,41,9,14,2,0.887241730
17.356044,-41,10,-11,-4,2,-1,5,-32,0.887241730
17.356061,-44,-86,-19,-4,4,-9,8,-40,0.887241730
17.356746,7,42,-3,-4,-7,-5,5,-15,0.887241730
17.358749,5,38,4,-14,-24,-11,-16,12,0.887241730
17.379528,-21,12,3,2,18,-2,2,-2,0.887241730
17.379552,32,-33,-1,-2,-21,-6,7,-25,0.887241730
17.382432,-8,-41,-3,6,30,33,-9,47,0.887241730
17.382443,-12,24,7,-17,-22,9,-20,-19,0.887241730
17.401960,12,-18,-1,8,27,-16,3,1,0.887264261
17.401982,-2,8,7,4,62,50,62,-10,0.887264261
17.402604,-15,-71,-11,-5,-21,-57,-59,3,0.887264261
17.402627,-35,-24,-6,6,-6,42,-24,-13,0.887264261
17.416084,3,2,5,-1,-16,12,7,19,0.887264261
17.416096,10,-4,5,-12,0,-20,0,-36,0.887264261
17.416793,7,35,3,3,3,17,-11,8,0.887264261
17.416833,1,29,-10,-14,-21,4,29,21,0.887264261
17.439262,-10,-70,2,-6,-33,-33,-13,-36,0.887264261
17.439286,13,-43,-8,2,-10,10,-13,10,0.887264261
17.441461,17,7,1,5,25,20,10,-15,0.887264261
17.441473,-18,21,4,-7,2,-30,-6,-59,0.887264261
17.453938,-7,15,-4,-6,-81,0,15,-8,0.887264261
17.453965,12,75,3,12,31,-8,-43,-34,0.887264261
17.456256,-10,28,-4,1,31,91,90,8,0.887264261
17.456278,-32,-54,-6,-10,3,54,-67,-19,0.887264261
17.475764,4,-79,-6,14,12,3,5,13,0.887264261
17.475823,-7,71,5,-10,-38,25,-19,27,0.887264261
17.483632,-5,-81,-8,0,3,-14,-6,-25,0.887264261
17.483655,5,-4,-4,8,-6,22,13,10,0.887264261
17.499557,7,56,2,-23,-1,-10,3,-1,0.887264261
17.499589,-17,-18,-1,20,-25,-29,-14,17,0.887264261
17.502455,-4,3,-4,-21,-7,3,-15,-55,0.887264261
17.502467,39,108,13,19,78,-12,17,84,0.887264261
17.513694,49,-47,-9,-16,-13,9,4,32,0.887264261
17.513718,-44,61,4,17,28,-52,-25,-12,0.887264261
17.514998,43,19,0,13,16,-7,15,36,0.887264261
17.515007,-36,-38,0,-4,-30,-5,29,-14,0.887264261
17.536243,-8,9,-2,3,13,-1,-16,-23,0.887264261
17.536313,36,44,3,-8,8,17,20,22,0.887264261
17.538285,-33,-5,-4,2,-25,-2,-22,-12,0.887264261
17.538297,4,-12,-5,-4,-21,-56,10,6,0.887264261
17.559461,16,39,7,10,-7,43,-20,14,0.887264261
17.559485,3,-40,-9,1,63,-26,37,24,0.887264261
17.560099,-36,18,3,-15,-66,-55,-49,-30,0.887264261
17.560124,34,-44,-10,-29,0,30,39,-2,0.887264261
17.573522,6,23,5,5,27,-26,-1,15,0.887264261
17.573540,-16,-48,-3,5,-16,-18,-13,6,0.887264261
17.574159,24,41,-1,-1,-27,-9,6,30,0.887264261
17.574200,-38,-4,1,-6,20,33,-11,-68,0.887264261
17.596654,6,93,4,6,23,-10,7,14,0.887264261
17.596697,-12,-119,-16,-12,-13,6,-5,3,0.887264261
17.598943,-20,29,-1,-7,-19,6,17,-11,0.887264261
17.598953,31,94,7,9,-23,2,11,10,0.887264261
17.619267,-42,-98,-12,-7,-3,-14,-14,-25,0.887264261
17.619281,7,-10,2,-13,-94,-26,0,19,0.887264261
17.619988,-17,-2,5,1,85,101,-9,-50,0.887264261
17.620010,-1,46,8,13,49,-83,-41,-15,0.887264261
17.633434,5,-15,-2,1,14,33,2,-9,0.887264261
17.633477,10,41,1,-8,-31,-9,1,-3,0.887264261
17.634070,0,52,7,2,-32,-7,-4,3,0.887264261
17.634078,-8,-96,-3,13,-8,20,10,-35,0.887264261
17.656646,14,-2,-3,2,4,10,2,30,0.889873636
17.656663,-13,37,4,-8,-1,15,-10,-22,0.889873636
17.658480,19,25,2,7,4,-93,13,28,0.889873636
17.658491,-1,25,-6,-8,58,65,-41,-4,0.889873636
17.680875,12,-7,-4,-4,-67,-22,20,-6,0.889873636
17.680887,-23,-31,-2,8,38,31,16,-2,0.889873636
17.680890,1,2,5,-1,-4,27,17,-37,0.889873636
17.680893,12,25,-2,-6,-48,-91,-4,52,0.889873636
17.694153,-22,-67,1,12,19,1,18,-11,0.889873636
17.694196,32,91,15,4,71,98,12,-8,0.889873636
17.696304,-3,-116,-22,1,-1,-77,-60,15,0.889873636
17.696314,-16,6,0,-2,-21,21,-3,-47,0.889873636
17.716619,-2,24,-2,-4,-2,10,-1,4,0.889873636
17.716649,23,-2,-2,-13,-20,-40,-19,-12,0.889873636
17.718988,-18,12,2,0,31,23,-1,25,0.889873636
17.719000,7,-28,-4,-4,-24,6,14,21,0.889873636
17.739282,1,34,5,3,12,-8,-8,4,0.889873636
17.739299,-12,-63,-1,8,-6,2,6,8,0.889873636
17.741215,9,-7,-3,-5,-17,4,1,28,0.889873636
17.741228,32,-13,-3,10,14,0,-26,58,0.889873636
17.753586,-7,76,3,-6,-44,97,14,3,0.889873636
17.753608,-39,-66,-8,-7,-26,-72,0,1,0.889873636
17.755992,-5,20,7,1,-4,11,-5,-13,0.889873636
17.756005,8,-11,-5,-8,-97,1,-2,-61,0.889873636
17.776795,-8,-27,5,12,104,32,0,53,0.889873636
17.776825,-12,9,-8,-16,6,-35,-34,-32,0.889873636
17.777331,7,-5,0,0,-33,25,11,9,0.889873636
17.777353,5,-2,4,-5,-16,2,10,0,0.889873636
17.799331,6,-33,-8,-15,-33,-25,-12,-21,0.889873636
17.799348,-18,-28,-1,9,17,26,23,-8,0.889873636
17.801616,-3,31,2,7,10,-14,3,-3,0.889873636
17.801627,-4,-6,1,0,-2,7,13,14,0.889873636
17.813292,16,15,3,1,21,-10,5,-16,0.889873636
17.813324,67,44,2,7,-54,-12,17,59,0.889873636
17.822306,-53,1,-5,-31,-6,21,-6,-12,0.889873636
17.822321,-4,-75,0,26,9,19,31,31,0.889873636
17.839470,19,5,-2,5,34,-8,-28,39,0.889873636
17.839482,14,-13,-8,-11,0,-61,-13,-20,0.889873636
17.839485,-15,-19,-3,5,49,11,-5,1,0.889873636
17.839488,-1,7,-2,-16,-44,19,13,3,0.889873636
17.859416,-15,37,2,6,44,-8,-19,-26,0.889873636
17.859448,17,43,3,6,-16,-48,6,-1,0.889873636
17.860202,0,14,-4,5,27,48,-12,-47,0.889873636
17.860226,-12,41,-1,-4,-5,-24,8,-5,0.889873636
17.872939,-9,-2,-6,-12,-33,-13,-6,-19,0.889873636
17.872996,-13,-20,-1,-1,42,43,3,0,0.889873636
17.881666,3,-4,-1,3,-34,-14,3,-18,0.889873636
17.881706,-19,8,-3,-7,-6,-22,-9,-8,0.889873636
17.896261,21,-14,0,14,13,-34,-1,5,0.889873636
17.896286,-47,44,4,-10,-17,51,1,-8,0.889873636
17.898490,31,8,1,7,7,-14,-1,39,0.889873636
17.898500,4,-75,-3,-22,7,2,-8,-15,0.889873636
17.919601,-40,-26,0,18,13,45,13,-13,0.884204217
17.919653,29,34,2,9,-13,35,-6,41,0.884204217
17.920334,17,2,8,16,48,9,3,11,0.884204217
17.920366,-24,25,-4,3,-24,29,-2,-8,0.884204217
17.933401,-13,-5,-1,-27,-2,-91,13,-52,0.884204217
17.933414,14,-43,-4,-3,-16,43,-36,-5,0.884204217
17.941116,8,31,-3,0,-9,-31,1,8,0.884204217
17.941142,9,-37,-2,4,-20,-4,13,30,0.884204217
17.956227,-12,76,0,-8,-4,8,-10,-2,0.884204217
17.956244,-39,-15,3,6,-1,-13,2,-59,0.884204217
17.958728,51,26,5,-1,-16,-17,15,83,0.884204217
17.958741,3,-1,-1,-9,50,-3,-11,-20,0.884204217
17.980038,-1,-21,-8,-23,-62,-25,5,-13,0.884204217
17.980048,-28,72,6,8,-1,-15,-35,9,0.884204217
17.980095,-6,-115,-12,6,42,60,43,12,0.884204217
17.980097,11,-13,-3,0,1,-9,-25,12,0.884204217
17.992854,-26,-25,3,-1,0,65,5,16,0.884204217
17.992885,0,-43,-14,-9,20,-75,-35,12,0.884204217
18.001716,-15,49,6,3,-11,-1,14,-32,0.884204217
18.004079,9,12,5,4,-22,-3,-5,19,0.884204217
18.016436,15,57,9,-10,-27,-11,-3,-51,0.884204217
18.016473,-23,-67,-21,-8,14,43,30,-17,0.884204217
18.018767,20,55,7,-2,-27,2,-16,-17,0.884204217
18.018779,-5,-43,-9,-7,-27,-1,-1,26,0.884204217
18.039350,-8,-18,-9,2,34,-4,1,-6,0.884204217
18.039399,32,30,9,-1,5,25,31,54,0.884204217
18.041969,-3,-15,-2,-4,-14,-5,-12,-16,0.884204217
18.041982,-12,25,-5,1,20,15,9,-10,0.884204217
18.053232,-5,-24,0,-6,-32,-37,-15,23,0.884204217
18.053268,31,26,2,-2,-25,73,43,6,0.884204217
18.061464,-9,30,5,8,48,-70,-28,6,0.884204217
18.064056,-45,-11,-1,-7,-22,23,1,-11,0.884204217
18.076370,33,-100,1,14,19,5,1,2,0.884204217
18.076402,-8,-30,-9,-4,1,-26,-13,-24,0.884204217
18.077123,8,-3,0,-5,-28,0,-4,-11,0.884204217
18.077147,24,59,5,8,28,16,9,-10,0.884204217
18.099421,-13,24,4,-1,-26,-6,-3,13,0.884204217
18.099437,4,13,2,-4,4,0,8,3,0.884204217
18.101478,6,-4,9,-1,-67,-8,-17,49,0.884204217
18.101489,13,2,-11,-6,100,0,-17,5,0.884204217
18.113223,15,103,14,19,-20,0,50,-4,0.884204217
18.113256,-11,-81,-13,3,-24,-33,-13,-10,0.884204217
18.121141,-66,-29,-24,-8,13,-35,-71,-65,0.884204217
18.121159,10,41,-2,-3,-21,-4,-26,14,0.884204217
18.137660,17,57,3,-8,-6,35,29,-4,0.884204217
18.137673,-12,3,6,-2,19,38,6,-11,0.884204217
18.137676,14,-1,4,11,-6,-6,19,3,0.884204217
18.137678,-11,-19,3,-1,0,-8,-10,-41,0.884204217
18.159542,-27,-24,-4,-1,2,-6,-31,-6,0.884204217
18.159567,16,48,9,-1,-10,-17,8,4,0.884204217
18.161849,7,-13,0,-6,-1,35,15,-1,0.884204217
18.161866,-18,42,0,6,-5,-13,10,5,0.884204217
18.184150,6,-70,-9,-11,-47,4,-7,5,0.888129546
18.184161,-26,-7,2,23,81,-35,-23,-3,0.888129546
18.184164,14,32,-14,-33,-46,23,21,-21,0.888129546
18.184167,44,-34,5,7,83,-28,17,53,0.888129546
18.196161,-16,-27,-11,-7,-25,22,-33,8,0.888129546
18.196181,19,45,8,2,-34,-22,-13,-10,0.888129546
18.197702,-46,-32,-11,-3,6,20,8,10,0.888129546
18.197721,9,43,2,4,11,33,25,-51,0.888129546
18.219553,7,2,3,-4,-71,-30,-10,35,0.888129546
18.219584,24,77,7,11,87,38,21,-6,0.888129546
18.221981,17,-90,-12,-7,-6,-30,4,-41,0.888129546
18.221995,-51,-31,4,6,-30,-3,-1,-15,0.888129546
18.241863,-34,-70,-17,-12,-15,-10,-7,-27,0.888129546
18.241881,-4,51,3,-12,-28,8,-13,-39,0.888129546
18.244021,-18,-1,8,13,22,-25,3,13,0.888129546
18.244040,7,1,1,-8,-46,39,30,-2,0.888129546
18.256022,-3,-3,-5,16,52,-7,-17,11,0.888129546
18.256039,1,1,-1,-9,-44,-2,26,14,0.888129546
18.257926,29,7,1,-6,38,23,-17,23,0.888129546
18.257937,-2,48,5,5,-22,-14,-11,3,0.888129546
18.279806,-12,-52,-4,-20,0,9,20,-10,0.888129546
18.279817,-27,-123,-5,4,-31,11,19,0,0.888129546
18.279820,18,29,-1,-15,-37,-3,10,-69,0.888129546
18.279823,-65,-19,-3,29,79,2,-35,-8,0.888129546
18.301819,32,53,7,9,-1,-9,3,21,0.888129546
18.301841,4,29,-12,-13,34,-9,-31,-35,0.888129546
18.304404,-24,-19,3,8,19,31,27,23,0.888129546
18.304418,42,8,5,-7,-39,14,3,49,0.888129546
18.317039,22,13,-1,8,68,-6,6,-17,0.888129546
18.317077,-52,-18,1,-16,-68,-3,0,6,0.888129546
18.317083,-8,80,8,11,28,-6,7,-8,0.888129546
18.319911,36,-5,-1,-3,-41,0,-1,-9,0.888129546
18.340104,-10,-26,-3,-4,46,-20,-34,4,0.888129546
18.340117,24,107,3,5,34,11,12,16,0.888129546
18.340120,-5,-41,-6,-23,-86,-14,-5,1,0.888129546
18.340122,-1,-76,1,10,94,71,-10,2,0.888129546
18.361629,4,14,-4,0,-52,-29,10,-7,0.888129546
18.361647,45,0,3,-1,-17,-35,-10,-10,0.888129546
18.362508,-43,-30,-4,9,-16,10,-15,16,0.888129546
18.363518,39,61,8,-11,-53,-32,21,-12,0.888129546
18.375906,-6,-22,-8,3,19,9,-12,-7,0.888129546
18.375925,11,21,-3,-5,2,29,1,-36,0.888129546
18.383952,11,-48,4,6,15,-15,3,67,0.888129546
18.383977,6,7,-6,-8,-13,-15,-7,3,0.888129546
18.400029,-19,-6,-2,9,25,9,12,-11,0.888129546
18.400066,-1,-4,3,4,-33,-14,-3,0,0.888129546
18.402929,-10,36,1,-4,34,17,-6,-16,0.888129546
18.402949,9,-1,-3,0,1,-2,-30,43,0.888129546
18.421860,-4,-6,1,-5,-2,6,1,-2,0.888129546
18.421878,13,-10,1,7,-34,0,32,29,0.888129546
18.422358,-5,72,7,-7,91,-5,-14,-32,0.888129546
18.422418,31,-80,-14,-7,30,32,21,19,0.888129546
18.436177,16,5,3,7,-6,38,-14,2,0.877083647
18.436242,-25,-22,3,5,14,40,5,12,0.877083647
18.436942,21,59,2,3,-44,-24,-44,-4,0.877083647
18.436951,-8,23,-3,-6,-32,-29,33,14,0.877083647
18.459681,-13,26,-2,-2,0,10,-2,-13,0.877083647
18.459707,-34,-71,-11,-11,4,-39,-14,-2,0.877083647
18.461284,45,13,2,7,-16,23,20,11,0.877083647
18.461296,-16,121,2,-6,8,-23,-17,-31,0.877083647
18.481589,-13,-109,-15,1,-18,-6,12,1,0.877083647
18.481652,-24,-23,1,4,7,1,-23,11,0.877083647
18.482255,1,-28,-6,3,-9,-3,15,-52,0.877083647
18.482263,-28,23,9,-3,-31,-20,4,-17,0.877083647
18.496013,6,58,12,3,28,-10,-39,5,0.877083647
18.496021,29,8,-1,-13,55,34,-22,-12,0.877083647
18.496623,-9,-4,-1,14,16,-3,28,2,0.877083647
18.496660,-25,4,10,25,-13,78,5,-39,0.877083647
18.519804,33,-78,9,12,34,-24,35,10,0.877083647
18.519829,-43,-18,-8,-28,-20,46,-31,10,0.877083647
18.522029,2,8,-1,1,-24,-2,-6,13,0.877083647
18.522043,21,12,-2,-5,3,-16,5,-9,0.877083647
18.544059,-17,-5,2,6,-43,2,18,0,0.877083647
18.544099,39,13,0,2,10,-21,-10,22,0.877083647
18.544102,34,-12,3,-2,2,-2,10,71,0.877083647
18.544105,-32,17,-5,-3,-21,-37,-14,-54,0.877083647
18.556382,-2,-16,-6,-5,8,6,-31,-39,0.877083647
18.558279,13,7,4,8,-14,-29,10,-4,0.877083647
18.558291,-13,-47,-9,-4,11,7,-4,-23,0.877083647
18.558294,-10,-21,-3,-17,-46,-12,5,6,0.877083647
18.579243,2,-8,-14,-18,49,-5,-28,-19,0.877083647
18.580954,-16,67,7,10,-58,-37,11,-29,0.877083647
18.580966,-24,-88,-7,-4,83,71,11,-19,0.877083647
18.580969,-1,-9,-6,7,-3,-56,25,13,0.877083647
18.602283,-13,37,7,-11,30,28,13,12,0.877083647
18.602313,6,-60,-6,1,-33,5,-6,-3,0.877083647
18.604324,22,59,2,-3,-17,-11,-16,6,0.877083647
18.604338,-25,-49,5,-4,-12,-5,6,10,0.877083647
18.616714,12,25,-6,0,-10,-2,-6,-2,0.877083647
18.616757,-3,-16,6,5,25,-1,11,-35,0.877083647
18.619224,8,9,4,1,-24,-2,2,-5,0.877083647
18.619246,30,1,-4,-8,13,5,-23,3,0.877083647
18.639196,-84,8,4,8,-43,-14,5,1,0.877083647
18.639217,29,30,-2,7,-18,12,-5,29,0.877083647
18.639849,33,-25,-6,-13,2,-14,17,77,0.877083647
18.639896,12,37,-2,3,45,-7,-37,-9,0.877083647
18.661852,6,-30,-4,-2,7,6,7,-8,0.877083647
18.661870,-9,21,1,-10,-60,-15,-1,12,0.877083647
18.664610,-2,65,-8,-4,46,-9,3,-30,0.877083647
18.664621,-33,-63,-2,10,-2,-7,-4,12,0.877083647
18.675831,51,73,6,-10,-26,93,13,25,0.877083647
18.675863,18,16,0,-4,33,15,11,0,0.877083647
18.685653,-31,-49,-5,-1,-35,22,-10,-9,0.875614467
18.685665,-3,8,-1,-10,32,3,-3,-28,0.875614467
18.700345,18,9,6,12,-16,9,-21,-15,0.875614467
18.700356,-32,-59,-9,-1,8,0,37,-11,0.875614467
18.700722,13,56,12,-6,-40,-13,-72,-38,0.875614467
18.700730,59,-91,-11,2,55,11,14,49,0.875614467
18.721687,-65,33,3,2,5,-39,-6,-7,0.875614467
18.721706,26,28,0,0,43,10,-1,-6,0.875614467
18.723809,-61,-109,-5,3,-7,-19,28,-22,0.875614467
18.723821,-14,10,-2,-11,-44,-3,-23,-19,0.875614467
18.735677,38,0,-11,-11,-23,-27,2,54,0.875614467
18.735710,-10,14,1,-24,-25,-23,-8,12,0.875614467
18.745512,18,19,4,24,17,4,0,-6,0.875614467
18.745525,2,24,12,5,-18,8,-10,2,0.875614467
18.759317,14,13,-3,4,-12,-29,13,8,0.875614467
18.759341,24,37,0,18,-33,-12,12,12,0.875614467
18.760904,11,43,1,-12,49,96,7,-2,0.875614467
18.760923,-19,-26,-8,-12,-42,-50,23,48,0.875614467
18.781541,34,9,-1,8,47,29,-4,-10,0.875614467
18.781562,9,8,-4,-5,-41,2,13,19,0.875614467
18.787977,6,15,-4,-13,-31,-1,16,-24,0.875614467
18.788004,8,114,12,22,84,15,-10,44,0.875614467
18.795457,-15,-32,-10,-26,-64,-9,13,-2,0.875614467
18.795480,3,-2,5,18,34,-23,0,-47,0.875614467
18.805537,-16,29,2,3,4,2,-24,99,0.875614467
18.805548,5,-78,-11,-4,-27,3,6,-54,0.875614467
18.819275,-20,2,-3,1,-6,-6,8,-15,0.875614467
18.819302,-18,-6,1,-4,16,21,-18,-1,0.875614467
18.820812,12,27,5,9,-12,-30,11,-5,0.875614467
18.820833,-19,-4,-1,0,-27,-5,-18,-27,0.875614467
18.841865,17,28,4,5,-18,5,18,17,0.875614467
18.841882,-49,-96,-13,-16,73,27,-13,-5,0.875614467
18.843339,12,11,1,4,21,30,10,2,0.875614467
18.843363,-12,35,-1,-7,-3,33,7,-9,0.875614467
18.855289,4,-30,4,15,8,-63,9,-16,0.875614467
18.855306,-11,40,4,-22,-14,50,-14,2,0.875614467
18.872013,3,0,0,13,14,-33,-7,-16,0.875614467
18.872027,-12,-79,-14,-11,-9,37,2,-11,0.875614467
18.879313,-26,-3,8,2,-74,-41,-22,-21,0.875614467
18.879331,76,71,-7,-12,64,55,-2,-19,0.875614467
18.880794,-41,-88,-3,19,27,-49,4,73,0.875614467
18.880869,0,69,10,-1,0,-14,2,-20,0.875614467
18.903653,25,-9,-12,-13,-12,-3,-21,32,0.875614467
18.903676,27,21,0,-1,-30,-16,14,-34,0.875614467
18.903683,-45,-52,-7,-11,-90,-44,-2,-51,0.875614467
18.903688,29,-9,-1,8,-12,27,7,29,0.875614467
18.915434,14,37,4,-7,32,32,7,-3,0.875614467
18.915451,-31,-10,3,15,0,-15,-10,-7,0.875614467
18.925832,-2,9,-6,-12,-3,37,0,-36,0.875614467
18.925845,-24,7,0,1,-2,-80,-23,-4,0.875614467
18.939220,13,9,4,-6,-14,-42,-10,-7,0.871567456
18.939239,12,5,-9,0,3,36,42,28,0.871567456
18.940759,-60,-33,-5,-9,10,-23,-11,-32,0.871567456
18.940773,-15,-9,-12,-17,-8,46,-34,-13,0.871567456
18.961998,-5,68,-4,17,64,31,-12,-13,0.871567456
18.962022,1,-63,5,0,-36,-36,7,26,0.871567456
18.964337,34,59,-3,-11,-10,-19,-2,29,0.871567456
18.964351,0,-22,-2,11,46,25,17,42,0.871567456
18.975472,-33,-45,-6,-2,-20,17,16,-50,0.871567456
18.975565,-21,-3,2,4,-2,-36,-32,7,0.871567456
18.984751,13,14,-5,-15,-37,9,-1,-15,0.871567456
18.984769,51,100,8,0,-20,-20,4,4,0.871567456
18.999678,-23,-88,-12,-2,31,14,-3,-8,0.871567456
18.999704,-10,3,1,10,4,-30,-11,-5,0.871567456
19.001063,18,61,8,-3,-44,58,8,9,0.871567456
19.001194,-21,-88,-5,-2,50,-73,2,-24,0.871567456
19.021900,30,15,9,1,5,71,-2,18,0.871567456
19.021918,-40,-17,-2,-7,-15,-1,0,-38,0.871567456
19.023248,-1,-43,-11,3,4,7,9,-16,0.871567456
19.023306,0,57,-2,9,-45,-5,-58,5,0.871567456
19.035520,-38,-80,-4,-8,28,17,10,-14,0.871567456
19.035577,1,-23,-1,11,11,-5,7,20,0.871567456
19.044253,14,18,8,13,64,-17,3,37,0.871567456
19.044271,33,12,-6,-10,15,2,20,48,0.871567456
19.058830,1,22,1,-3,-61,-23,-6,-3,0.871567456
19.058843,0,30,0,-6,35,28,-15,3,0.871567456
19.066157,-15,-67,-10,0,-5,-17,-13,-34,0.871567456
19.066181,-3,22,0,-1,10,27,58,-40,0.871567456
19.082401,13,-15,-2,-5,-11,-9,-22,31,0.871567456
19.082433,52,25,5,-5,3,-2,11,45,0.871567456
19.084778,-40,19,-2,-2,-20,-9,-31,-39,0.871567456
19.084788,-20,-25,2,0,-15,29,42,-14,0.871567456
19.096259,-38,29,0,-5,33,-61,0,-31,0.871567456
19.096302,5,-8,-5,-5,-46,-19,-15,-10,0.871567456
19.104634,8,59,9,-7,-101,-44,5,-5,0.871567456
19.104654,20,-45,-1,24,89,32,-13,11,0.871567456
19.119651,-23,-30,-4,-4,53,14,34,-39,0.871567456
19.119684,-9,33,-6,0,-21,0,-43,-60,0.871567456
19.121840,43,1,3,2,2,-10,3,1,0.871567456
19.121852,-9,34,3,-13,-55,-21,-11,-17,0.871567456
19.140795,5,35,3,5,-14,24,-14,1,0.871567456
19.140812,1,-22,-4,-3,22,-21,18,-1,0.871567456
19.150996,8,-8,10,0,41,62,-1,-14,0.871567456
19.151006,12,43,-6,-1,-33,-8,-8,-29,0.871567456
19.164411,-65,-88,-2,-6,-4,23,1,71,0.871567456
19.164444,18,29,-6,-1,3,6,20,-12,0.871567456
19.167373,8,0,-8,0,-7,-15,14,17,0.871567456
19.167386,1,-4,-2,-8,1,43,-4,16,0.871567456
19.179258,33,68,9,-3,-34,-58,-5,1,0.871567456
19.179282,-31,55,-2,5,-4,6,16,-54,0.871567456
19.181641,-36,-104,12,15,66,39,23,-23,0.871567456
19.181655,12,-39,3,10,12,-22,4,2,0.871567456
19.202052,17,5,-10,-5,-8,21,-8,-17,0.872441756
19.202064,-8,-4,5,-1,-21,-1,-17,20,0.872441756
19.203337,-6,-8,-9,-12,-18,-37,2,-15,0.872441756
19.203359,7,-1,2,-6,-19,8,4,0,0.872441756
19.224392,-3,56,7,1,0,21,-13,-15,0.872441756
19.224419,7,-8,-1,5,0,-21,-2,27,0.872441756
19.226008,4,0,-3,2,2,5,-8,17,0.872441756
19.226023,-14,-25,4,-6,-28,15,24,-4,0.872441756
19.239336,38,37,-10,12,15,-8,-9,68,0.872441756
19.239354,-38,-29,3,-6,-4,1,0,51,0.872441756
19.240956,30,73,-2,-19,-56,-51,10,-6,0.872441756
19.240970,-29,-12,0,-9,13,17,-8,0,0.872441756
19.262159,30,17,10,26,-49,8,13,0,0.872441756
19.262192,-15,32,1,-2,-9,-19,15,5,0.872441756
19.264716,-12,-23,-5,5,69,66,-25,-25,0.872441756
19.264728,-14,-72,-4,-7,-26,-18,0,56,0.872441756
19.284476,-12,3,2,-7,6,6,9,-10,0.872441756
19.284503,-5,-3,-1,2,-22,10,-13,-5,0.872441756
19.285874,0,80,6,-6,-33,-7,10,-17,0.872441756
19.285899,-1,44,-5,12,23,-11,-19,-24,0.872441756
19.298689,4,43,0,-7,22,6,-15,-25,0.872441756
19.298733,21,-72,-6,-4,-7,-6,-9,19,0.872441756
19.305481,-6,6,-2,-7,-13,44,-4,-5,0.872441756
19.306995,-40,-2,-6,3,-4,-86,-18,-29,0.872441756
19.321757,55,32,1,12,-43,68,44,82,0.872441756
19.323288,-40,-57,-10,-16,82,16,11,-13,0.872441756
19.323304,50,-12,-6,19,46,15,39,29,0.872441756
19.323309,-3,40,10,5,-40,-13,-55,42,0.872441756
19.345056,-46,-33,-2,-17,13,16,-35,-92,0.872441756
19.345067,-1,14,-2,-5,-21,1,17,1,0.872441756
19.345642,-3,-82,4,11,-10,-25,-10,7,0.872441756
19.345652,33,20,4,-6,27,1,23,-16,0.872441756
19.359541,-35,22,-13,-18,4,-23,13,2,0.872441756
19.359556,15,22,0,12,13,10,3,4,0.872441756
19.365502,-1,35,5,4,-3,-24,-31,-11,0.872441756
19.365528,22,21,-1,-11,-32,11,16,-3,0.872441756
19.381923,4,7,-1,11,-17,1,-7,-61,0.872441756
19.381947,4,12,3,4,35,-24,-62,-13,0.872441756
19.384494,-9,-16,-3,-15,-71,-8,29,29,0.872441756
19.384505,-7,-57,-4,6,11,-1,40,58,0.872441756
19.404363,-35,20,1,-12,-13,-14,-61,-64,0.872441756
19.404384,42,51,5,1,50,13,-5,-7,0.872441756
19.406289,-45,50,-8,-11,-39,13,-18,-26,0.872441756
19.406306,4,-80,-5,5,30,8,9,43,0.872441756
19.418876,-8,-27,-8,-3,15,-2,20,8,0.872441756
19.418902,2,25,5,-5,-23,1,-18,36,0.872441756
19.428457,4,24,5,-5,14,-13,-16,12,0.872441756
19.428469,29,55,-5,-4,-13,4,5,-49,0.872441756
19.442253,16,-65,-2,-3,18,-11,19,26,0.872441756
19.442287,1,18,-3,0,-16,3,1,0,0.872441756
19.445148,-14,-14,-1,1,27,-10,8,-5,0.872441756
19.445160,-36,13,-6,-4,-23,9,-5,-56,0.872441756
19.464711,35,28,6,3,23,-5,0,64,0.883654402
19.464736,20,29,0,-2,-62,-19,9,-4,0.883654402
19.467192,17,-32,-5,4,54,76,46,-7,0.883654402
19.467204,-8,25,2,4,-18,-42,-24,-17,0.883654402
19.478850,-5,4,-1,-6,12,28,-32,8,0.883654402
19.478882,-21,-4,6,5,-2,-1,32,-73,0.883654402
19.485647,-6,6,4,5,-6,23,-14,17,0.883654402
19.485679,25,9,-7,-9,20,5,-12,17,0.883654402
19.501861,24,-11,-7,-5,-56,-27,11,-3,0.883654402
19.501880,9,16,2,0,-10,12,33,-28,0.883654402
19.503282,-30,21,3,13,-33,-65,-31,-28,0.883654402
19.503313,-34,-72,-1,17,54,75,26,-43,0.883654402
19.524219,-2,-8,1,-4,-4,-65,-25,-20,0.883654402
19.524244,13,26,-1,8,12,23,3,0,0.883654402
19.525963,62,18,-3,-15,-29,-57,-13,34,0.883654402
19.525983,-25,29,-2,-12,-28,46,-15,-9,0.883654402
19.538569,-16,13,4,-2,-33,14,21,-6,0.883654402
19.538666,-35,-21,-2,6,78,-25,-6,-18,0.883654402
19.545376,-1,9,-4,6,7,-35,13,3,0.883654402
19.545400,-8,-63,-13,-15,17,-41,-58,-59,0.883654402
19.561614,-27,24,2,12,30,-1,31,41,0.883654402
19.561661,57,-32,-16,-32,-51,7,-37,14,0.883654402
19.563071,-22,-34,1,4,9,24,7,-3,0.883654402
19.563080,16,32,4,3,-29,-2,6,-3,0.883654402
19.584280,11,3,-3,-17,-15,-25,9,-13,0.883654402
19.584295,-24,-21,16,44,-49,37,19,71,0.883654402
19.586649,-31,-36,-15,12,89,17,-61,69,0.883654402
19.586664,-1,46,8,-8,-44,5,2,-7,0.883654402
19.598744,-24,-91,-5,3,10,-7,-15,-56,0.883654402
19.598769,50,38,-3,0,-25,18,11,27,0.883654402
19.605468,14,40,1,-10,-40,-25,19,-25,0.883654402
19.605486,-20,29,6,13,-2,83,-33,1,0.883654402
19.622873,23,53,8,12,21,-49,2,-1,0.883654402
19.622886,-55,-50,-4,-5,27,27,-18,-26,0.883654402
19.623277,37,-25,-5,-1,-16,7,19,12,0.883654402
19.623287,-19,-14,0,-10,5,7,8,-11,0.883654402
19.644218,37,6,2,-3,-7,-28,-4,-28,0.883654402
19.644234,-50,-70,-15,-6,-42,-8,2,48,0.883654402
19.645860,2,4,5,-14,-27,3,3,-2,0.883654402
19.645902,7,17,-2,8,14,-21,28,-2,0.883654402
19.657978,-3,20,2,-5,14,32,-14,-12,0.883654402
19.658120,-11,-23,-3,0,20,0,-10,-11,0.883654402
19.669000,-9,-38,-1,1,-4,-17,-31,-24,0.883654402
19.669013,3,32,-2,-3,31,-4,18,14,0.883654402
19.682375,-28,9,-10,-8,-39,30,-6,-36,0.883654402
19.682406,2,21,0,-4,-8,13,6,-11,0.883654402
19.684878,16,24,6,21,-11,-19,11,-19,0.883654402
19.684894,-30,27,12,-7,65,36,-11,-51,0.883654402
19.704317,-35,-61,-9,-1,-8,-56,-53,8,0.883654402
19.704335,35,-90,-13,-15,-75,-6,24,-33,0.883654402
19.705832,-31,-37,-9,-7,75,-3,-2,7,0.878935895
19.705849,44,49,-6,-7,-19,-42,-2,-50,0.878935895
19.718017,-30,65,11,3,25,32,23,15,0.878935895
19.718041,-26,15,1,-5,-11,-6,-6,7,0.878935895
19.728224,-15,-22,-7,-5,-2,54,13,-16,0.878935895
19.728233,6,60,2,-1,-25,-86,-3,3,0.878935895
19.741949,29,-47,-5,-11,-8,45,19,73,0.878935895
19.741975,1,48,5,4,10,-11,2,-13,0.878935895
19.744305,-12,44,2,-5,-20,42,-2,-19,0.878935895
19.744316,19,-53,1,19,4,57,15,78,0.878935895
19.764125,-2,26,-2,-5,-51,-41,-6,-2,0.878935895
19.764144,15,-9,6,7,16,-21,8,10,0.878935895
19.765604,-17,12,9,-1,-39,16,3,-58,0.878935895
19.765613,-18,-29,0,12,-6,-21,-18,-45,0.878935895
19.777956,12,66,-7,-2,28,39,12,-15,0.878935895
19.777970,11,-22,-3,-4,19,-36,-14,-37,0.878935895
19.792784,-16,5,-3,-7,-18,-19,-2,10,0.878935895
19.792803,3,23,1,3,-2,-6,8,6,0.878935895
19.801960,8,10,3,-2,19,29,33,3,0.878935895
19.801985,-39,11,-4,-9,-22,4,5,-51,0.878935895
19.804373,37,11,-1,6,31,-2,-10,8,0.878935895
19.804393,0,-4,3,-9,-68,-79,-24,13,0.878935895
19.824830,-30,-26,-5,-4,65,105,29,-9,0.878935895
19.824841,5,-5,-5,12,40,2,-9,-21,0.878935895
19.825608,-1,-66,-14,-19,-20,-55,2,3,0.878935895
19.825619,8,44,-5,-10,-18,12,-57,41,0.878935895
19.837999,16,20,2,2,20,-27,5,-15,0.878935895
19.838024,-26,27,2,-4,-6,-32,11,6,0.878935895
19.847934,6,80,9,3,10,-28,-25,22,0.878935895
19.847954,13,-32,-4,7,39,35,42,-5,0.878935895
19.861785,33,-34,0,0,21,-10,20,22,0.878935895
19.861803,-45,-66,-2,-5,30,18,-8,38,0.878935895
19.863614,35,24,0,-1,-80,-11,5,29,0.878935895
19.863621,-1,-15,3,-1,24,9,2,24,0.878935895
19.884464,-8,-25,2,5,-8,-14,-8,-23,0.878935895
19.884496,23,49,1,-12,54,20,-5,-4,0.878935895
19.886901,-6,31,-1,-7,-23,-29,10,-8,0.878935895
19.886920,-46,-97,-16,-6,4,36,-42,-14,0.878935895
19.898294,13,15,0,-5,-14,19,0,5,0.878935895
19.898326,7,19,0,-1,-28,9,-2,13,0.878935895
19.907729,-8,17,0,3,47,-7,-10,-33,0.878935895
19.907741,39,51,12,8,-46,-10,22,16,0.878935895
19.921649,-2,-6,0,10,-11,48,9,30,0.878935895
19.921667,-1,-56,-12,-13,-41,-60,-28,16,0.878935895
19.923158,-18,43,-2,-2,29,35,20,-10,0.878935895
19.923234,10,-33,-7,-20,-21,9,29,-9,0.878935895
19.944324,4,-102,1,11,20,-49,-21,-16,0.878935895
19.944361,37,30,2,9,-15,47,11,7,0.878935895
19.946842,-6,-29,-6,-7,24,-21,-9,5,0.878935895
19.946853,-6,81,0,-9,14,-8,10,-57,0.878935895
19.958117,-9,5,-15,-25,-14,-61,-30,-38,0.878935895
19.958142,-40,-48,-7,6,2,89,15,58,0.878935895
19.968397,1,-62,-6,11,1,-57,-30,-5,0.885592281
19.968406,0,19,-2,-3,8,9,-7,-9,0.885592281
19.982631,11,30,11,8,-21,0,4,10,0.885592281
19.982686,12,-49,-4,-9,-4,-41,-9,-2,0.885592281
19.983140,-25,-14,-1,-6,-29,15,1,-28,0.885592281
19.983174,15,43,-6,0,-27,-1,27,23,0.885592281
20.004354,12,10,3,-9,-40,-2,-7,96,0.885592281
20.004383,-27,24,2,2,9,16,-22,3,0.885592281
