timestamp,sample_number,emg1,emg2,emg3,emg4,emg5,emg6,emg7,emg8
0.165029,0,-29,111,41,12,20,6,4,-1
0.165323,1,-10,-82,-55,-23,-12,-12,-11,-8
0.169175,2,7,62,6,5,0,1,-3,-3
0.169197,3,-14,-68,-13,-1,-4,-2,1,3
0.169861,4,20,95,-3,-5,-5,-3,-3,0
0.169881,5,-10,47,7,-4,-13,2,2,2
0.171616,6,-37,-61,13,-2,24,4,0,7
0.171648,7,-32,5,-29,-16,-10,18,-19,-50
0.182299,8,54,-46,-2,7,10,-4,10,21
0.182324,9,-5,-30,5,2,3,2,2,-1
0.193740,10,37,99,18,3,-8,-2,0,-2
0.193765,11,20,-34,-30,-4,-5,3,2,16
0.197110,12,-14,-27,-5,-8,-6,-2,-5,-10
0.197138,13,2,5,1,2,2,-2,-2,-4
0.212435,14,22,20,10,4,-3,0,3,4
0.212459,15,-7,39,18,6,6,-6,1,2
0.220965,16,3,4,-17,-13,-13,-3,-3,-3
0.221000,17,11,-30,8,11,5,-2,4,8
0.236192,18,-2,-67,-17,-10,-8,-5,-7,-9
0.236224,19,-50,0,15,10,4,-4,5,9
0.242534,20,54,-73,-2,-6,-7,-5,-7,-7
0.243568,21,5,-79,1,0,6,7,1,-3
0.256965,22,-1,58,8,0,1,-2,3,-1
0.256984,23,9,29,5,-1,0,-5,1,5
0.296644,24,8,105,7,1,-1,-1,2,0
0.296676,25,-5,27,-1,3,2,14,-14,-1
0.298134,26,-8,-25,-4,-9,-7,4,2,-6
0.298140,27,28,76,13,2,-3,25,-3,3
0.298142,28,39,-74,-2,-3,-1,17,0,4
0.298144,29,0,59,-9,-7,-4,-13,2,2
0.298656,30,35,-13,-7,0,0,-10,-7,3
0.298664,31,-18,-27,-3,-6,-4,-4,-4,-11
0.311131,32,-6,18,10,3,1,-10,-2,-1
0.311156,33,-33,-120,-15,-7,-6,7,-7,-9
0.317526,34,11,-92,-27,-4,-1,0,4,-20
0.317553,35,9,98,9,2,2,2,10,82
0.325882,36,11,36,-1,-3,-8,-13,-14,-6
0.325906,37,-44,-68,3,1,6,-3,9,-6
0.339535,38,-24,124,25,8,0,4,3,-9
0.339559,39,19,-120,-13,3,4,-11,-1,-20
0.356014,40,-45,-60,-7,-5,-3,0,-3,-4
0.356046,41,-2,75,8,8,3,1,5,53
0.361897,42,-42,17,27,9,4,0,-2,2
0.361922,43,-47,-78,-40,-13,-6,5,-7,-14
0.370995,44,1,106,3,0,0,-15,-5,9
0.371069,45,-4,55,5,-6,-5,4,4,-26
0.385806,46,-24,114,9,1,4,11,0,14
0.385844,47,-17,11,11,4,0,-6,-7,-14
0.387238,48,-60,16,-6,-3,-1,3,-1,-13
0.387245,49,-13,-58,-19,-6,-4,-7,-11,-6
0.408515,50,27,105,0,-3,1,-3,-1,9
0.408540,51,34,-9,2,-7,-1,2,2,-6
0.410104,52,-54,-83,-14,1,-2,-2,-1,-2
0.410124,53,-3,105,18,5,0,2,2,-1
0.422094,54,1,26,-3,-1,-3,7,-1,3
0.422115,55,-14,-88,-16,-3,-1,-8,-1,-11
0.430887,56,19,62,11,2,2,3,5,2
0.430923,57,-30,42,-4,0,0,0,2,-5
0.446273,58,-22,-128,-11,-6,-4,-6,-4,5
0.446288,59,-8,109,10,3,0,0,5,-2
0.447306,60,70,-34,-12,-4,-1,-12,-22,1
0.447330,61,46,95,14,2,0,0,2,-3
0.468504,62,-22,-73,-9,-5,-3,13,-5,-2
0.468532,63,27,127,12,1,-5,-29,-5,-11
0.470872,64,5,-7,3,3,2,15,14,5
0.470878,65,24,-22,-5,-2,-2,-8,-10,-6
0.482243,66,14,14,4,0,3,18,-1,-1
0.482271,67,16,55,-2,1,-3,0,-6,-5
0.492014,68,-17,-77,-11,-1,-2,24,5,1
0.492025,69,-1,17,13,6,3,-1,-5,-5
0.506953,70,8,-110,0,1,-3,-16,1,4
0.506973,71,-12,-18,-8,-6,0,-7,-9,-1
0.507586,72,11,108,3,1,1,1,11,-5
0.507622,73,16,6,8,0,-3,-2,-9,14
0.528686,74,-3,-17,-8,-1,-5,-50,3,-8
0.528709,75,-23,-111,-10,-3,-3,3,-14,-2
0.530464,76,25,79,8,-1,-2,-2,2,6
0.530471,77,40,-70,-21,-5,-1,-4,4,1
0.542186,78,17,123,1,-2,0,1,4,-4
0.542209,79,-5,24,10,3,-3,0,2,-1
0.551672,80,42,18,5,4,2,-11,-1,-23
0.551689,81,-24,27,39,8,4,6,2,-3
0.567109,82,41,-16,-31,-12,-8,0,-13,0
0.567125,83,9,78,8,1,1,10,9,2
0.567405,84,-13,-94,-3,-1,-1,11,-3,4
0.567411,85,11,71,13,5,2,0,7,-2
0.588779,86,-14,-121,-38,-8,-1,5,0,5
0.588803,87,-14,-43,-7,-3,-3,-1,-3,-6
0.591087,88,-46,62,-2,0,1,-8,0,1
0.591111,89,17,24,-16,-7,-4,-13,-2,-1
0.602750,90,-9,90,23,8,5,8,7,-13
0.604525,91,17,75,0,-6,-2,-7,-11,1
0.612031,92,1,38,0,-3,0,-4,-1,3
0.612044,93,64,26,13,0,-2,1,5,0
0.625038,94,-9,97,3,-1,1,4,2,-1
0.626542,95,-49,-27,-1,2,-2,2,5,-6
0.634409,96,33,-55,-22,-14,-8,0,-3,7
0.634426,97,10,-13,5,1,0,-4,-1,-6
0.648336,98,6,124,8,-2,0,0,-3,5
0.648362,99,-22,12,12,8,4,3,1,-12
0.650079,100,-33,-2,-7,-4,-1,-5,-4,-4
0.650277,101,9,-94,-24,-10,-5,3,-5,-2
0.662174,102,21,-31,7,0,-4,-2,-3,-22
0.662216,103,21,-60,-5,-1,-1,3,0,-2
0.673349,104,6,100,33,12,3,3,1,-6
0.673371,105,-18,55,-25,-9,-5,-3,-2,7
0.686845,106,4,90,2,4,0,2,-2,1
0.686856,107,38,116,18,2,1,4,5,7
0.687255,108,-30,-92,-12,-4,-6,-6,-1,-2
0.687261,109,34,60,4,0,2,3,6,-13
0.708545,110,17,36,-6,-3,-4,-9,-32,4
0.708564,111,-27,-62,-16,0,0,13,7,2
0.710385,112,-45,-100,-5,-2,-5,-30,8,3
0.710395,113,-10,45,-15,-2,-1,2,-43,-4
0.722144,114,-5,-93,-14,-5,-3,-1,3,4
0.722167,115,20,94,37,11,4,-3,3,-2
0.731254,116,-23,-99,-41,-12,-4,2,-13,0
0.731271,117,-50,53,2,-1,0,-5,9,-1
0.745895,118,41,127,36,7,4,30,0,-2
0.745913,119,-5,24,-22,-8,-7,0,1,-10
0.747489,120,41,-41,3,-1,1,7,3,5
0.747500,121,-26,-125,-7,0,-3,-6,7,2
0.768701,122,7,87,-9,0,-1,3,-3,-2
0.768727,123,9,93,25,3,-1,-3,2,3
0.770379,124,5,80,4,5,0,2,-1,-4
0.770392,125,10,4,10,4,1,8,9,2
0.782149,126,-12,-123,-9,-2,-2,-9,4,7
0.782174,127,86,28,12,11,6,2,6,9
0.791644,128,72,-7,-28,-19,-11,-10,-16,-9
0.791656,129,6,6,2,0,-1,4,-2,6
0.805468,130,-7,-38,22,0,0,-7,7,-5
0.805493,131,-31,-23,-17,0,1,-4,-1,4
0.812387,132,-66,-65,-23,-10,-4,6,-7,-5
0.812420,133,1,-2,-4,1,-2,-2,5,-9
0.828788,134,1,110,2,-1,-2,-5,-1,2
0.828874,135,-29,-125,-11,-3,1,4,-1,3
0.829813,136,29,127,46,16,8,6,3,-5
0.829825,137,-5,11,-17,-14,-9,-7,-9,2
0.841989,138,-40,-128,-32,-8,-6,-8,-4,-1
0.842011,139,7,40,11,-1,-1,-3,-2,-3
0.852742,140,52,98,48,12,6,5,11,7
0.852753,141,4,58,-11,-4,0,0,-1,-1
0.865456,142,33,115,34,12,6,4,4,6
0.865485,143,-84,-128,-63,-21,-12,-8,-12,-10
0.872247,144,39,127,12,2,-1,-2,1,1
0.872285,145,9,-9,14,7,0,3,2,3
0.888724,146,39,-1,-1,-14,2,-3,-1,0
0.888747,147,-4,30,-6,5,4,-1,2,-1
0.890055,148,26,91,9,0,0,1,0,8
0.890081,149,-41,-128,-25,-2,-5,-1,0,0
0.911791,150,-24,54,6,4,1,-2,0,-5
0.911833,151,45,81,23,5,2,3,6,3
0.914067,152,-20,-97,-25,-5,0,-2,-10,-2
0.914082,153,-66,-64,-21,-11,-5,-4,-6,-10
0.925346,154,7,46,-3,1,-3,0,1,0
0.925363,155,32,79,22,2,1,1,4,6
0.932150,156,-22,22,5,5,0,0,0,-2
0.932174,157,61,105,50,3,-1,-3,-2,1
0.948301,158,-37,-50,-20,-18,-14,-9,-5,-3
0.948344,159,-26,47,-1,16,2,-2,-6,-8
0.949903,160,-19,101,5,5,-6,3,8,3
0.949922,161,48,-48,10,4,16,1,2,5
0.971476,162,-107,-109,-32,-10,-5,-2,-7,-10
0.971509,163,63,94,0,-18,-6,-3,-3,1
0.973859,164,-1,118,30,18,7,2,4,4
0.973873,165,3,-72,-24,-9,-7,-2,4,10
0.985430,166,12,83,5,8,2,2,-1,-3
0.985453,167,44,18,9,-10,-3,-3,-2,2
0.991940,168,-35,-125,-29,-12,-2,-4,-6,-3
0.991957,169,-30,108,10,21,13,6,8,0
1.008344,170,35,-68,7,7,1,3,8,10
1.008359,171,-2,-98,-20,-28,-8,-9,-14,-9
1.009810,172,-12,75,5,8,1,3,1,-3
1.009891,173,23,77,-10,1,-6,-3,0,-2
1.030920,174,17,105,19,6,5,1,2,4
1.030942,175,-28,-61,-14,1,0,1,0,-2
1.033149,176,-18,-128,-20,-9,-2,-4,0,-3
1.033155,177,13,-46,-14,-9,-4,-1,-5,-4
1.045418,178,34,90,15,3,-3,-3,0,-6
1.045449,179,29,79,10,-11,-9,-1,1,-2
1.052680,180,-9,-64,-37,-35,-10,-9,-6,-4
1.052715,181,-21,-32,5,22,5,1,2,-3
1.069303,182,54,-71,-17,40,14,3,4,2
1.069313,183,-24,-87,1,15,6,5,2,3
1.069769,184,11,75,25,0,2,1,0,2
1.069802,185,50,89,-9,-29,-13,-5,-2,3
1.090882,186,-3,27,3,-8,-2,1,3,3
1.090910,187,-83,37,-12,-1,-8,-3,-8,-19
1.092585,188,16,54,7,-1,-5,0,0,-3
1.092600,189,-20,-50,3,-6,0,0,-3,-4
1.105388,190,-12,4,0,-5,2,0,3,1
1.105413,191,49,115,7,-1,1,-4,-1,0
1.112087,192,-83,-4,-7,0,1,0,-4,1
1.112112,193,4,44,-1,5,4,2,3,-4
1.129967,194,-30,-102,-12,-11,-6,-1,-2,3
1.129977,195,-71,74,2,0,1,-1,1,1
1.129979,196,81,-5,-16,-7,4,-5,-7,-4
1.129981,197,-17,98,-3,0,-3,0,-1,1
1.150760,198,-40,-64,-24,-14,-2,-2,-6,-3
1.150783,199,22,73,-6,-15,-6,0,1,5
1.152660,200,-17,65,6,22,10,5,5,3
1.152764,201,-21,49,8,-5,-2,-4,-7,-3
1.164442,202,-13,19,3,-12,-8,-3,-6,-8
1.164457,203,-1,-128,-7,8,-1,0,0,3
1.173793,204,-46,-82,-11,-6,0,-1,0,-4
1.173806,205,18,55,24,5,3,1,2,-1
1.189339,206,68,127,7,-3,-3,-3,-5,-3
1.189363,207,20,-63,-20,-6,-2,-5,-2,2
1.190440,208,20,76,15,2,-9,-1,1,-3
1.190459,209,0,76,13,-23,-7,0,-1,4
1.211268,210,-25,-18,7,22,12,2,2,0
1.211288,211,8,-30,-11,-11,3,0,-1,1
1.213465,212,3,-58,13,14,4,2,1,1
1.213475,213,-1,18,-4,-1,1,2,0,-3
1.224801,214,-3,-48,-12,-11,-9,-3,-1,-2
1.224832,215,0,7,16,8,-1,0,-1,0
1.234169,216,-16,-52,-44,-13,-4,-3,-2,1
1.234179,217,-23,-56,-60,-4,-3,-3,2,-3
1.249901,218,-8,3,98,21,-3,0,-2,-3
1.249912,219,-18,-41,-15,-7,6,1,0,2
1.249914,220,35,-55,-64,-4,-2,1,2,3
1.249916,221,35,26,67,27,1,2,0,1
1.270650,222,-58,-50,12,1,2,-1,1,4
1.270674,223,-19,-34,-9,4,0,3,4,-5
1.276934,224,31,-53,7,-9,-1,-3,-9,1
1.276962,225,5,63,-3,-1,1,1,3,3
1.293529,226,-26,-87,-33,-14,-3,-2,-4,-2
1.293551,227,-7,93,17,6,0,1,3,0
1.295440,228,-30,19,-3,1,-1,1,0,-3
1.295455,229,-25,-57,-22,-3,-3,-4,-5,-6
1.307034,230,19,63,-4,-1,-1,-3,3,3
1.307058,231,3,8,-13,-1,-2,-4,-2,3
1.317625,232,12,20,7,3,-1,1,-3,-4
1.317635,233,-16,-68,3,-3,-2,-1,-4,-4
1.331004,234,19,49,-11,-11,-4,-2,-2,0
1.331035,235,12,-8,20,13,3,0,1,2
1.337548,236,-17,0,2,-5,-2,-2,-1,2
1.337570,237,-15,27,-14,-1,-1,-3,-3,-3
1.354030,238,0,76,6,4,-2,-2,-2,-2
1.354059,239,-2,17,-28,-6,-3,-2,-1,-1
1.356753,240,11,32,26,0,-6,-1,-1,-3
1.356768,241,-20,-15,-35,-15,0,-2,1,0
1.375843,242,40,41,-19,5,1,-3,-6,-4
1.375869,243,-24,-38,23,3,-1,-1,-4,0
1.377506,244,7,-5,6,1,-2,-1,2,1
1.377521,245,5,-12,6,-2,-2,-1,-2,0
1.390206,246,-3,22,-2,-5,0,-1,1,0
1.390226,247,7,80,10,1,-2,-1,0,-4
1.397083,248,-12,-34,-10,-3,-2,-1,-2,0
1.397112,249,-11,-48,1,4,-1,0,-3,-2
1.413619,250,-6,30,-2,0,-1,2,-1,-2
1.413641,251,9,-2,-19,-1,1,-1,-2,1
1.415568,252,-3,30,21,-3,-2,-2,1,-2
1.415587,253,1,9,5,4,0,-2,-2,1
1.436624,254,2,17,-9,-3,-1,-2,-1,-2
1.436649,255,3,-78,0,-5,-3,-1,-3,0
1.437316,256,-4,19,1,2,-1,0,-3,-2
1.437353,257,0,-5,4,-3,-1,-2,-1,0
1.450497,258,2,-10,-13,-5,-3,0,-1,-1
1.450520,259,-27,-9,-7,2,-1,-1,-1,-4
1.464673,260,14,43,15,4,1,0,-1,2
1.464693,261,-13,-13,-4,-3,-4,-2,-5,-2
1.473676,262,-12,-98,-14,-5,-1,0,2,1
1.473698,263,21,42,6,2,0,-1,-1,-4
1.475403,264,3,14,0,0,-1,-1,0,-1
1.475417,265,1,-22,-8,-1,-1,-2,1,1
1.496120,266,3,-19,-9,0,1,0,0,-2
1.496143,267,0,14,11,-5,-3,-1,0,-2
1.497396,268,-14,-32,-16,3,1,-1,-3,-8
1.497427,269,9,6,7,1,-2,1,-2,0
1.510332,270,-5,9,2,-3,-2,-2,-1,-1
1.510355,271,5,-23,-16,-1,-2,0,1,2
1.517428,272,6,31,-2,-3,-1,-2,0,0
1.517449,273,-4,-13,2,-1,-2,-3,0,-2
1.533627,274,2,8,1,-1,0,-1,-2,-3
1.533648,275,-4,3,-1,-1,-1,0,-6,0
1.535051,276,-5,-6,4,-1,-3,-1,-2,2
1.535057,277,-2,-16,-5,1,-1,0,-3,1
1.556303,278,-5,-1,-1,-2,0,-1,-3,5
1.556335,279,6,31,3,2,0,0,0,5
1.557504,280,-8,-28,-2,0,-1,-1,-3,-1
1.557521,281,1,-57,3,0,-2,-1,-1,4
1.570344,282,6,30,-1,-3,-4,-1,-3,5
1.570361,283,-2,10,-5,-1,0,-2,-2,-1
1.577008,284,-2,11,8,0,-1,-1,4,-3
1.577024,285,5,24,-2,-2,1,-2,2,-10
1.593398,286,-7,-19,6,-6,1,-2,1,-5
1.593415,287,-4,-33,-22,1,0,-3,-3,-9
1.594938,288,7,11,2,-3,-1,0,-2,-2
1.594949,289,-11,-22,4,0,-2,0,-1,-7
1.616189,290,5,30,-5,2,1,0,-2,-2
1.616214,291,-6,-19,4,-5,-2,0,0,1
1.617474,292,5,4,-1,-2,1,1,0,-2
1.617539,293,-1,28,-8,-1,-2,-3,-6,-5
1.629686,294,-1,-21,-4,-1,-1,0,0,-3
1.629703,295,2,5,4,-1,-2,-2,-2,-2
1.640023,296,0,5,-3,-3,-1,-1,0,3
1.640036,297,-1,-9,-2,0,1,-2,-1,3
1.653742,298,-8,23,-4,0,-3,-2,0,-4
1.653770,299,4,-25,5,-3,-1,-1,0,1
1.656210,300,-4,9,3,-1,0,-1,-2,0
1.656324,301,0,3,-3,1,1,-2,0,-2
1.675783,302,0,6,-2,-2,-1,-1,-2,-1
1.675800,303,-4,16,9,-1,-2,-1,-3,-3
1.677344,304,-5,-12,-6,1,0,-1,-3,3
1.677360,305,1,5,5,0,-1,1,-1,4
1.690040,306,1,-14,-19,-1,1,0,0,2
1.690054,307,-4,4,8,-2,1,0,-2,-1
1.699759,308,-3,-8,-13,-2,-1,-1,-1,-1
1.699769,309,3,7,5,2,-1,-1,-1,0
1.713437,310,-2,3,4,1,-1,-1,-3,-3
1.713459,311,-2,11,0,0,-1,-1,0,0
1.714768,312,-4,-44,-2,0,0,-1,-2,-2
1.714778,313,-1,3,-3,-2,0,-2,0,-1
1.744763,314,-3,-6,2,-1,-1,-2,-2,-3
1.744797,315,1,10,-5,0,0,-2,-3,-1
1.746553,316,0,13,1,-3,0,-2,0,-1
1.746565,317,0,-8,-2,-1,0,1,-2,1
1.749577,318,-2,-10,2,1,-1,-3,0,-1
1.749638,319,-1,5,-1,-2,0,-1,-1,-3
1.758727,320,-3,8,-1,0,-1,-1,0,-4
1.758784,321,-3,-17,0,-2,-1,0,1,-1
1.773376,322,-2,43,0,-3,-2,1,1,-1
1.773398,323,0,-62,2,-1,-1,0,0,-1
1.775166,324,0,-9,-7,0,-1,-4,-1,0
1.775178,325,-1,28,-6,-2,0,-2,-1,-2
1.795931,326,0,-10,-2,-4,-4,-1,-1,-1
1.795950,327,0,19,5,2,0,-2,-1,0
1.797408,328,-2,8,7,-1,-1,-1,-2,-1
1.797425,329,-1,-7,2,1,-1,0,-2,0
1.809614,330,0,-11,0,-1,0,-1,-1,4
1.809626,331,-6,3,-4,0,-1,-1,0,-2
1.820271,332,0,0,-1,-1,0,0,0,-2
1.820285,333,-1,1,-2,-2,-1,-1,-3,-2
1.833594,334,-1,-9,0,1,0,0,0,-2
1.833615,335,1,5,-2,0,-3,-1,-2,0
1.835234,336,0,5,-2,1,-2,-1,-2,-1
1.835244,337,-1,-5,-1,-1,-2,-2,0,1
1.856450,338,-3,14,0,0,0,-1,-2,-2
1.856464,339,1,-41,-3,-3,0,-1,0,1
1.857360,340,-6,10,-1,-3,-2,-2,-1,-6
1.857375,341,0,1,1,1,1,0,0,-1
1.871297,342,2,-6,-4,-2,-1,-2,-2,-3
1.871309,343,1,19,2,1,0,0,0,-2
1.878556,344,0,-2,-5,-3,2,0,0,-1
1.878566,345,-2,-8,-3,-2,-1,-3,0,0
1.893450,346,-3,-11,-1,-2,-1,-1,0,-1
1.893474,347,1,9,-14,-3,-2,-1,0,0
1.895123,348,3,-4,13,3,-2,-1,-1,3
1.895148,349,-3,6,4,0,-1,0,-1,-1
1.915753,350,0,-5,-5,1,0,-1,-2,0
1.915773,351,-1,1,1,-2,-1,0,-2,1
1.917367,352,-2,2,-5,-3,0,-2,-1,1
1.917388,353,0,-1,-2,-4,-2,-3,1,1
1.930877,354,-2,-4,5,2,1,0,-2,-1
1.930890,355,-2,3,-2,-1,0,-2,-3,1
1.938689,356,-1,3,-1,-1,-1,0,-2,3
1.938704,357,1,-9,2,-1,-1,1,-2,1
1.953271,358,0,22,0,-2,0,-1,3,-1
1.953289,359,-1,-21,5,2,-1,-1,0,-2
1.955090,360,-1,-4,-12,-2,-1,-3,-1,-5
1.955112,361,0,-2,-2,-3,-1,0,-1,-2
1.976152,362,-5,1,1,-3,-1,0,-3,-4
1.976172,363,-1,12,-3,-1,-1,-1,-1,-1
1.977442,364,-4,2,7,0,1,-1,-2,1
1.977461,365,-2,-3,-1,3,-1,-2,-2,-1
1.989599,366,2,-15,-8,-3,-3,-2,-1,0
1.989621,367,2,9,6,0,0,-2,0,-2
1.998976,368,4,-4,-1,-1,-1,0,2,5
1.999001,369,-2,0,4,1,0,-3,-2,-2
2.012599,370,-3,-11,1,-2,-2,-1,-2,-2
2.013583,371,1,3,-2,-1,-2,-1,0,1
2.020928,372,0,7,-6,-4,-1,-1,-2,-2
2.020942,373,1,0,-1,-1,-1,-2,-2,1
2.035771,374,-2,-8,0,0,1,1,-1,-1
2.035784,375,0,9,-1,0,-1,0,-3,-2
2.037169,376,-6,-10,0,0,-2,-1,-3,0
2.037202,377,-3,-1,-4,-1,-2,-1,-2,0
2.049617,378,0,-7,2,-3,0,-1,-3,1
2.050872,379,-3,4,-10,-9,-1,0,0,-3
2.058697,380,-1,1,1,4,-1,-1,0,1
2.058710,381,-3,-2,-2,-2,1,0,-1,-3
2.073498,382,0,4,6,5,-2,2,2,4
2.073535,383,0,1,4,-2,-1,-3,-2,1
2.075058,384,-2,-2,-5,-4,-2,-2,-1,-2
2.075079,385,1,4,-3,0,0,1,0,0
2.096768,386,-2,3,0,-2,-1,-2,-1,0
2.096788,387,-3,-12,-7,-1,-1,-1,0,0
2.097405,388,1,3,8,-1,-3,1,-2,-2
2.097439,389,0,-2,-9,-2,-2,-1,1,-1
2.109424,390,1,-1,-1,-3,-1,-1,-2,-1
2.109440,391,0,3,2,1,0,0,0,0
2.120103,392,-1,2,3,3,0,-2,0,-3
2.120124,393,-1,-8,-7,-5,-4,-1,0,-2
2.133576,394,0,-7,-10,-12,-5,-2,2,0
2.133596,395,4,14,14,15,4,4,1,1
2.135337,396,-2,-22,0,3,2,2,-1,0
2.135357,397,-3,-1,-1,-2,-1,-2,-3,-1
2.157433,398,-2,-4,-7,-7,-2,-3,-1,-1
2.157447,399,0,7,4,-2,-2,-3,0,0
2.157451,400,-1,7,3,-1,-1,-1,-2,1
2.157496,401,-4,-3,-2,1,1,-1,-2,-2
2.169704,402,1,-6,-6,-4,-3,-2,-2,-1
2.171660,403,0,-1,-4,-3,0,0,-2,-2
2.178838,404,-2,1,4,2,-1,-3,-2,-2
2.178849,405,-2,-6,-3,-6,-2,-2,-1,-4
2.192550,406,-1,7,-9,-2,-2,-1,0,-3
2.192568,407,-1,-1,3,4,2,0,1,-3
2.199453,408,0,12,-9,-3,-2,-1,-1,-4
2.199474,409,-3,-12,29,1,-1,-2,2,-2
2.217532,410,0,0,6,3,-1,-1,-4,-4
2.217547,411,-5,-9,-22,-9,-4,-2,-1,-2
2.217552,412,0,16,18,-2,1,0,1,2
2.217555,413,2,8,-1,4,-1,2,-2,1
2.229547,414,-5,-4,3,1,1,0,-2,1
2.229563,415,7,-3,-5,-9,0,0,-1,-2
2.239893,416,-22,-13,-11,1,-1,0,-1,-2
2.239909,417,0,1,-8,-2,-2,-2,1,-1
2.252974,418,-1,-2,7,4,2,-1,-1,1
2.252996,419,3,2,5,-3,0,-1,0,-1
2.259638,420,2,-1,-13,3,-2,-2,0,-5
2.259656,421,3,3,-28,-7,-2,-1,-5,-3
2.275984,422,-3,-11,5,5,1,0,0,2
2.277702,423,-13,-11,47,7,1,2,5,-2
2.277716,424,2,-4,-7,-14,-3,0,2,-3
2.277718,425,-4,4,-2,8,-3,-2,1,0
2.298567,426,5,0,-25,-6,0,0,-6,2
2.298589,427,-1,13,-11,-2,-3,-4,-5,2
2.300488,428,3,-15,2,-1,1,-1,0,1
2.300496,429,0,-3,8,2,0,-1,-3,-4
2.312617,430,-1,3,-21,-10,-2,-3,0,-2
2.312639,431,-1,-1,1,7,2,-3,0,1
2.319903,432,0,5,2,-5,-1,-1,-1,0
2.319924,433,0,-2,5,4,1,-1,0,0
2.337400,434,-5,-4,15,9,1,0,0,-3
2.337410,435,-1,2,-6,-6,-1,-2,-1,0
2.337412,436,2,-4,-13,-3,-3,-2,-4,0
2.337414,437,0,5,3,-8,0,-1,-1,-1
2.358432,438,-1,-7,5,3,-2,1,3,0
2.358450,439,2,3,-4,-4,-3,1,-5,2
2.359860,440,-5,-18,-7,2,0,-2,-3,2
2.359878,441,2,32,-25,-7,-2,-1,10,5
2.373188,442,-9,-18,63,0,-1,-1,-7,-8
2.373216,443,0,-1,-8,10,1,3,16,-5
2.379778,444,5,-3,4,3,1,-5,-19,-6
2.379806,445,-5,-3,4,-7,4,0,7,-2
2.395807,446,3,8,-14,-2,-5,-5,12,-24
2.395824,447,-4,-6,-14,-9,-5,-2,-9,-4
2.397269,448,0,5,14,-10,0,-1,6,-5
2.397301,449,0,-12,-13,3,-1,-3,-15,2
2.418626,450,1,9,-3,8,5,1,-5,15
2.418650,451,-2,-4,4,-3,-3,-2,2,4
2.419871,452,3,20,-22,1,-2,0,-2,5
2.421594,453,-2,-21,20,1,1,0,-3,4
2.431993,454,0,5,-6,0,0,1,0,4
2.432012,455,0,6,-4,0,-3,-3,-4,5
2.441700,456,-3,-7,-14,-11,-5,1,-4,10
2.441712,457,-1,-1,-5,6,-2,-1,-2,3
2.455991,458,-2,7,-3,4,-1,1,1,8
2.456020,459,1,27,13,12,-1,-3,-12,2
2.457880,460,1,-24,-10,-1,1,1,-14,7
2.457892,461,-2,25,46,3,0,6,24,8
2.478681,462,0,-6,-31,-8,-4,-4,11,-7
2.478698,463,-2,-1,1,-7,-1,1,-2,2
2.479897,464,-1,5,-4,6,-3,-2,11,-7
2.479909,465,-1,-9,-7,-1,2,-3,-9,1
2.492024,466,-1,-6,12,1,-1,1,-9,5
2.492036,467,-2,-8,-18,-9,-2,-3,-3,-2
2.502157,468,0,1,14,7,0,-2,7,-1
2.502175,469,-1,-13,-19,-9,-3,-2,-6,-1
2.516191,470,0,6,10,2,-2,-1,1,2
2.516214,471,-2,-13,-7,0,1,-1,0,-5
2.518384,472,-1,3,-11,-1,-1,0,-1,-2
2.518394,473,-4,-10,5,1,0,-1,-1,-5
2.538496,474,-3,-5,18,6,-4,-1,-4,-4
2.538517,475,-2,3,-32,-21,-3,-1,1,-1
2.540182,476,0,9,13,10,3,1,2,1
2.540201,477,-3,-21,19,8,-1,0,-1,-5
2.552779,478,0,0,-17,-6,-3,-3,0,0
2.552790,479,1,-4,12,1,2,1,-1,-1
2.561744,480,-3,-1,3,-2,-1,-1,2,-4
2.561755,481,0,-2,-24,-6,-3,-1,-5,-1
2.576329,482,-2,-4,-8,-5,-3,0,-2,-2
2.576355,483,0,-3,8,4,0,0,-1,1
2.577947,484,0,4,-8,-7,-1,-2,-1,-1
2.577962,485,-1,0,-5,-1,-1,-2,0,-3
2.598247,486,-2,-3,-2,-3,0,-4,-1,-2
2.598288,487,-4,-5,-6,-4,-1,-2,-4,-2
2.599780,488,-1,5,10,4,1,0,2,-3
2.599793,489,-2,-7,16,-7,-2,-2,-2,-3
2.612596,490,2,5,-25,3,-1,0,-1,-2
2.612607,491,0,-7,10,4,0,1,2,-1
2.622919,492,-2,6,-1,-11,-5,-1,-2,-2
2.622934,493,-2,0,-6,8,1,2,0,-3
2.636121,494,1,5,1,-4,-1,-1,-4,-1
2.636142,495,15,4,8,3,1,-3,0,-3
2.637405,496,-43,-17,0,-2,-2,-3,0,-2
2.637467,497,70,77,5,-5,1,0,0,1
2.658470,498,-76,-111,-19,-10,-4,-4,-6,-9
2.658482,499,15,16,-13,-2,-4,-1,-1,-1
2.659766,500,12,17,21,1,-3,0,0,3
2.659860,501,21,17,-23,-17,-3,-2,-1,-1
2.673482,502,7,30,20,19,7,2,3,6
2.673496,503,-28,-10,5,9,2,1,-2,-1
2.683588,504,25,17,-12,-13,-2,-1,0,-1
2.683609,505,-48,-70,12,6,-2,-2,-7,-9
2.696293,506,13,22,1,-2,-2,0,0,1
2.696322,507,-14,-13,-14,-8,-3,0,0,0
2.698294,508,20,20,12,8,0,0,1,2
2.698299,509,-10,5,-18,-8,-3,-1,0,3
2.718994,510,37,26,11,-5,-1,-1,-3,-1
2.719005,511,0,-12,-10,2,2,0,-1,0
2.719723,512,-21,-22,-8,-3,-2,-2,-1,-2
2.719729,513,-33,-8,0,2,2,-2,-2,-4
2.734525,514,-21,-21,-1,-3,0,1,0,2
2.734541,515,42,47,17,0,-3,-2,2,3
2.742181,516,-46,-55,-24,-10,-3,-2,-7,-12
2.742193,517,9,-16,-10,3,1,1,-2,3
2.755963,518,29,34,-4,-2,0,0,0,3
2.755982,519,1,8,27,8,0,0,4,2
2.757647,520,-9,-3,7,-3,1,-2,-2,-4
2.757662,521,4,-19,2,5,-2,-1,1,-2
2.779955,522,-7,23,-8,-5,-4,-2,-1,-2
2.779966,523,23,-26,-17,-4,-4,-3,-2,1
2.779968,524,10,-87,-8,-6,-4,-3,-4,1
2.779969,525,-26,28,3,-3,-3,-1,0,0
2.791977,526,21,22,-3,0,2,-1,-2,-2
2.791999,527,-27,-8,8,-1,-1,-1,-2,-2
2.802123,528,19,32,5,3,-2,0,0,0
2.802134,529,4,-2,-2,1,0,0,-1,1
2.816244,530,-23,-33,6,-5,-2,-1,-2,-1
2.816274,531,3,-2,-10,2,-2,-1,-1,-5
2.818356,532,50,33,14,8,0,-1,2,3
2.818370,533,-14,-15,-21,-8,-3,-3,-3,-4
2.840908,534,3,6,-2,-5,-2,-1,0,-1
2.840925,535,14,-3,-3,-6,-1,0,-1,-2
2.840929,536,14,33,-1,-3,-2,0,1,1
2.840931,537,17,5,28,7,2,-2,-1,-1
2.852552,538,-40,-28,-9,2,-1,0,-3,-2
2.852574,539,4,-13,-8,-4,0,-1,-1,-2
2.861925,540,-17,-9,-1,3,-1,-1,1,0
2.861936,541,13,32,-10,-6,1,1,-1,3
2.876026,542,-4,-12,0,-3,-3,-1,-2,1
2.876047,543,-10,-1,0,-2,-5,-1,-2,0
2.878136,544,-10,21,4,7,4,0,0,0
2.878148,545,-9,-16,1,-2,-1,-1,-1,-2
2.898647,546,28,16,1,1,-3,-3,0,0
2.898676,547,-23,-2,4,2,0,-1,-2,0
2.900568,548,-7,-7,-5,2,0,0,-2,-1
2.900579,549,13,-8,-10,-12,-6,-2,0,-1
2.912209,550,43,0,8,5,2,0,0,2
2.912237,551,-57,26,-2,-1,0,-2,-3,-3
2.923085,552,11,-24,-9,-6,-1,0,1,-5
2.923104,553,-30,6,6,4,-1,0,2,2
2.936231,554,6,-5,-10,-4,0,-1,-4,-4
2.936251,555,14,20,5,4,2,-1,-1,0
2.937981,556,0,13,-2,-3,-2,0,1,1
2.937990,557,-10,-9,-4,-1,-3,-1,-1,-1
2.958672,558,2,13,2,-2,-3,0,1,-2
2.960239,559,-6,-18,-3,-4,-4,-1,-2,0
2.960255,560,-18,-2,1,-2,2,-1,-2,-3
2.960257,561,12,-14,-3,2,-3,-1,1,-1
2.972370,562,-12,13,-5,-8,-4,-3,0,-4
2.972398,563,7,-3,2,1,-1,-2,0,1
2.982681,564,-3,-31,-1,6,0,-1,-1,4
2.982692,565,2,9,-5,-4,0,-2,-3,-1
2.995835,566,-25,-15,2,4,-3,0,-2,1
2.995859,567,-14,-10,-8,-10,-4,0,0,-4
2.997272,568,5,23,5,6,0,-3,0,0
2.997278,569,16,22,4,2,3,1,-1,3
3.018574,570,-24,-29,-8,-5,-3,-1,-1,-5
3.018596,571,29,1,10,-2,1,0,-2,-3
3.020210,572,-15,4,-2,-3,-3,-3,0,-1
3.020216,573,-5,9,4,0,-2,0,-2,-1
3.032138,574,1,-21,-3,-1,-2,-2,-1,0
3.032160,575,-2,3,3,1,0,-2,1,-2
3.041602,576,5,9,0,1,1,1,-3,-1
3.041612,577,-11,-6,-7,-4,-2,-2,0,-4
3.056001,578,6,19,0,1,-2,-1,-1,1
3.056095,579,-12,-2,-7,-6,-1,0,-1,1
3.057446,580,8,-25,-5,4,-2,0,-3,1
3.057489,581,1,10,4,0,-3,-2,0,-3
3.086097,582,2,-15,-3,-3,-1,-2,0,-1
3.086121,583,-36,0,2,-1,1,-1,0,-4
3.087361,584,-3,19,4,2,0,2,-2,-1
3.087378,585,-4,-14,0,3,0,-1,-1,-1
3.092067,586,10,6,-5,-3,0,-2,-1,-2
3.092082,587,8,-5,0,-3,-3,-2,-3,0
3.101351,588,-4,1,-2,-4,1,0,-1,-1
3.101363,589,0,-14,-3,3,-1,1,-1,0
3.116172,590,2,6,4,-2,0,0,2,-2
3.116198,591,-2,-16,-8,-2,-3,-3,-3,-2
3.117542,592,3,6,-1,-6,-4,-1,0,-2
3.117572,593,10,-6,1,-2,0,0,0,-2
3.138746,594,-1,15,9,0,0,1,-2,-1
3.138871,595,17,19,-18,-2,-2,-1,-2,0
3.140886,596,2,-24,8,1,1,-1,-1,-1
3.140900,597,-7,-11,-3,-4,-1,-2,1,1
3.152069,598,2,15,3,2,-1,-1,-1,1
3.152094,599,-4,0,1,1,0,1,0,0
3.161015,600,11,15,-7,-3,-1,-1,-1,-2
3.161094,601,-37,-6,2,-1,2,-2,-2,-1
3.175352,602,6,0,0,0,0,-1,-1,-1
3.175363,603,8,-13,-5,-3,-1,-2,1,-1
3.182170,604,16,8,0,-5,-2,0,1,-1
3.183694,605,-29,0,2,7,0,-2,-4,-6
3.198463,606,15,-3,-8,0,0,-2,0,-1
3.198484,607,-8,-12,4,2,0,0,-2,-2
3.199883,608,0,-1,1,-6,-3,-1,-2,-1
3.199890,609,9,17,-7,-4,-3,-1,0,0
3.221600,610,-4,1,-5,-2,-2,1,-2,1
3.221611,611,5,-2,2,-1,-1,-2,-2,-1
3.230349,612,-16,1,-4,0,-1,-1,0,0
3.230364,613,15,9,1,-1,-2,1,0,-1
3.235365,614,-9,-6,4,2,-2,-2,-2,-1
3.237301,615,6,2,-5,-1,-2,-2,1,0
3.242119,616,-19,-32,-2,-4,-2,-1,-2,1
3.242139,617,15,1,0,-2,-1,-1,1,-3
3.258335,618,-5,-5,-4,-3,-2,0,1,0
3.258357,619,-1,11,5,2,0,-2,-3,1
3.260142,620,-1,5,0,2,-1,-1,-2,0
3.260155,621,2,-11,-8,-3,-3,-2,-3,-1
3.281556,622,0,10,-7,-5,-4,-2,-1,1
3.281567,623,2,-5,25,9,2,0,0,-1
3.282385,624,8,20,-6,-1,-3,-3,-1,1
3.282449,625,16,-74,-5,-4,-2,-2,-1,3
3.296136,626,0,11,-6,-5,-3,-2,-1,-5
3.296151,627,-11,-2,-12,-4,-5,0,0,-3
3.301977,628,11,9,4,1,2,0,0,-1
3.303553,629,9,21,8,2,0,0,-1,1
3.318444,630,3,-6,-4,0,0,0,-2,0
3.318464,631,10,-8,-1,-3,-2,0,0,1
3.320172,632,-9,-4,-1,0,-3,-2,-2,-3
3.320187,633,-4,14,-4,-1,0,-1,-1,1
3.340838,634,-12,-15,3,1,1,0,-1,-1
3.340862,635,2,9,-4,0,-2,-1,-2,-1
3.342366,636,-14,-22,-4,-1,0,-3,-1,-3
3.342384,637,0,3,-1,-3,-1,-2,-1,-1
3.356339,638,6,8,5,1,-1,0,0,-2
3.356350,639,-5,-5,-5,-5,-2,-2,1,-3
3.362652,640,0,5,-2,-1,-1,0,1,-2
3.362681,641,-13,-1,1,-1,-1,-1,0,-1
3.378506,642,0,2,4,0,0,-1,-1,-1
3.378528,643,-2,-8,-3,-1,-1,-2,-1,1
3.380407,644,-3,23,-5,-4,-3,-1,-1,-1
3.380417,645,1,-28,2,0,-1,-2,0,-4
3.402324,646,-1,11,5,0,2,0,0,-1
3.402335,647,-3,-6,-1,1,0,-1,0,-1
3.402338,648,12,5,-4,-1,-1,-3,-1,1
3.402339,649,-5,14,3,-1,-1,-2,-1,-1
3.416516,650,-4,-12,-3,1,1,-2,-2,1
3.416527,651,4,3,-1,-5,-2,-2,1,-3
3.422197,652,0,-5,4,-1,0,-1,-2,-1
3.422226,653,6,11,-3,-5,-4,1,-1,-1
3.438641,654,-13,-11,1,6,-1,-1,-1,-2
3.438664,655,5,2,-1,-3,0,0,-1,0
3.440559,656,-7,-4,-2,2,-1,-1,-2,-2
3.440570,657,7,2,-3,-3,-1,-4,-1,1
3.462554,658,-9,6,1,-1,-2,-1,1,2
3.462570,659,8,-5,-6,-2,-3,0,-1,-2
3.462574,660,-10,-7,1,-11,0,-2,0,-1
3.462577,661,-4,7,1,7,1,-1,-2,-1
3.475237,662,2,-1,-5,4,2,-1,-2,0
3.475254,663,3,-6,-5,-3,-3,1,0,3
3.482235,664,0,-1,3,1,1,-1,1,-2
3.482256,665,-2,10,1,-2,1,0,-1,-1
3.498853,666,2,-2,-1,-1,-1,-2,-2,-2
3.498880,667,-7,8,0,1,-2,-1,-2,1
3.500287,668,-4,-8,-7,-1,-4,-3,-1,-2
3.500294,669,-7,-20,-1,-2,-3,0,-1,-1
3.521731,670,3,6,-2,-3,-2,0,-1,2
3.523915,671,-5,-3,1,-3,1,-2,-1,1
3.523930,672,0,-4,-4,0,-2,1,-1,-1
3.523932,673,6,19,-4,-1,-1,-2,-2,0
3.534746,674,-5,-35,-1,-6,-1,-2,-1,-2
3.534767,675,-4,-2,1,0,-1,-2,-1,-2
3.545598,676,1,2,0,2,0,-2,1,0
3.545609,677,2,1,-6,-4,-1,0,-2,0
3.558317,678,4,32,1,-1,1,0,0,0
3.558338,679,2,-29,7,3,-1,-2,-3,-3
3.560929,680,2,3,-3,-6,-3,0,0,0
3.560937,681,10,3,-4,-4,0,1,-1,-4
3.581035,682,8,-10,2,6,1,-1,0,3
3.581059,683,-9,16,2,8,2,0,-3,-2
3.582788,684,-1,-15,-2,-2,-2,-3,-4,1
3.582804,685,8,1,-1,-4,-5,-1,0,-1
3.594675,686,-5,6,1,-11,-2,0,-1,0
3.594699,687,1,-1,-1,5,-1,0,-1,3
3.603839,688,0,7,3,1,-1,-3,0,-1
3.603855,689,-8,4,0,-1,0,-1,-2,0
3.618359,690,4,-4,4,-3,-3,0,-3,-3
3.618381,691,0,3,-3,-4,0,1,1,0
3.620119,692,-36,9,-18,-1,0,1,-2,0
3.620131,693,0,1,0,2,-1,0,0,0
3.641366,694,-5,-22,5,-1,-1,-2,-1,-2
3.642680,695,9,7,-2,-4,-2,-2,-1,-1
3.642699,696,4,0,11,1,0,0,1,-1
3.642701,697,-9,-1,-5,-3,-2,0,0,0
3.654748,698,5,7,-1,1,1,0,-1,1
3.654778,699,-6,1,-1,-4,-1,-1,0,-3
3.664770,700,2,7,-4,-2,-3,-1,0,-2
3.664845,701,11,16,-2,-1,-2,-1,0,-2
3.686023,702,-15,-42,-2,-3,-3,-1,-3,-3
3.686055,703,4,-10,8,3,1,-1,-1,2
3.687729,704,8,10,-11,3,1,0,-1,-1
3.687735,705,-1,6,14,-1,-1,-1,-2,-2
3.701432,706,-2,16,-10,-4,-2,-2,1,-2
3.701462,707,7,4,-6,-2,-1,0,1,-2
3.703423,708,-18,-16,2,-4,-1,-1,-1,-6
3.703437,709,2,2,-4,-1,0,-1,-2,-1
3.714675,710,4,4,5,0,1,-3,0,-1
3.714703,711,-12,-10,-2,-3,-2,0,-3,-2
3.724721,712,8,1,3,1,1,-1,-1,0
3.724733,713,1,-4,-3,-3,-3,-1,0,-1
3.738897,714,-35,6,1,3,-2,1,0,-3
3.738925,715,10,14,-4,-3,-1,0,1,-2
3.739840,716,-7,-11,-1,-2,-1,-1,-2,-3
3.739857,717,9,-19,-1,-1,-1,-4,0,-5
3.761036,718,14,30,-13,-3,-2,0,0,-2
3.761064,719,-21,-11,14,-2,-2,0,-2,-3
3.762793,720,8,-4,-1,2,2,-1,1,-1
3.762798,721,0,-11,-3,-2,1,0,0,-1
3.774578,722,5,2,-4,-1,-1,-1,-2,-1
3.774602,723,11,25,-15,-5,-3,-2,-2,-2
3.785222,724,-3,-30,8,-1,-1,-1,-3,-4
3.785232,725,-14,18,-6,-1,1,0,0,1
3.797747,726,4,-11,-4,0,0,-1,1,-1
3.797765,727,-11,6,3,0,-2,-4,-1,-2
3.798404,728,21,11,3,2,-2,-1,-2,3
3.798467,729,-37,-14,-9,0,-3,-2,-4,-2
3.820813,730,-4,13,6,-1,0,1,-4,-1
3.820850,731,-7,-50,-6,-1,0,-1,-2,-1
3.823170,732,10,12,-4,-4,-2,-1,0,-1
3.823185,733,12,0,2,-1,1,-1,-3,-1
3.842685,734,-4,3,1,0,0,-2,-2,0
3.842700,735,8,-6,-1,1,0,0,-2,-5
3.843351,736,12,-15,7,-3,-2,0,-2,1
3.843434,737,-17,1,-6,-2,-2,-1,-1,2
3.857660,738,4,9,-5,-1,-4,-1,-2,-2
3.857683,739,1,-19,1,-1,-1,1,0,4
3.858920,740,1,4,0,-1,-2,-1,-1,-1
3.858928,741,-9,8,7,1,-2,-1,1,-3
3.880410,742,19,-4,-3,-1,-2,-2,0,0
3.880438,743,-14,14,-3,-4,-2,-1,0,-2
3.882652,744,3,8,3,-1,-1,-1,1,-1
3.882658,745,-9,-16,2,3,0,0,-2,-1
3.902675,746,9,25,3,2,0,0,-1,2
3.902712,747,1,-41,-6,-2,0,0,-2,1
3.903371,748,-9,0,-2,-1,-3,-1,-2,-2
3.903433,749,7,4,1,-1,0,0,-1,2
3.917758,750,-3,-1,3,-1,0,1,0,3
3.917773,751,7,21,1,2,0,-1,0,4
3.919770,752,-6,7,-2,-1,-1,-2,-3,-2
3.919791,753,-2,-20,-2,1,-3,-1,0,-1
3.940214,754,-5,-13,-3,-2,-1,-1,2,3
3.940232,755,0,8,-2,-2,-1,-4,0,2
3.941640,756,3,-5,1,1,1,1,1,1
3.941651,757,17,31,-5,-1,-2,-1,-2,0
3.963278,758,-17,-48,-1,-2,-2,-2,-2,-1
3.963297,759,-12,3,-3,0,-2,0,-2,-8
3.963869,760,3,22,1,-1,0,-2,-2,-1
3.963935,761,-3,-7,3,0,-1,0,0,0
3.977946,762,1,2,-1,-3,-1,0,-1,-2
3.979494,763,4,-1,3,0,-1,1,2,1
3.979499,764,-27,1,-5,-3,0,0,-3,-1
3.979501,765,7,14,0,-1,-1,-1,-2,2
4.000195,766,-1,-2,-1,1,1,-1,-1,0
4.000215,767,-5,-5,-5,-3,-2,-1,-1,-4
4.001572,768,-2,11,-1,1,-1,-1,0,-1
4.001588,769,3,-47,0,-4,-1,-1,-1,-1
4.022534,770,10,10,0,-1,0,-1,2,-1
4.022549,771,-14,-7,-2,-2,-1,-2,-3,-2
4.023408,772,6,2,-2,-3,-1,0,0,1
4.023419,773,3,-1,-1,-1,-1,1,0,-3
4.037666,774,-5,4,-3,-3,-3,-2,-2,-1
4.037682,775,12,12,1,1,0,1,-1,-1
4.038536,776,-1,-20,-2,0,1,-2,-3,-2
4.038549,777,0,1,1,-1,-1,-2,1,-3
4.060192,778,-8,-11,-3,-2,-2,1,0,-4
4.060220,779,1,13,-1,-1,-2,-3,0,-3
4.062067,780,0,-2,1,-2,-2,0,0,-1
4.062077,781,-12,-6,0,0,0,-2,1,-1
4.082650,782,-1,-6,-1,0,0,-1,-1,-3
4.082660,783,4,10,-2,-2,-1,-3,-2,-6
4.083192,784,-1,-12,-1,2,-1,-1,-1,0
4.083197,785,2,9,0,-1,-2,-2,0,0
4.097591,786,5,13,2,0,1,-1,-3,0
4.097607,787,-9,-15,-4,-1,-1,0,-1,1
4.098261,788,2,11,-1,-2,0,-1,1,-3
4.098274,789,-5,-41,-1,-1,-2,-1,0,-2
4.120458,790,-14,-4,0,-1,-1,-2,0,-1
4.120479,791,19,27,-3,-2,-1,-2,-3,3
4.122398,792,4,34,-2,0,-2,-2,-2,0
4.122415,793,-19,-17,0,-1,0,2,0,-1
4.142855,794,7,-7,-2,-1,-2,-1,0,-2
4.142865,795,-1,-20,-1,-1,1,-1,0,-1
4.143290,796,-5,-10,2,-3,-1,-1,-1,-1
4.143360,797,7,19,0,2,0,-1,-2,-1
4.158292,798,-2,20,-1,1,-1,0,-2,2
4.158305,799,-10,-29,-4,0,-2,0,2,0
4.158394,800,5,0,-2,-2,-2,1,1,2
4.158451,801,6,7,-1,1,-2,-1,-2,0
4.180074,802,-7,0,-2,-2,-1,-2,-1,-1
4.180089,803,-6,14,1,-1,-1,-1,-1,2
4.180782,804,-11,-21,-2,-2,-2,-1,-1,-1
4.180827,805,11,9,1,0,0,-1,-2,0
4.203763,806,-7,-8,-2,-1,0,-1,-1,1
4.203773,807,-1,6,-1,-1,-1,-2,-1,-1
4.203774,808,3,-18,-1,1,0,-2,-2,1
4.203776,809,-5,41,-3,-3,-2,1,0,2
4.218590,810,6,-54,-2,1,0,-1,0,0
4.218600,811,-1,1,1,0,-1,-1,0,1
4.218602,812,-12,-4,-1,1,-3,-1,-2,0
4.218604,813,17,15,-1,1,-1,-2,0,-3
4.240201,814,4,13,-3,-2,-2,-2,0,-4
4.240229,815,-3,-5,-1,0,0,0,-1,-3
4.241939,816,-4,-8,-2,-1,-2,-1,0,-2
4.241950,817,-3,-9,-1,-2,-1,-1,0,-1
4.262786,818,2,-5,1,-3,-1,-1,-1,1
4.262797,819,7,27,-1,0,0,0,-1,-3
4.263270,820,-4,-41,-3,-3,-1,-1,-1,-2
4.263275,821,-4,-6,-3,-1,-1,0,0,-1
4.278867,822,-1,12,0,-1,-2,-1,1,-4
4.278877,823,2,5,1,-2,-2,-1,0,-3
4.278879,824,7,15,-3,-2,-1,-1,1,1
4.278880,825,-15,-12,-1,-3,0,0,-2,-4
4.300251,826,-5,-12,-2,-1,0,0,-2,-1
4.300270,827,4,6,1,0,-1,0,0,-1
4.301866,828,4,15,-3,-2,-3,0,-1,-1
4.301876,829,0,-3,-1,-1,-3,1,1,0
4.324022,830,0,6,0,2,0,0,-2,1
4.324040,831,-1,-6,0,-1,0,0,-3,2
4.324042,832,5,20,2,-1,0,-2,-1,-2
4.324044,833,-11,-44,0,-2,-1,-2,-2,0
4.339606,834,1,4,0,1,-1,-2,-1,-4
4.339624,835,2,6,-5,-4,-2,-1,-3,2
4.339627,836,-1,-7,2,0,-3,-1,-1,-2
4.339628,837,-7,11,-1,1,0,-1,0,-1
4.360471,838,-3,0,0,-2,-2,0,0,1
4.362486,839,-3,-11,0,-1,1,-1,1,-1
4.362497,840,-2,6,-2,-2,-1,-3,-1,0
4.362500,841,0,3,0,0,1,-2,0,-1
4.383986,842,6,-11,1,-2,-1,-2,-1,0
4.383997,843,-5,39,-3,-2,-1,-1,0,0
4.383998,844,-13,-11,-1,0,-1,1,0,-1
4.384000,845,0,0,-1,-2,-1,-1,-1,-1
4.397944,846,7,-5,0,-1,-1,-1,-2,0
4.400064,847,2,1,-2,-1,-1,-2,-1,1
4.400074,848,-1,-16,-1,1,-1,-1,0,0
4.400076,849,1,17,-3,-1,-3,-1,-1,1
4.420777,850,-4,11,0,-1,-1,-3,-2,-1
4.420807,851,0,-9,3,0,-1,-3,0,-3
4.422609,852,6,2,-5,-2,0,0,-3,-2
4.422626,853,-23,-44,0,-3,-3,-3,-3,-3
4.442659,854,-4,7,4,-1,-1,0,-2,1
4.442681,855,2,-7,-10,-1,1,-1,-1,-1
4.444638,856,0,-1,-3,-1,0,1,-1,-1
4.444654,857,15,24,8,1,0,1,0,0
4.458082,858,0,-8,-5,-3,-1,-2,-1,0
4.459891,859,-25,-23,5,1,1,1,1,-1
4.459906,860,5,14,-2,0,-1,-1,0,0
4.459908,861,10,6,-8,-2,0,0,-2,-2
4.480122,862,-3,-1,12,1,-2,0,-2,-1
4.480144,863,13,5,8,0,-2,-1,-2,-3
4.481103,864,0,9,-20,-1,-2,-4,-1,-4
4.481108,865,0,11,-7,-10,-4,-1,0,0
4.503200,866,-2,-7,0,5,-1,0,2,2
4.503234,867,-1,-5,3,3,3,2,-1,2
4.504897,868,0,27,17,3,-1,-1,-3,-1
4.504909,869,0,-25,-17,1,-2,0,-2,0
4.517947,870,-3,5,-15,-13,-2,-2,-3,-1
4.520111,871,-4,-29,-4,3,-3,-2,-1,-1
4.520122,872,-8,-4,-1,-1,-1,2,1,1
4.520123,873,7,29,15,-9,-3,-3,-1,0
4.540213,874,1,-16,-9,8,-1,-1,-1,-1
4.540237,875,3,22,7,-1,-1,-2,0,-2
4.541022,876,-4,-12,-10,-3,0,-2,-3,-1
4.541038,877,1,-12,13,0,-1,-1,-1,-3
4.562572,878,-2,10,-11,-4,-1,2,1,-1
4.562593,879,-1,7,0,-1,-1,-3,0,0
4.563456,880,0,-9,4,0,-2,-1,0,-1
4.563461,881,0,-11,2,2,0,-1,-2,-2
4.577969,882,-3,-4,16,12,-4,-2,-3,-1
4.578083,883,1,-5,-26,-22,0,-2,-3,1
4.580160,884,-1,1,7,6,0,-1,0,0
4.580171,885,4,1,2,7,3,2,-1,1
4.600679,886,2,10,3,7,1,0,-1,-1
4.600703,887,9,-12,0,-12,-6,0,0,-2
4.601281,888,-18,0,6,6,2,0,-1,0
4.601298,889,28,8,-5,10,-3,-4,-3,-4
4.623248,890,6,-45,-22,-21,-5,-4,-2,-2
4.623293,891,-35,-20,1,3,0,0,-1,-4
4.624660,892,21,1,8,-6,-1,0,-2,0
4.624672,893,-6,10,0,8,-2,0,-2,0
4.637970,894,0,17,1,-5,0,1,-3,-1
4.638002,895,10,-1,-9,3,-2,-1,-1,1
4.640176,896,-14,-19,-8,-2,-1,0,0,-1
4.640188,897,-11,-3,-4,-7,0,-1,-1,1
4.660129,898,0,9,7,0,-2,-2,-2,-4
4.660147,899,-1,-10,-10,1,-1,0,0,-2
4.660866,900,-8,2,7,-6,1,-2,0,-2
4.660932,901,-2,16,0,-1,0,-2,1,-1
4.682908,902,-7,-6,-4,-15,-1,-2,0,1
4.683012,903,12,7,9,8,-4,-2,-1,-3
4.685180,904,-4,0,5,17,2,2,-2,-1
4.685185,905,6,-14,-1,-6,0,-2,-2,-1
4.697906,906,4,31,-6,5,4,2,1,3
4.697933,907,1,-4,6,-10,-3,-1,-1,-2
4.699846,908,0,14,-6,-4,-5,-2,1,1
4.699851,909,1,-51,-6,-3,-4,-3,-1,0
4.720232,910,8,23,1,6,0,-1,-1,-4
4.720250,911,-12,36,3,0,-2,0,-1,-1
4.720751,912,13,-48,-2,-11,-5,0,-3,-2
4.720763,913,-24,9,-7,-12,-1,-2,1,-2
4.742743,914,6,16,12,12,2,-1,3,1
4.742769,915,-30,-41,-9,20,3,0,-3,1
4.744101,916,9,23,-4,-12,2,-1,-2,-1
4.744114,917,-4,11,-5,-7,-5,-1,-1,0
4.757067,918,-1,-32,-25,-11,-6,-4,0,0
4.757086,919,13,39,7,-4,7,4,1,0
4.765212,920,-5,-13,11,13,-3,1,-1,0
4.765234,921,-14,-9,-8,-9,-1,1,0,0
4.780334,922,-2,17,-5,-2,-1,-4,-1,0
4.780344,923,9,7,-3,-5,-5,-4,-1,-3
4.780816,924,-4,-53,-12,-4,-1,-2,-4,-2
4.780828,925,13,21,2,3,1,0,0,-3
4.802814,926,-4,-13,-1,3,-2,0,-3,-1
4.802864,927,2,2,-5,-7,-2,-3,0,0
4.805195,928,9,27,11,-4,-2,-2,2,-1
4.805212,929,5,9,4,9,0,0,0,0
4.817103,930,17,4,10,-6,2,1,-1,-1
4.817123,931,-12,-44,20,16,-3,-1,-1,-1
4.825115,932,5,12,-44,-34,-3,-2,-1,1
4.825132,933,4,12,20,48,5,1,1,2
4.840665,934,-6,-12,-3,-4,4,1,0,-1
4.840680,935,-10,19,27,4,-1,1,0,-3
4.840899,936,-4,-22,-4,-3,-2,-2,-1,-2
4.840923,937,-24,-8,-19,-18,-6,-2,-1,-4
4.863234,938,1,36,4,-1,-2,-1,-1,-2
4.863263,939,-22,-40,-3,0,0,-1,-3,0
4.865442,940,0,4,-8,4,1,-1,1,-3
4.865448,941,-1,9,8,-16,-3,-1,-1,-2
4.877166,942,-5,0,4,10,0,-1,1,-3
4.877187,943,14,5,-17,-7,0,0,-1,-2
4.886441,944,-11,9,24,18,-3,-1,1,-3
4.886456,945,6,-5,-31,-23,-3,-2,-1,-1
4.901488,946,-13,-13,16,12,2,1,1,0
4.901499,947,8,-6,5,-4,1,0,-1,0
4.901501,948,-6,19,-1,-11,-2,-1,0,-2
4.901503,949,6,-35,-8,17,1,0,-1,1
4.923077,950,-29,-14,14,-4,0,31,-2,-4
4.923092,951,13,17,-22,-14,-2,-36,-2,-1
4.924653,952,-25,1,5,3,2,10,4,-2
4.924664,953,12,4,1,-8,-2,2,-1,0
4.937320,954,-1,-3,-15,-4,-3,-8,-1,0
4.937344,955,15,-10,7,5,-1,12,-1,0
4.945540,956,14,15,-1,-1,1,-6,-1,1
4.945647,957,-12,9,-6,-4,0,-8,-3,-1
4.960077,958,-1,-27,8,3,-3,5,1,-2
4.960094,959,10,16,3,2,2,4,-1,2
4.961480,960,-9,-12,-13,-2,0,-8,-1,0
4.961491,961,-12,-6,0,-3,-3,4,-1,0
4.982767,962,-4,24,14,10,-3,-12,1,0
4.982789,963,2,-17,-35,-21,-6,2,0,-1
4.983397,964,12,24,12,12,3,-1,-2,3
4.983408,965,-9,12,19,4,5,3,-3,4
5.006180,966,4,-35,-4,-3,-2,-7,0,-2
5.006204,967,-26,-4,-8,-2,0,-2,1,-3
5.008044,968,11,8,-11,3,-3,3,-1,0
5.008057,969,11,4,2,-1,-3,-2,1,-3
5.028785,970,-25,8,1,-2,-1,-7,0,0
5.028811,971,10,-11,-3,-4,0,5,-3,-2
5.030997,972,5,0,-5,2,0,-2,-1,1
5.031006,973,0,1,2,-10,-2,-3,-3,-3
5.042640,974,0,7,-8,5,1,-3,0,1
5.042657,975,-3,-34,-1,2,-2,1,0,2
5.043331,976,0,-1,-9,-16,-3,-5,-3,-4
5.043343,977,-3,0,7,11,1,0,-1,0
5.057202,978,10,24,-16,-7,-1,1,0,-1
5.057220,979,4,26,17,7,-4,1,1,-2
5.072833,980,-18,-13,-8,-12,-4,-4,0,1
5.072856,981,9,-11,-2,21,3,0,1,1
5.080500,982,-25,4,-4,-13,-1,-3,-3,-3
5.080825,983,-12,-42,4,9,1,0,-4,-1
5.083134,984,7,-7,-7,-6,-3,-2,-1,-1
5.083139,985,-1,27,-2,-9,-2,-1,-2,-2
5.102644,986,5,-13,6,2,-1,-1,-1,3
5.102661,987,23,18,-4,-8,-2,-1,1,0
5.103335,988,1,1,12,6,-3,0,0,-2
5.103348,989,-7,-10,6,3,2,0,-1,3
5.125966,990,3,5,-15,-12,-3,-1,-2,-3
5.127476,991,6,26,10,4,1,1,1,-2
5.127489,992,-17,-40,-11,12,0,-1,-1,-1
5.127491,993,3,10,-1,-10,-3,-2,0,-2
5.140193,994,15,4,9,-4,0,-2,-1,0
5.141634,995,-27,17,-5,1,-2,0,-1,1
5.141644,996,-15,7,0,-1,1,0,-1,0
5.141646,997,7,-23,-2,-7,-7,-3,0,-4
5.162653,998,6,-26,-11,6,1,-2,-2,1
5.162671,999,18,25,-6,-5,-3,-1,-3,-2
5.163366,1000,15,-6,12,7,-2,-2,-2,-1
5.163458,1001,-4,7,1,-8,-1,-2,-2,-2
5.186401,1002,-1,16,14,0,4,0,-2,-2
5.186438,1003,2,-26,1,5,0,1,-1,0
5.188381,1004,5,17,2,-6,-3,-2,0,-2
5.188392,1005,-10,20,0,6,-2,-2,2,-3
5.200307,1006,18,-25,-9,-1,0,0,-1,0
5.200336,1007,-58,-30,-2,7,5,0,-1,1
5.202314,1008,-2,-2,-9,-6,0,1,0,-1
5.202325,1009,9,-15,5,-4,0,-1,0,-3
5.222710,1010,-3,9,-7,-3,-5,-4,0,1
5.222725,1011,0,10,10,-4,-3,-1,0,-1
5.223398,1012,10,13,-6,-1,0,-1,-4,-2
5.223422,1013,10,-35,-5,-3,-4,-2,-1,-4
5.245969,1014,-1,11,11,3,4,1,-2,-1
5.245990,1015,13,9,-8,1,0,0,-2,-1
5.248021,1016,-7,-6,6,1,0,1,0,-2
5.248026,1017,-2,16,-6,-12,-5,-2,0,-4
5.260193,1018,13,-34,-4,12,4,0,-1,2
5.260218,1019,0,32,14,-4,-1,-2,1,3
5.261594,1020,34,10,5,6,5,0,0,2
5.261613,1021,-52,-15,-10,-8,-5,-1,-4,-3
5.282714,1022,8,0,-17,-23,-9,-4,2,-7
5.282800,1023,3,-29,-8,-1,4,0,-2,-1
5.283386,1024,3,2,15,5,-2,0,0,1
5.283466,1025,0,-19,-13,-1,-3,-2,-1,-1
5.305924,1026,-7,23,22,3,1,-1,-1,-3
5.305960,1027,-2,-8,-11,4,-2,0,-1,-2
5.307684,1028,0,-15,-10,-14,-2,-1,0,-3
5.307696,1029,7,10,2,7,0,2,-1,3
5.320213,1030,-7,-8,-5,-6,-4,-1,-2,0
5.320235,1031,-5,8,-8,0,-5,-3,-1,-3
5.322173,1032,-13,-7,5,3,2,0,0,-1
5.322188,1033,52,31,10,3,3,-2,-2,1
5.342969,1034,-45,-33,-8,-5,-3,-1,0,-3
5.342984,1035,-20,-9,-9,-12,-3,1,1,-3
5.343264,1036,5,3,6,2,-3,-2,-1,0
5.343306,1037,-29,-18,0,8,5,3,0,-1
5.365999,1038,22,14,2,0,-3,-1,-2,1
5.366017,1039,9,13,-1,-2,-5,-2,-1,1
5.367678,1040,-27,33,-8,-3,-2,-2,-1,-1
5.367683,1041,1,-31,-5,1,2,-2,0,2
5.380175,1042,0,3,13,4,0,-1,-1,1
5.380197,1043,7,0,-4,-2,-2,0,0,-2
5.380988,1044,-1,8,-5,-3,-2,-2,-1,-1
5.380993,1045,-4,8,-2,-6,-3,0,-2,-1
5.404666,1046,-1,0,-11,1,-3,-2,1,-3
5.404677,1047,24,9,15,-2,1,-1,1,-1
5.404679,1048,-1,-2,-11,-1,-1,-2,-2,-1
5.404680,1049,-1,-12,-5,-2,1,-3,-3,1
5.425945,1050,-6,-9,15,2,1,1,-1,2
5.425964,1051,0,7,2,4,-1,0,1,0
5.426819,1052,37,-12,-6,-9,-2,-2,-2,-3
5.426829,1053,-12,0,-12,0,-3,-2,1,-3
5.440421,1054,5,16,-3,-8,-4,-1,-1,1
5.440441,1055,-2,-14,-4,2,2,-1,-4,1
5.440938,1056,-6,1,7,4,1,0,2,-2
5.440957,1057,17,16,1,-1,-1,1,0,-1
5.463249,1058,6,0,-19,-9,-4,-3,-1,-5
5.463287,1059,8,13,32,5,5,0,-2,2
5.465377,1060,-5,-16,-5,3,-1,2,0,0
5.465389,1061,-4,-15,0,-4,-6,-4,-3,-3
5.486207,1062,-10,10,-15,-12,-3,-4,0,-3
5.486235,1063,1,5,11,10,-2,-1,-1,0
5.488592,1064,11,3,1,-3,1,-2,-2,0
5.488606,1065,-11,-1,10,7,3,1,0,1
5.500370,1066,31,7,3,-5,-3,1,-2,0
5.500397,1067,-12,1,-27,-11,-6,-3,-1,-1
5.501162,1068,-13,-44,1,4,-2,1,1,-2
5.501168,1069,-9,27,-4,-6,0,-1,-1,0
5.523161,1070,1,-6,-4,0,-1,-1,-2,-1
5.523196,1071,11,-10,-4,-4,0,0,-2,-1
5.525560,1072,-20,-4,4,5,-1,-1,-2,-1
5.525574,1073,15,8,4,2,2,0,2,0
5.546419,1074,-19,-7,-5,-9,-3,-3,-4,0
5.546443,1075,-3,-4,-3,10,0,0,-1,-1
5.546860,1076,-15,12,-1,-6,-1,-3,-2,-1
5.546877,1077,8,-13,6,0,-3,-2,-1,-2
5.560361,1078,5,-6,-8,3,2,-1,0,-2
5.560412,1079,9,11,9,-8,-4,-2,0,0
5.561188,1080,-11,-9,4,-4,-1,13,1,0
5.561203,1081,11,19,-7,4,3,-17,-2,4
5.583081,1082,-6,-3,2,4,-3,4,4,-1
5.583110,1083,-24,-11,-11,-9,-3,1,-2,-5
5.584890,1084,-31,38,6,2,2,-4,-2,-4
5.584900,1085,-10,-47,1,4,1,14,0,-2
5.606104,1086,-3,6,6,-1,3,-1,0,-4
5.606129,1087,28,1,-11,-10,-3,-9,0,0
5.606598,1088,-11,3,14,17,-1,6,-1,-2
5.606613,1089,-25,-1,-17,-9,-4,-1,-3,-3
5.620240,1090,15,-12,5,7,1,-3,0,0
5.620257,1091,10,16,-12,-9,-2,0,0,-2
5.620914,1092,4,1,4,-6,0,-7,-1,-1
5.620999,1093,3,15,11,0,-4,-2,-1,-3
5.642719,1094,-14,-7,-2,2,0,-3,0,0
5.644059,1095,-18,-22,-8,0,1,4,-1,-1
5.644069,1096,26,4,5,-1,-2,-4,-2,1
5.644071,1097,-25,-15,-8,-4,-2,-6,0,0
5.665847,1098,-3,33,6,-1,-1,5,-1,0
5.665870,1099,0,-4,3,4,2,0,-1,1
5.666704,1100,3,-14,-16,-7,-3,-5,-1,1
5.666809,1101,-2,9,4,-7,1,1,0,0
5.680151,1102,-18,0,6,9,0,-2,-4,2
5.680169,1103,0,3,-1,-1,-1,-1,-1,-3
5.680903,1104,-4,-35,-1,7,3,-4,-1,0
5.680915,1105,12,8,-3,-4,-4,0,-1,-5
5.703272,1106,1,-7,-10,-4,-2,-3,0,1
5.703300,1107,4,7,-1,0,-1,-4,-3,-2
5.705693,1108,-16,10,7,-4,-3,1,1,2
5.705712,1109,2,-12,-9,-2,-1,-2,-1,-1
5.725790,1110,-1,-6,10,-1,-1,-1,-2,-2
5.725804,1111,5,-4,2,1,-2,0,1,-3
5.726596,1112,7,-9,-12,-6,-2,-2,-1,-2
5.726608,1113,-1,23,9,2,-1,1,0,0
5.740088,1114,-6,-12,9,0,0,-1,-1,-2
5.740104,1115,-30,-11,-4,-2,-2,-1,-1,1
5.748477,1116,19,22,5,-10,-1,-3,0,1
5.750291,1117,7,-8,7,15,3,-1,-2,2
5.763186,1118,0,-5,-7,-2,-1,3,-1,-4
5.763214,1119,-1,4,5,-4,-3,-1,1,-1
5.765408,1120,3,-6,-13,-5,-4,-4,-4,-1
5.765414,1121,-10,-4,9,3,1,0,0,0
5.785782,1122,-18,0,-1,-4,-2,-1,-2,0
5.785806,1123,-1,7,-2,-2,-1,-1,0,0
5.786615,1124,8,-16,-7,-1,-2,1,-2,-1
5.786710,1125,6,1,-3,-5,-1,0,-2,-1
5.800855,1126,10,-7,-6,0,-3,0,-2,1
5.800866,1127,-6,18,5,-4,0,-2,-1,-2
5.807685,1128,-7,8,-5,2,3,0,1,-1
5.807703,1129,5,0,4,0,-1,-1,0,1
5.822782,1130,0,4,-6,-2,-1,-2,-1,-3
5.822808,1131,6,-7,7,-9,-4,0,-1,1
5.824663,1132,25,17,-3,12,1,-2,-2,0
5.824675,1133,-9,-11,-6,-4,-1,0,1,-5
5.845979,1134,-3,-11,-5,0,0,-1,1,3
5.845990,1135,31,-4,-4,0,-1,0,-1,-2
5.846370,1136,-26,5,0,-5,-3,-1,-1,1
5.846410,1137,11,0,-7,-1,-3,-2,-1,0
5.859460,1138,5,3,-2,-4,-2,-1,-2,0
5.859481,1139,-18,3,5,4,2,0,0,-2
5.867875,1140,4,-4,2,-2,0,-3,-1,-2
5.867894,1141,1,-1,-6,-5,-1,1,0,-1
5.882775,1142,1,6,-5,-4,0,-3,0,-2
5.882796,1143,-11,-26,3,2,-1,0,-2,0
5.884673,1144,3,24,-3,-6,0,1,1,-1
5.884678,1145,5,-25,9,6,-1,-2,-3,1
5.908009,1146,-10,-7,-8,-4,-2,0,0,2
5.908024,1147,0,5,1,4,1,-1,1,1
5.908026,1148,1,1,-10,-2,-2,0,-1,-1
5.908028,1149,-7,7,-5,-5,0,-1,-3,-2
5.920118,1150,1,0,3,0,-1,-1,-1,-1
5.920155,1151,0,-1,-4,-1,-4,-3,-3,-2
5.927871,1152,1,-13,3,-3,0,0,-1,-2
5.927899,1153,-20,21,-3,3,0,-1,0,1
5.942882,1154,10,-14,3,1,0,0,-1,-3
5.942902,1155,-25,-13,-3,2,0,0,-1,-1
5.943500,1156,7,-5,3,0,-2,-3,0,-3
5.943555,1157,-2,21,-7,-7,-3,-1,0,-1
5.966049,1158,1,2,-5,-4,-2,-1,0,-3
5.967935,1159,0,7,3,0,0,-1,-3,-2
5.967945,1160,-8,-15,2,2,0,0,-1,1
5.967946,1161,4,-4,5,-4,0,0,-2,-1
5.980027,1162,1,9,8,3,1,0,-1,-1
5.980055,1163,-5,12,-3,0,-2,0,2,0
5.988287,1164,10,-36,-8,-5,-4,-2,0,-1
5.988311,1165,-9,-8,-10,-3,-1,-3,-2,-2
6.002805,1166,-4,1,1,1,-1,-2,0,-3
6.002821,1167,-20,-33,-5,-2,-2,0,-1,2
6.003272,1168,-15,31,0,5,2,0,-1,-1
6.003284,1169,4,-15,-3,-6,-2,-2,-1,-1
6.025847,1170,-5,-16,-1,-1,0,-2,-3,1
6.025882,1171,13,12,-5,-2,0,-2,2,0
6.027941,1172,-11,-5,0,-1,-3,-1,0,-1
6.027946,1173,12,7,0,-6,-4,-2,-1,-2
6.039713,1174,0,3,1,7,0,-1,-2,-2
6.039739,1175,-1,3,6,2,2,0,-2,-3
6.048452,1176,-1,-25,-4,-4,-1,-1,-3,-1
6.048479,1177,3,18,0,1,0,-1,1,-1
6.062751,1178,17,9,-4,-2,-2,1,-1,-3
6.062768,1179,-32,-10,-13,-3,-3,-2,-2,-4
6.063490,1180,17,-2,4,2,0,-1,2,1
6.063507,1181,7,5,-1,-8,-1,0,-1,1
6.086515,1182,-21,-10,-2,6,-1,-1,0,2
6.086543,1183,17,6,1,-1,2,0,-1,-1
6.088263,1184,-5,18,5,-1,-2,0,1,-2
6.088274,1185,-11,-12,0,2,-2,-1,0,-1
6.108378,1186,19,5,-6,-3,-2,-2,0,-2
6.108401,1187,7,11,-7,-2,-1,0,-1,-1
6.109057,1188,-12,-9,5,-2,-3,-2,0,-1
6.109071,1189,13,0,1,5,3,0,-1,1
6.122687,1190,-40,-7,2,-2,2,-1,-4,0
6.122739,1191,45,17,3,2,-1,0,-1,-1
6.123381,1192,-37,-28,-7,-5,-2,-1,-4,-4
6.123395,1193,12,-14,-1,0,-2,1,0,-3
6.145836,1194,2,8,9,-1,-1,-1,0,-2
6.145857,1195,-3,7,-5,-1,-2,-2,-2,-1
6.146913,1196,14,31,3,-1,-1,0,-1,1
6.146918,1197,-4,-16,3,1,1,-1,-2,-4
6.168382,1198,-3,-8,-10,-4,0,-2,-2,1
6.168400,1199,5,4,-3,-4,2,0,2,0
6.169056,1200,4,9,1,2,-1,0,-2,-1
6.169129,1201,-11,1,-2,-1,0,3,-1,3
6.182838,1202,3,-6,-3,-2,-3,-2,-1,0
6.182848,1203,3,0,3,2,0,-1,-1,0
6.183326,1204,-23,-5,-9,-2,1,-1,-2,-2
6.183340,1205,-5,1,7,1,0,-1,0,-2
6.206277,1206,36,7,6,-1,0,0,1,-3
6.206307,1207,-14,-12,-4,-3,-2,-2,-2,-1
6.208211,1208,8,-23,-6,2,0,0,-1,2
6.208224,1209,4,9,-4,-4,-2,-1,-1,1
6.228443,1210,7,8,-6,-3,1,1,0,-2
6.228453,1211,-4,8,7,2,1,2,-1,0
6.229063,1212,2,4,5,-2,0,0,-1,-2
6.229144,1213,-13,-10,-5,2,-1,-3,-1,-1
6.243406,1214,-5,-8,-6,-5,-2,0,-1,0
6.243418,1215,-6,-12,-7,-5,-1,0,-1,-1
6.243419,1216,1,-2,6,4,2,-2,-1,-1
6.243421,1217,-4,19,2,1,-1,-1,-3,0
6.266383,1218,-51,-39,-2,-1,-1,-1,-2,0
6.266410,1219,20,-16,-5,-3,-3,0,1,-1
6.267893,1220,-35,13,1,0,-4,0,-2,-1
6.267899,1221,-4,10,-5,-2,0,-3,-2,-4
6.290513,1222,4,15,11,1,-1,-2,0,0
6.290531,1223,-7,-9,-4,-1,0,-2,-1,0
6.290534,1224,9,-1,-1,-2,-1,1,-2,-3
6.290535,1225,6,14,2,-2,-3,0,-1,0
6.305482,1226,-8,-27,-22,-5,0,0,-2,-1
6.305495,1227,0,4,3,-1,-4,-2,0,-2
6.305497,1228,18,-14,-3,-1,0,-2,0,-1
6.305498,1229,-1,-16,-2,0,-3,0,0,0
6.325935,1230,-7,19,2,-2,-1,-1,-1,-1
6.327711,1231,-13,10,8,-1,-2,-2,-1,-1
6.327718,1232,5,-28,-3,-1,-1,0,-3,2
6.327720,1233,1,-1,-5,-1,2,-1,-1,0
6.350110,1234,28,17,2,0,-2,0,0,-3
6.350124,1235,-14,-11,-11,0,-2,-1,-2,-2
6.350128,1236,-21,32,13,-1,-1,-1,2,-1
6.350131,1237,9,-25,12,2,-1,-1,-1,-1
6.362590,1238,4,9,-5,-1,-1,-2,-2,-2
6.362611,1239,-5,8,-3,0,-1,-1,0,0
6.363461,1240,22,9,-2,-2,-2,-1,1,-3
6.363528,1241,-12,-10,-11,-3,-4,-2,-2,2
6.385697,1242,11,29,11,3,0,-2,0,-2
6.385715,1243,-11,-58,-1,-1,0,-1,-3,-1
6.387893,1244,3,0,-7,-1,1,-3,-2,-2
6.387904,1245,4,2,-3,0,-2,-1,-1,-1
6.408431,1246,-1,0,-2,-2,0,0,-2,0
6.408453,1247,3,16,6,0,-1,-2,0,1
6.410185,1248,24,-8,-5,0,2,-1,-1,0
6.410204,1249,-39,2,2,-1,1,1,-1,-4
6.422673,1250,-26,-45,-8,-4,-2,-3,-3,-2
6.422696,1251,-2,12,-1,-2,0,-2,1,-1
6.424980,1252,3,4,-8,-1,-3,-1,-1,-2
6.424995,1253,8,14,3,0,0,-1,-1,1
6.445742,1254,7,3,13,4,0,0,-1,-2
6.445763,1255,2,-9,-3,-2,-1,-1,-3,0
6.446487,1256,-30,-2,-2,-6,-3,0,0,0
6.447189,1257,10,6,-5,-2,-2,-2,-1,-2
6.468393,1258,2,-12,1,-1,-1,0,0,0
6.468415,1259,7,-2,-3,-1,-1,-1,-2,-1
6.471144,1260,11,17,1,-1,-3,-2,0,-1
6.471155,1261,-1,-25,-1,-2,-1,0,-1,-2
6.482719,1262,-1,4,-4,-1,-1,-1,0,0
6.482741,1263,4,15,6,2,0,2,-1,0
6.484230,1264,-13,2,-3,-1,2,0,-2,-1
6.484236,1265,4,-10,-4,-1,0,-1,-1,-2
6.506081,1266,-3,30,-7,-3,-4,-1,-3,0
6.506112,1267,-12,-54,3,-2,-4,-3,-1,-3
6.506829,1268,18,-4,-9,0,0,-1,1,0
6.506915,1269,-26,12,13,-1,-1,-1,-1,-2
6.528464,1270,15,10,-1,-1,0,-2,-1,1
6.528493,1271,4,14,-2,-1,-2,1,-1,1
6.530465,1272,-1,-3,-5,-3,-2,-2,-1,1
6.530470,1273,9,-3,4,2,0,-2,-2,2
6.542693,1274,-10,-29,5,1,-2,-1,-1,-1
6.544275,1275,11,36,-7,-3,-1,-1,-2,-3
6.544288,1276,-6,-15,4,-1,-3,0,0,0
6.544290,1277,7,-16,-4,-2,-2,0,0,-2
6.566478,1278,10,7,-15,-4,-1,0,1,-5
6.566556,1279,-27,28,3,1,2,1,0,-2
6.566965,1280,17,11,7,-1,0,-1,0,0
6.566982,1281,-15,0,-3,-3,-1,0,-3,-1
6.588547,1282,13,-6,-2,-1,-2,-2,0,4
6.588568,1283,7,20,-1,-3,-1,1,0,-2
6.590260,1284,-15,-40,-3,-1,0,-2,-2,0
6.590273,1285,9,11,6,2,2,-1,0,-2
6.602876,1286,-17,2,0,-1,-1,-1,0,-2
6.604668,1287,-3,-10,-6,-3,-1,-2,0,-2
6.604676,1288,-5,12,-1,0,-1,0,-1,0
6.604678,1289,9,4,-5,-1,-2,-1,0,-1
6.625816,1290,-3,-7,5,0,2,0,-1,1
6.625836,1291,3,9,3,2,0,-1,-1,0
6.626482,1292,5,-24,-10,-2,1,0,-2,-3
6.626494,1293,-9,-1,-6,-3,0,-3,0,-1
6.648362,1294,1,21,-4,-2,-3,0,-1,-1
6.648383,1295,6,-24,0,-1,0,-3,0,1
6.649288,1296,11,5,2,0,2,-2,0,1
6.649302,1297,-38,-3,-6,0,0,0,-2,-2
6.661844,1298,3,-17,0,-1,1,0,-1,-1
6.661865,1299,4,0,1,-2,-1,-1,-2,-1
6.670222,1300,6,17,-3,-3,-1,2,-1,-1
6.670280,1301,21,0,11,0,-2,0,-1,0
6.693326,1302,-2,22,-3,-3,0,-1,-3,-5
6.693347,1303,-18,-41,-1,1,-2,-1,0,-4
6.694113,1304,-12,30,3,1,-2,-1,0,-3
6.694334,1305,6,-42,-5,-3,-3,-3,-2,0
6.708718,1306,0,16,-4,-2,0,-1,0,-3
6.709815,1307,5,1,-15,-1,0,1,1,1
6.709820,1308,-10,-29,6,1,-1,-2,-1,-1
6.709822,1309,11,13,-6,-2,-1,0,0,0
6.722307,1310,0,-7,3,-1,-4,-2,-3,0
6.722323,1311,2,17,-10,-7,-2,-2,-3,-3
6.731316,1312,-6,-26,7,2,0,-1,0,1
6.731331,1313,1,9,-5,-2,0,0,-1,-3
6.745669,1314,-3,-13,-8,-3,-1,0,1,-1
6.745708,1315,-6,10,7,1,-2,-1,0,-2
6.752669,1316,9,16,-4,-2,-3,1,-2,-2
6.752693,1317,-12,3,5,2,2,0,0,1
6.768423,1318,-21,-34,-5,-3,0,-3,-2,-4
6.768442,1319,-2,5,0,-1,-2,0,-1,0
6.769852,1320,4,2,-2,-1,-1,-1,0,-1
6.769857,1321,4,5,-5,-2,-3,-2,-2,-2
6.782446,1322,7,11,7,1,0,0,0,1
6.782467,1323,-3,7,2,4,0,-1,1,-1
6.791874,1324,-11,-48,-5,-6,-3,-1,-2,-1
6.791886,1325,6,45,-16,-3,-2,0,0,-1
6.806888,1326,-1,-41,35,5,0,0,-1,2
6.806905,1327,0,13,-2,-2,1,-3,-1,-4
6.812324,1328,3,28,4,0,0,-1,-2,1
6.812352,1329,2,-16,-4,-1,-1,-1,-1,-3
6.828442,1330,-4,5,-8,-1,-1,-1,-1,-2
6.828465,1331,-3,-12,-4,0,-1,-1,0,1
6.829736,1332,5,2,0,1,0,0,-2,-1
6.829768,1333,1,-1,0,-3,-1,-3,-1,-1
6.842105,1334,10,17,-6,0,-1,-1,0,-2
6.842185,1335,6,-31,5,-2,0,0,-3,-4
6.852602,1336,-29,-13,-9,1,1,-1,-1,0
6.852610,1337,11,3,4,-2,-5,-1,-1,0
6.865776,1338,-1,20,0,0,-1,0,1,0
6.865817,1339,-7,-6,-5,-1,1,-1,-2,-1
6.872375,1340,9,6,5,-1,-2,-1,-1,-2
6.872402,1341,-6,33,-7,-2,1,0,0,0
6.888640,1342,-5,-71,-5,0,1,0,-1,0
6.888657,1343,-4,-1,-2,0,-1,-1,0,2
6.890537,1344,12,24,9,-2,-3,-2,-2,-4
6.890548,1345,-18,-5,-6,-1,1,-2,-1,-2
6.902489,1346,11,21,-5,-3,-2,-2,-3,-3
6.902513,1347,-14,-8,0,-1,1,-1,0,1
6.912499,1348,-9,7,-2,0,-1,-2,-1,-2
6.912515,1349,10,-34,-7,-2,-2,0,0,2
6.925227,1350,-7,7,3,3,-3,-2,-3,-4
6.925248,1351,0,16,6,-1,-1,0,-1,0
6.932598,1352,-6,-47,-6,-3,0,0,0,-1
6.932627,1353,1,-6,6,-1,-2,0,0,0
6.948371,1354,-7,2,-12,1,0,0,-1,-2
6.948393,1355,10,19,11,-1,-3,-2,-1,0
6.949775,1356,-10,-8,-8,-2,0,-1,0,1
6.949781,1357,5,4,9,0,-1,-2,0,-1
6.962174,1358,9,-4,1,-2,1,-1,-1,1
6.962223,1359,-9,-4,-10,-1,-2,-1,-3,-1
6.972708,1360,0,13,0,1,2,3,1,1
6.972724,1361,2,-21,-4,2,0,0,0,0
6.985755,1362,-2,24,-1,-4,-2,-2,-1,-1
6.985785,1363,8,-6,-8,0,1,-2,1,-1
6.992110,1364,9,27,14,0,-2,-2,-1,2
6.992132,1365,10,-2,1,1,0,1,-2,0
7.016469,1366,3,8,1,-3,-1,-2,-1,-1
7.016496,1367,-15,-16,-4,1,1,-1,-2,0
7.018454,1368,11,-1,-10,-1,-1,-1,-1,2
7.018472,1369,-2,-17,-1,0,-4,-3,-1,-1
7.030837,1370,-4,2,-2,-1,-3,-2,-1,2
7.030858,1371,-8,3,6,-2,0,0,-2,0
7.032337,1372,6,23,1,0,2,1,-1,2
7.032354,1373,-25,-22,2,-3,-1,-3,-2,-4
7.045201,1374,8,13,-3,1,-1,1,3,3
7.045223,1375,8,-10,-2,1,-2,-2,-3,-2
7.052235,1376,-1,-7,-4,0,-2,-1,-1,-2
7.052256,1377,1,36,0,0,-1,-1,-1,-4
7.068585,1378,2,-49,-3,-3,-2,-2,-2,-1
7.068670,1379,-12,0,2,-3,-1,0,1,-2
7.069830,1380,3,-5,-8,-4,-4,-2,-2,-5
7.069909,1381,7,7,-2,-1,-1,0,2,-1
7.090874,1382,0,23,5,0,-2,-1,0,-3
7.090896,1383,9,-2,0,0,0,0,0,1
7.092714,1384,-1,-1,-1,-2,-2,-2,-2,-5
7.092726,1385,-12,-6,-1,2,2,-1,-1,-2
7.105410,1386,-6,-7,-2,0,1,-3,-2,-4
7.105438,1387,1,13,0,-1,-2,1,-1,-2
7.119720,1388,-3,-13,0,-3,-2,-3,-2,-5
7.119743,1389,5,4,1,2,1,0,0,0
7.128622,1390,0,2,-4,1,0,1,-1,-1
7.128654,1391,1,17,12,0,1,-2,0,0
7.130268,1392,2,2,-3,-2,0,-1,-1,-1
7.130273,1393,-1,-7,1,-1,-1,0,-1,-2
7.151531,1394,-2,1,-4,-1,0,-3,-1,-4
7.151562,1395,5,17,-3,-2,0,-2,0,-3
7.153276,1396,-3,-8,-1,-1,-2,-1,-1,-3
7.153281,1397,3,-3,1,0,-1,-1,-2,-1
7.165282,1398,-6,3,0,-1,0,-1,-2,4
7.165304,1399,-3,-6,-7,-4,-2,-2,-2,-2
7.172307,1400,5,-6,-3,-3,-1,-1,-1,-1
7.172381,1401,-1,5,12,1,0,-1,-3,0
7.188287,1402,0,24,-3,-1,-2,-1,-2,0
7.188308,1403,2,-51,0,-3,-1,0,2,2
7.190328,1404,-3,10,-2,4,0,-2,0,-3
7.190343,1405,-3,-4,-8,-4,-3,0,-1,-1
7.211090,1406,0,-1,0,1,2,0,-1,1
7.211118,1407,5,7,-3,1,1,0,-3,-1
7.212735,1408,-10,-1,2,-1,0,0,1,4
7.212745,1409,3,-3,-2,-1,-2,-1,1,-2
7.225179,1410,-5,-4,0,-1,-1,-1,-2,-5
7.225202,1411,3,37,-3,-1,0,-1,0,0
7.232112,1412,0,-62,-2,-1,-1,-2,-3,0
7.233860,1413,4,14,0,-1,-2,-1,-4,-1
7.248463,1414,-4,-1,0,-2,-3,-1,-2,-1
7.248482,1415,6,6,-1,0,-1,0,2,0
7.249899,1416,-6,18,-2,-1,-1,-3,-1,-2
7.249916,1417,-4,-6,-2,-2,1,-1,-1,0
7.271334,1418,1,-13,-2,-1,-1,-1,0,-2
7.271369,1419,0,-8,0,-2,-2,0,-3,-1
7.273275,1420,-12,6,0,1,-1,-3,-1,-2
7.273289,1421,0,-7,-2,-1,-3,-1,0,1
7.284590,1422,1,4,1,0,-3,-1,0,-1
7.284613,1423,5,-2,0,-1,-3,-3,-1,-2
7.293535,1424,-7,6,-2,-1,-3,-1,-1,-5
7.293552,1425,3,-3,0,-1,0,-1,-2,1
7.308382,1426,-3,18,-1,0,-1,0,0,1
7.308395,1427,-7,-23,-3,-3,-3,-1,-4,0
7.310098,1428,3,13,2,1,-2,0,0,3
7.310120,1429,-2,-11,-2,-2,-1,1,-1,0
7.330883,1430,-1,8,-1,-4,0,-1,-1,-1
7.330903,1431,-6,-9,-3,0,0,-1,-2,-1
7.332862,1432,0,1,0,-2,0,-2,0,-1
7.332873,1433,-8,5,-1,1,-2,-3,1,-2
7.344906,1434,-4,-14,-3,-2,-3,-1,-2,0
7.344934,1435,4,-3,1,1,2,1,0,0
7.354138,1436,0,0,-1,-2,1,1,-2,1
7.354150,1437,2,-5,1,0,-2,-4,-1,-1
7.368424,1438,-8,12,-2,-1,-2,-2,-1,-1
7.368434,1439,5,-7,-3,-1,-2,-2,-2,-1
7.369673,1440,-1,10,0,-1,-1,-1,-1,1
7.369679,1441,-2,-6,-6,-2,0,0,-2,-2
7.391105,1442,1,5,0,0,-2,-1,2,0
7.391126,1443,-1,5,-1,0,-1,0,-2,1
7.392657,1444,-2,-1,2,1,-1,0,0,2
7.392667,1445,4,10,0,-3,-1,-2,-2,-2
7.405152,1446,0,-15,1,0,-2,-1,-1,-2
7.405181,1447,-4,-2,-6,-3,-1,-2,-1,-4
7.413359,1448,3,-4,-1,-4,-2,-2,-1,-3
7.413403,1449,-4,5,-1,-2,-2,1,1,1
7.428327,1450,-4,-25,-5,-1,0,1,-3,-1
7.428338,1451,1,-1,8,-1,0,-3,1,-1
7.429799,1452,-2,14,-5,-1,-2,-1,-2,-1
7.429814,1453,4,-5,-3,-2,-2,-3,0,-2
7.450919,1454,-1,7,0,0,1,-1,0,1
7.450941,1455,0,5,1,0,-1,-1,1,1
7.452357,1456,-3,-16,-3,-2,-2,0,-3,-1
7.452374,1457,-4,8,-1,-1,0,-1,1,-2
7.464531,1458,6,-5,-2,-1,-2,-2,1,-3
7.466168,1459,-4,2,-2,1,0,-1,0,-2
7.474956,1460,3,6,1,0,0,0,1,0
7.474969,1461,5,-13,1,1,2,-2,0,-1
7.489936,1462,-4,-1,-2,0,0,0,-1,-2
7.489952,1463,1,-7,-1,-3,-2,0,-1,-1
7.489955,1464,6,31,2,-2,-2,-2,1,-1
7.490004,1465,-15,-43,-5,-3,-2,-1,-1,0
7.511345,1466,-1,1,11,0,-1,-1,-1,-3
7.511373,1467,-3,2,-6,0,-1,-1,-2,-1
7.513413,1468,3,3,-1,-2,-2,0,-1,-1
7.513420,1469,0,10,0,1,-1,-1,1,-1
7.524587,1470,-2,-3,-3,-1,-2,-2,-2,-1
7.524610,1471,-7,-8,-3,-2,-2,-1,-2,-6
7.535307,1472,-3,-13,-4,-1,0,0,0,-1
7.535319,1473,3,18,-7,-3,-3,-1,-2,3
7.550183,1474,8,-34,8,0,-2,-1,-2,-1
7.550193,1475,-23,-2,5,1,-1,-1,-2,-2
7.550195,1476,-4,-6,-7,-2,-2,-1,0,4
7.550197,1477,4,2,-1,-1,-2,0,-1,-2
7.570976,1478,1,18,-5,-3,-1,-1,0,1
7.571001,1479,6,2,-1,-1,-2,-1,-1,-1
7.572663,1480,0,-8,3,-1,0,-1,-2,-3
7.572677,1481,-4,5,-2,-1,-2,0,-1,-2
7.584810,1482,-7,3,6,0,-1,-1,-1,1
7.584833,1483,5,-1,1,1,-2,-2,-1,1
7.595222,1484,-2,-4,-1,0,-3,-1,-1,0
7.595234,1485,6,7,4,-1,0,2,-1,1
7.608481,1486,-5,-1,-1,0,-1,1,-2,-1
7.610073,1487,9,19,-6,-3,-1,-1,0,2
7.610084,1488,-20,-21,2,3,0,0,-3,-1
7.610086,1489,0,5,0,0,-1,-1,0,-2
7.630935,1490,1,-3,-6,-1,-2,-1,-1,0
7.630957,1491,3,14,5,0,-1,0,-1,0
7.632330,1492,4,2,-1,0,-2,0,-1,0
7.632361,1493,-3,-9,1,1,1,-1,-1,-1
7.644445,1494,1,20,-7,-4,-2,-2,-3,-2
7.644576,1495,-11,-53,-7,-1,0,-2,-2,-2
7.655276,1496,5,10,21,1,-1,-2,-1,-6
7.655290,1497,0,4,6,5,2,0,0,0
7.668965,1498,-12,-7,-10,-1,-1,0,1,-1
7.669003,1499,1,14,4,-2,0,0,0,-1
7.671108,1500,-2,-18,2,-2,0,-1,0,1
7.671166,1501,0,13,-2,-4,-1,-3,-1,-1
7.691104,1502,5,-16,-5,-1,-1,-3,0,-3
7.691126,1503,0,5,-5,-3,0,-1,-1,-3
7.693032,1504,0,-2,-4,-1,-2,-1,-1,1
7.693045,1505,-1,33,0,-2,0,-3,0,-1
7.705358,1506,-3,-16,0,0,-1,-1,0,0
7.705387,1507,8,0,-5,1,-2,1,0,-3
7.713486,1508,3,5,-4,-1,-1,0,1,-1
7.713501,1509,-2,-18,-8,-4,-3,0,-2,0
7.728503,1510,-2,8,5,0,0,-1,1,-3
7.728523,1511,-2,-6,-1,-2,-3,-2,-1,0
7.729861,1512,-1,6,-8,0,1,0,-3,-3
7.729877,1513,-1,-11,-5,-2,-2,0,-2,0
7.751698,1514,-14,10,-3,-3,-5,-2,-3,0
7.751721,1515,6,-27,1,-1,-3,1,-1,1
7.753907,1516,7,9,-7,1,5,0,-1,2
7.753916,1517,-15,-5,9,5,1,-1,-2,-2
7.764542,1518,-1,-23,27,3,0,0,-2,-1
7.764559,1519,-5,17,1,-8,-3,-1,-1,-3
7.774515,1520,4,-2,-15,0,-6,-3,-2,-1
7.774527,1521,-6,-8,8,-3,-1,0,-2,4
7.788700,1522,0,14,-11,4,0,-1,-2,-1
7.788738,1523,-1,-26,-2,0,-1,-3,-3,-1
7.790738,1524,1,-6,-4,-5,-3,-2,-2,-2
7.790755,1525,4,13,1,-1,-2,-2,0,-1
7.810981,1526,2,23,10,1,0,1,0,0
7.811000,1527,-10,-5,-1,4,1,1,-2,4
7.812221,1528,-1,7,2,1,0,0,-1,-2
7.812233,1529,4,-15,-7,-9,-6,-3,-1,-3
7.824406,1530,-4,3,-5,-3,-1,-2,-3,-3
7.824423,1531,3,42,4,8,0,-1,-1,0
7.833567,1532,-2,-33,-4,-1,-3,-1,-1,-1
7.833581,1533,0,-12,-9,-4,-2,-2,-1,-2
7.848362,1534,3,-7,-11,-6,0,0,1,-2
7.848384,1535,0,18,2,-2,-3,-3,1,-2
7.849916,1536,-10,3,11,0,-1,-2,-3,-1
7.849934,1537,-12,-9,16,9,1,0,-2,-3
7.870842,1538,16,-3,-33,-28,-6,-3,-2,-3
7.870865,1539,-10,-23,-6,14,1,-1,1,0
7.872395,1540,9,52,24,14,5,1,3,0
7.872423,1541,-11,-26,-12,1,0,-1,-3,0
7.884646,1542,1,-3,0,-5,-2,-1,-3,-1
7.884671,1543,8,1,5,-20,-4,-3,-2,-4
7.893505,1544,-5,-7,-9,1,-2,-1,1,-2
7.893517,1545,7,19,-4,0,1,0,-1,1
7.907732,1546,-5,-9,-9,4,-2,-2,0,0
7.907754,1547,3,3,3,-7,-4,-1,-2,-2
7.914593,1548,-8,-15,3,2,2,0,-3,-1
7.914620,1549,-2,12,5,8,-2,0,-1,0
7.930961,1550,-5,-15,-17,-8,-2,-3,-1,-1
7.930984,1551,5,14,0,-1,2,2,-1,1
7.932212,1552,12,-3,8,-3,-2,1,0,3
7.932243,1553,-45,-3,-2,-3,-2,-1,-2,0
7.953632,1554,2,-2,19,14,2,1,-1,1
7.953656,1555,3,5,-16,-3,-2,-4,-3,-1
7.955268,1556,2,-2,-16,-12,-4,-1,0,0
7.955287,1557,14,-3,8,-4,-2,0,1,0
7.967823,1558,-3,1,12,12,-1,1,1,1
7.967852,1559,-11,-19,-7,0,1,0,-1,-3
7.974534,1560,9,5,-21,-9,-5,-2,-1,-1
7.974553,1561,5,23,12,1,-1,-1,-1,0
7.990832,1562,-2,-9,8,6,2,0,-4,0
7.990854,1563,3,1,-1,-11,-2,1,0,2
7.992306,1564,-4,2,-12,-1,-2,-3,-1,0
7.992391,1565,19,19,0,0,4,3,0,2
8.013406,1566,-1,-26,0,-6,-5,-1,1,-4
8.013421,1567,-28,-28,-27,-24,-6,-5,-1,-10
8.015813,1568,-14,-23,-14,19,4,-3,0,-5
8.015818,1569,14,24,12,4,5,-1,3,-3
8.027940,1570,16,24,7,-2,3,0,-2,0
8.027962,1571,6,3,11,4,0,1,0,1
8.041973,1572,-11,-14,-3,-21,-9,-4,-3,-4
8.041995,1573,-1,-40,-15,-1,-7,-3,-1,-2
8.050930,1574,-7,11,-4,1,0,0,-2,-2
8.050951,1575,1,1,13,0,-2,0,-2,0
8.052330,1576,2,-5,2,1,1,1,-3,-1
8.052335,1577,-4,-1,-16,-1,-5,-3,-3,-1
8.073384,1578,-1,14,16,-6,-2,-1,-1,-1
8.073413,1579,3,-3,4,10,2,0,0,1
8.074937,1580,-7,17,17,10,-1,1,-2,-3
8.074945,1581,-9,-30,-28,-11,-2,-2,-1,0
8.087739,1582,5,21,0,-3,-2,-2,1,0
8.087764,1583,3,-6,4,8,1,-1,0,0
8.094655,1584,-6,-4,4,-4,0,0,2,-1
8.094683,1585,15,9,4,-9,-2,-3,-2,-3
8.110738,1586,-5,10,-3,7,0,0,-1,0
8.110777,1587,1,-23,3,7,1,0,-1,2
8.112227,1588,3,39,-2,-6,-3,-1,-2,-1
8.112240,1589,-13,-28,5,-7,-4,-1,-2,-2
8.133479,1590,8,1,-16,-4,-1,-1,-1,0
8.133497,1591,-5,-9,4,12,0,-2,0,-3
8.134900,1592,-4,8,-3,-19,0,-2,-2,-1
8.134915,1593,4,15,7,11,0,1,0,-1
8.147900,1594,4,4,5,-5,-4,-2,-1,-2
8.147928,1595,7,14,-10,-2,3,0,0,2
8.155531,1596,15,-19,-5,14,5,1,-1,0
8.155546,1597,7,19,30,12,0,0,-1,0
8.171099,1598,-23,-26,-5,-5,-2,1,-1,0
8.171116,1599,7,10,-11,-8,-7,-1,-1,-3
8.172513,1600,13,-6,4,-3,-2,-1,-1,0
8.172615,1601,3,11,-16,-6,-1,-1,-1,-1
8.193615,1602,1,-19,-4,1,-2,-1,-2,-1
8.193636,1603,-11,23,-2,-4,-2,-3,-2,-1
8.195322,1604,0,-6,2,0,-2,-2,-1,1
8.195327,1605,8,2,-1,0,0,-2,-2,2
8.207774,1606,-8,14,-6,-12,0,-2,-2,2
8.207799,1607,-30,-27,4,-1,-1,-2,-1,-3
8.215904,1608,-5,10,-14,7,2,2,-2,-2
8.215919,1609,-8,-18,6,-15,0,-1,-1,-2
8.231649,1610,10,-1,4,9,1,-2,0,-1
8.231659,1611,-8,18,-7,4,3,0,-2,1
8.232219,1612,-8,-43,0,-8,-6,-2,-2,0
8.232224,1613,3,19,-4,-6,-1,0,0,-2
8.253435,1614,-6,-31,-3,-3,2,1,-4,-2
8.253453,1615,5,17,8,9,-2,0,-3,1
8.255452,1616,-6,-33,0,-4,-3,-1,-4,-1
8.255465,1617,1,3,-6,0,-3,-1,0,3
8.267735,1618,-8,2,-10,-3,-4,-2,-1,1
8.267756,1619,4,-3,12,-1,1,-1,0,-1
8.275092,1620,2,23,1,3,0,1,0,2
8.275103,1621,6,-7,-10,-7,-4,-1,0,-1
8.291400,1622,7,1,2,6,-6,-3,-1,-4
8.291412,1623,27,15,-8,-8,1,-1,0,3
8.292225,1624,0,11,4,2,5,1,0,2
8.292231,1625,9,-13,1,-9,-4,-2,-4,-4
8.313696,1626,-13,5,-24,-2,1,-1,0,-1
8.313718,1627,12,-12,11,13,1,2,-2,1
8.314947,1628,3,-2,4,-2,-3,-4,-2,-2
8.315012,1629,-10,17,-11,-5,-1,0,0,0
8.327893,1630,0,-26,22,7,2,-1,-1,0
8.327915,1631,7,-8,-9,-16,-7,-3,-1,-3
8.334425,1632,-12,-6,-2,0,-3,-2,0,1
8.334503,1633,-2,18,-11,-7,-3,0,-3,-2
8.351601,1634,3,14,9,6,1,-2,0,0
8.351612,1635,-9,-8,9,-5,1,0,-2,2
8.352180,1636,7,4,-5,8,-1,-2,-1,-2
8.352185,1637,-32,-3,6,5,-1,-1,0,0
8.373509,1638,4,-28,6,2,-3,0,-1,0
8.373535,1639,-3,-4,-30,-6,-2,-1,-2,0
8.375345,1640,1,-21,8,-7,-1,0,0,-1
8.375358,1641,4,-5,-12,16,2,0,2,-2
8.387055,1642,-17,18,4,-2,1,-1,-2,-1
8.387075,1643,-8,-19,5,0,-1,-2,-1,-6
8.404307,1644,4,15,-1,-10,-5,-1,1,0
8.404325,1645,9,-3,3,0,-1,-3,-1,-2
8.411739,1646,-1,14,1,0,0,1,0,1
8.411752,1647,-1,13,-7,0,-2,0,-1,-3
8.412266,1648,2,0,-10,-7,-3,-2,-1,-4
8.412305,1649,0,-27,-3,6,2,0,-1,-2
8.433468,1650,23,18,-5,-3,4,0,-1,0
8.433487,1651,-8,-25,10,6,-3,-1,-1,2
8.435045,1652,1,29,-4,-9,-2,-2,0,-1
8.435050,1653,-7,-40,-11,-5,-3,-2,-2,1
8.447399,1654,5,1,-12,-1,-3,-1,0,-1
8.447423,1655,-7,13,20,1,1,-1,0,0
8.457101,1656,3,6,0,1,0,1,-1,0
8.457119,1657,1,-5,-1,-2,-2,-1,-3,-1
8.471280,1658,1,-8,-13,-21,-5,-3,0,-2
8.473622,1659,-7,21,15,23,2,0,2,0
8.473641,1660,-13,-15,-1,-3,1,-1,-4,1
8.473643,1661,7,-3,-6,-11,-1,-1,1,-1
8.493601,1662,-8,-20,6,15,1,1,-1,-2
8.493629,1663,27,18,-27,-16,-7,-3,2,-6
8.495348,1664,2,13,16,8,1,0,-2,-5
8.495355,1665,-1,10,13,-6,-2,-3,-1,0
8.507066,1666,-9,21,5,6,-2,-3,1,-1
8.507083,1667,-14,-26,-11,-2,-2,-2,-2,-1
8.517373,1668,-5,-3,3,-2,-1,-2,1,-3
8.517396,1669,6,-15,-16,3,2,0,0,-1
8.531484,1670,-6,27,7,-5,-1,0,0,1
8.531511,1671,-1,3,0,-4,-1,0,-2,0
8.533397,1672,-6,21,-6,-9,-3,-1,1,-1
8.533412,1673,6,-12,0,6,-1,-2,-1,2
8.553744,1674,11,-5,2,2,-3,-3,-1,-1
8.553770,1675,-25,4,1,-9,2,1,-3,-2
8.555897,1676,25,-34,20,27,-1,0,-1,-3
8.555918,1677,3,35,-22,-11,-2,-1,-1,0
8.567369,1678,-15,-6,10,1,4,1,-2,2
8.567394,1679,18,4,3,-2,-1,0,1,-2
8.576172,1680,-12,-12,-3,-3,-2,-2,-1,-2
8.576185,1681,-11,11,0,1,-7,-3,-2,-3
8.590801,1682,8,-26,5,0,-1,0,0,-3
8.590818,1683,-4,5,-9,-3,-1,0,-2,1
8.592332,1684,-12,-25,-5,-1,-2,-1,0,0
8.592380,1685,1,7,1,0,-1,-2,-2,0
8.613912,1686,-8,18,-7,-8,-4,-2,0,-2
8.613942,1687,2,-7,5,4,-1,-1,-2,1
8.614814,1688,1,-5,-11,-4,0,0,-3,-4
8.614828,1689,-7,-9,19,-4,-2,-1,0,-1
8.627144,1690,-8,10,-36,2,2,2,-1,-1
8.627162,1691,1,-30,74,10,-2,-1,0,-2
8.637914,1692,-2,19,-6,-5,0,-2,-1,1
8.637935,1693,-7,-17,-3,1,1,1,0,3
8.650829,1694,9,10,-4,-3,-5,-1,-1,-1
8.650851,1695,-29,-13,-32,-7,-1,-1,-2,-3
8.652177,1696,2,14,-7,-6,-3,-1,1,-1
8.652189,1697,2,6,9,3,1,-2,-1,-2
8.672486,1698,-2,-18,-6,-4,-3,-2,-1,-1
8.672509,1699,17,-1,-15,0,-1,-1,-2,0
8.681814,1700,-7,-28,4,-4,-4,0,-1,-2
8.681911,1701,-20,7,2,5,4,0,-2,-2
8.687207,1702,6,-2,11,-6,-3,0,-2,2
8.687223,1703,-10,-3,-8,2,-1,-1,0,-1
8.696002,1704,-11,31,-12,-2,0,0,-3,2
8.696013,1705,-23,-36,6,2,0,-1,-2,-6
8.710785,1706,-15,-5,-3,-11,-5,-2,-3,0
8.710804,1707,17,21,-4,3,0,1,0,2
8.712253,1708,2,-26,-3,1,0,0,0,0
8.712262,1709,-10,3,-3,3,-1,0,0,2
8.734386,1710,11,15,3,0,-3,-1,-1,-2
8.734402,1711,-3,-11,-22,-9,-5,-3,-3,-3
8.734804,1712,-3,16,5,-7,3,1,0,1
8.734837,1713,8,-32,2,8,-1,0,-4,3
8.747975,1714,12,12,-7,1,0,-1,0,-2
8.747991,1715,9,-15,17,-4,-1,-3,-2,-4
8.757180,1716,0,0,-3,-1,-2,-3,-1,-5
8.757192,1717,10,20,-1,-6,-1,1,1,-2
8.771023,1718,-3,5,-11,0,0,-2,-1,1
8.772946,1719,4,0,9,2,1,0,1,1
8.772965,1720,11,-5,-3,-2,-1,-2,-4,2
8.772967,1721,12,5,8,1,1,0,1,2
8.793280,1722,-2,-9,3,1,-1,-1,-1,-5
8.793352,1723,12,24,-9,-4,-3,-2,-2,-2
8.794787,1724,-22,-33,-1,3,-1,-3,-2,-1
8.794799,1725,11,12,4,-6,-4,0,1,-6
8.808715,1726,0,-12,7,1,0,-1,-2,-4
8.808728,1727,-6,6,5,7,2,2,0,-3
8.816872,1728,12,-4,-9,-3,-2,0,0,-2
8.816886,1729,-7,12,-7,-2,-1,-4,-2,-1
8.831022,1730,3,-16,11,1,0,-1,1,1
8.831052,1731,3,-7,-17,-10,-7,-2,1,-3
8.832729,1732,-18,28,3,-1,1,-2,-1,2
8.832742,1733,-4,-5,27,10,6,1,-3,2
8.853516,1734,7,-32,-1,-1,-3,0,-1,0
8.853544,1735,7,14,-12,1,0,-2,-2,1
8.855811,1736,-11,5,-4,-2,-4,-1,-2,-1
8.855824,1737,2,15,-1,-7,-4,0,-2,-4
8.867456,1738,-11,16,-7,3,2,0,-1,-1
8.867486,1739,-8,-8,3,0,-2,0,-1,-1
8.877145,1740,6,-1,0,-2,0,0,-2,-1
8.877155,1741,1,0,-5,-1,-3,0,1,-1
8.890979,1742,3,12,6,0,1,-3,-5,1
8.890997,1743,-11,-19,-10,-3,-2,-1,-3,1
8.893056,1744,-17,-3,6,0,-1,-1,-2,-3
8.893069,1745,2,7,-10,-1,1,0,0,-1
8.913391,1746,-12,0,-2,-2,-2,-1,0,-1
8.913420,1747,10,31,3,-3,-1,-2,-1,0
8.915065,1748,5,-5,-1,2,2,0,-1,1
8.915073,1749,-2,-8,-8,-5,-3,0,0,0
8.936041,1750,10,4,-10,0,0,-4,-1,-4
8.936064,1751,-7,9,20,6,2,0,-1,-4
8.938480,1752,21,-6,5,-1,-2,-2,1,-3
8.938493,1753,-29,-1,-12,-1,-2,-2,0,-4
8.951242,1754,10,10,-3,-3,-1,1,0,2
8.951274,1755,-14,-15,-13,-5,-2,-2,-2,-4
8.957390,1756,14,0,-2,-3,-2,-1,-2,-5
8.957407,1757,9,12,3,-5,-4,-2,-2,-2
8.973745,1758,-20,-15,1,0,-1,-1,-1,0
8.973766,1759,17,15,-1,1,1,0,2,0
8.975108,1760,-5,16,-3,-4,-1,1,2,-1
8.975115,1761,-9,-33,-6,-1,0,-2,-3,-1
8.996127,1762,7,18,3,1,-1,-1,1,0
8.996205,1763,4,-30,-7,-3,-4,-1,-1,1
8.998590,1764,-8,-9,-4,-3,-3,-2,1,1
8.998599,1765,1,19,4,-3,-2,-2,-1,-1
9.011278,1766,8,-11,4,5,3,0,-2,2
9.011310,1767,-9,1,-1,-1,-1,-2,-1,-2
9.012655,1768,4,-6,1,-2,-2,0,-2,-2
9.012673,1769,13,25,-3,0,0,0,0,0
9.033483,1770,1,-19,3,-3,-4,1,0,0
9.033511,1771,4,-12,-3,-3,-1,-1,-2,-2
9.035734,1772,-3,21,1,3,-2,-1,-1,2
9.035739,1773,-13,-29,-4,-3,-2,-3,-2,-4
9.055975,1774,3,9,3,-1,-2,-2,0,-4
9.056015,1775,-3,15,0,1,2,1,0,0
9.057312,1776,1,9,0,0,-1,-1,1,1
9.057321,1777,-5,-22,2,0,-1,0,-2,3
9.070164,1778,-40,-13,-4,-2,-3,0,-2,0
9.070175,1779,-5,-8,-6,-2,-1,0,-2,-2
9.076919,1780,-4,-4,3,2,1,-2,-2,-1
9.076935,1781,3,32,-10,-4,-3,-2,-1,1
9.093256,1782,6,-44,4,-3,-4,-4,-1,0
9.093276,1783,7,10,4,-3,-1,-1,0,-1
9.094875,1784,-10,-13,2,13,4,-1,-4,0
9.094889,1785,13,12,-8,2,1,-1,1,-2
9.115854,1786,8,7,-5,-5,-3,-1,-1,-1
9.115873,1787,1,6,2,-3,-2,-2,0,-2
9.117240,1788,2,2,-2,-2,0,-1,-1,0
9.117252,1789,6,-1,9,-2,-2,-4,-2,0
9.130095,1790,-8,-1,-1,1,0,-1,-1,-2
9.130131,1791,4,-26,-2,-4,-1,-1,1,0
9.136990,1792,-4,16,-5,-4,-1,2,0,-1
9.138708,1793,-3,-14,2,4,0,0,-2,2
9.153625,1794,3,41,7,-1,-2,-1,-2,0
9.153653,1795,-10,-12,-8,-1,-2,-2,-2,0
9.155826,1796,2,-7,0,-1,-1,1,1,-3
9.155839,1797,7,9,-5,-4,0,-1,0,-4
9.175902,1798,-1,12,5,4,1,-3,-1,-3
9.175919,1799,16,-28,4,-2,-1,-1,-2,-1
9.177381,1800,8,-12,-1,2,2,-1,-2,-1
9.177446,1801,-11,0,-1,-1,-1,0,-1,1
9.190940,1802,3,6,-5,-7,1,0,-2,0
9.190961,1803,-4,15,-1,9,-3,-1,-3,0
9.197251,1804,-5,-5,-5,-10,-6,-3,-2,0
9.197271,1805,16,2,10,3,1,0,-1,0
9.213371,1806,-7,-4,2,-2,-2,0,-3,-3
9.213392,1807,-6,-15,-16,-9,-2,-1,-1,0
9.214851,1808,-6,16,-1,2,-2,-3,-2,1
9.214868,1809,-12,-41,-8,-3,-3,-2,-3,-1
9.236237,1810,2,1,0,-3,-3,1,-2,2
9.236249,1811,-13,41,16,7,4,1,-2,4
9.237688,1812,6,-15,3,0,-1,-1,-2,2
9.237706,1813,17,-13,-4,-3,-2,-2,0,0
9.251619,1814,-39,0,-14,1,2,-2,0,-2
9.251634,1815,18,-11,17,0,0,-1,2,-1
9.257092,1816,-22,-12,-11,-5,-1,0,0,-4
9.257122,1817,13,5,1,3,1,-3,-1,0
9.273493,1818,9,8,-7,-3,-4,-1,-1,-3
9.273514,1819,-3,-3,-6,-2,-1,-2,-1,-1
9.275290,1820,6,8,6,-1,0,-1,-1,-3
9.275301,1821,8,-5,-4,-2,-3,1,-1,-4
9.297249,1822,-19,23,-1,0,1,0,0,0
9.297259,1823,-4,-18,-4,0,-2,0,-4,-1
9.297261,1824,7,-4,-6,-3,-5,-1,0,0
9.297263,1825,0,14,-2,-4,1,-2,0,1
9.311005,1826,-4,-13,10,4,-1,-3,-1,1
9.311020,1827,-14,1,12,2,-1,-2,-3,-2
9.317352,1828,-3,9,-4,-2,-2,0,0,-1
9.317372,1829,-8,-26,-6,-3,-3,-2,-2,2
9.333525,1830,13,4,-7,-4,-1,-2,0,-2
9.333543,1831,-12,-15,4,-3,-1,-1,2,-3
9.335241,1832,10,4,-7,1,0,-4,-2,-3
9.335246,1833,-22,-4,10,1,-1,1,1,-2
9.355820,1834,25,-3,1,-3,-3,1,-1,-3
9.355844,1835,5,24,-3,1,0,-1,-2,-1
9.357538,1836,11,5,2,0,2,-1,-1,-2
9.357550,1837,-12,-7,-2,1,2,-2,-1,-1
9.370828,1838,-12,-17,-1,-1,-1,-1,0,-1
9.370865,1839,18,22,-9,-6,-4,-1,0,-2
9.377175,1840,-2,-9,2,1,-1,0,-1,-1
9.377195,1841,-2,-26,-3,0,-2,0,-1,-2
9.393339,1842,15,2,4,-2,-2,-1,-1,-1
9.393361,1843,-7,-19,-9,-1,-1,-1,-2,-2
9.394754,1844,13,5,14,3,1,-2,-1,0
9.394761,1845,-10,22,-4,-1,-1,-1,0,1
9.418174,1846,-3,10,-5,0,-1,-3,0,-1
9.418190,1847,0,-28,1,-1,1,-1,-1,-1
9.418194,1848,-3,6,0,-2,-2,1,-1,1
9.418197,1849,-22,-20,-8,-2,-2,0,-3,0
9.429528,1850,7,-12,-4,-4,-1,0,-1,1
9.429549,1851,-8,16,-2,2,0,0,-2,-1
9.440090,1852,-6,-6,1,0,-1,1,-1,1
9.440103,1853,7,12,6,-1,1,-3,0,2
9.453720,1854,6,-17,-2,0,-1,0,0,-3
9.453743,1855,-10,4,-9,-6,0,-3,0,-1
9.455320,1856,-10,-6,8,-1,-1,-2,-1,-1
9.455333,1857,8,20,1,-1,0,-1,-1,-2
9.475918,1858,-8,-35,-6,-1,-1,-3,-2,0
9.475943,1859,1,16,-5,-3,-3,0,-1,-2
9.477492,1860,-11,-6,0,-3,-1,-1,0,0
9.477557,1861,4,10,-8,-2,-1,-2,0,-3
9.489591,1862,5,-6,6,2,2,2,-2,1
9.489610,1863,-26,-6,-12,-4,-3,0,-3,-1
9.499423,1864,5,-3,-11,-3,-2,-2,-2,-3
9.499439,1865,1,-6,-2,-2,-1,0,0,0
9.514045,1866,9,14,-13,-4,-1,-2,0,-2
9.514065,1867,-3,-8,-1,3,-1,0,2,1
9.516099,1868,12,-8,14,0,1,-1,0,-2
9.516108,1869,-27,-25,-9,0,-1,-1,-4,-3
9.536035,1870,-7,13,0,-1,-2,-1,0,0
9.536062,1871,15,7,-3,-2,-1,-3,-3,-3
9.538164,1872,-12,2,-3,-3,-3,-1,2,0
9.538178,1873,14,14,8,-5,0,1,1,-2
9.549775,1874,5,23,4,12,0,-1,-1,0
9.549790,1875,-5,-56,3,-4,-4,0,-2,-4
9.558663,1876,-26,-16,-8,-3,2,-1,-2,-2
9.558684,1877,-3,8,-2,-4,-3,-1,0,-5
9.573353,1878,-5,10,2,-2,0,-1,-1,-7
9.573376,1879,15,14,-4,-1,0,-1,-1,0
9.575052,1880,0,-7,-10,0,-1,-1,-3,-1
9.575068,1881,0,15,6,0,0,-1,-2,0
9.595872,1882,4,-6,8,2,1,1,1,1
9.595895,1883,-23,2,-1,2,0,-1,0,-3
9.597237,1884,13,27,-12,-4,0,-1,-1,3
9.597250,1885,-8,-59,-9,-1,-2,-1,-1,0
9.609507,1886,5,4,1,-6,-8,-2,-2,-1
9.609527,1887,5,12,10,1,5,0,-1,1
9.619822,1888,-1,11,6,6,1,1,-1,-4
9.619833,1889,11,32,5,-5,-3,0,-1,2
9.633843,1890,-1,-30,-6,1,-4,-3,-2,-2
9.633867,1891,10,-12,-4,-4,1,0,1,0
9.636221,1892,0,21,8,-2,-7,-2,-2,0
9.636228,1893,5,4,17,13,7,1,-3,3
9.655882,1894,-30,-58,-24,-9,-1,-1,-2,0
9.655913,1895,8,48,-1,0,-3,-1,-2,-2
9.658178,1896,12,-26,0,-2,-2,0,-1,1
9.658188,1897,-7,11,-3,-4,-4,0,-1,-2
9.669888,1898,5,27,2,4,3,0,-1,1
9.669918,1899,-7,6,8,2,-2,1,-1,0
9.679143,1900,-6,-14,-6,-2,-2,-2,-1,0
9.679290,1901,5,14,-5,-3,-3,-2,0,-1
9.693443,1902,-5,-10,1,-2,1,-1,-1,-1
9.693461,1903,2,13,5,0,-2,-1,1,-1
9.694943,1904,6,-21,2,-5,-1,0,0,0
9.695027,1905,-11,-13,-5,0,0,-3,-1,-3
9.715947,1906,29,18,1,-2,0,0,-2,-2
9.715968,1907,-8,-9,-1,-4,-4,-1,-3,-4
9.717467,1908,-9,4,-1,-2,-1,-1,0,-2
9.717472,1909,4,-3,-2,-1,0,0,1,0
9.729804,1910,-9,-8,-1,-3,-1,-1,-1,-1
9.729833,1911,10,12,1,-2,-1,-4,0,0
9.739600,1912,0,8,-8,-2,-3,0,1,-1
9.739620,1913,-6,-9,25,2,-1,0,0,-3
9.753296,1914,-5,-7,-28,-1,0,0,-1,1
9.753320,1915,9,-3,2,3,0,0,-3,-1
9.755119,1916,-18,8,14,4,2,0,-1,1
9.755137,1917,9,9,-9,-6,-5,-4,-3,-5
9.775906,1918,-10,18,9,-4,-2,0,0,-2
9.775927,1919,-2,-2,-12,-2,-3,-2,1,0
9.777214,1920,4,-10,-4,-2,-2,-3,-1,-2
9.777257,1921,11,20,-1,1,0,-1,0,0
9.789411,1922,-10,-7,5,-1,-3,-1,0,-2
9.789428,1923,-5,-14,-4,-1,0,-1,1,1
9.799478,1924,5,1,2,-2,-2,-1,-1,-3
9.799495,1925,-3,-11,-5,-2,-1,-1,-2,-1
9.813172,1926,-4,-7,1,-3,-1,0,-2,-2
9.813184,1927,-4,-11,2,-1,-1,-2,-1,-1
9.819599,1928,4,10,4,1,0,-1,-1,2
9.819615,1929,6,16,-8,0,-1,-1,-1,0
9.836651,1930,-15,-22,-3,-9,-5,-2,-2,-2
9.836678,1931,-4,-15,9,6,9,3,-2,2
9.838609,1932,-10,2,-9,4,-1,0,-1,1
9.838622,1933,3,15,3,3,0,0,-1,4
9.858301,1934,13,-22,-1,0,-3,-1,0,4
9.858313,1935,-21,12,-5,-6,-5,-2,0,-2
9.859812,1936,4,4,0,-1,0,-2,-1,-1
9.859882,1937,-13,-14,-7,-2,-2,0,-2,0
9.872621,1938,1,14,0,-1,0,-3,-1,-1
9.872632,1939,3,-4,-1,-2,-3,1,0,1
9.880126,1940,0,-13,-2,0,0,-1,-2,0
9.880157,1941,-2,11,0,-2,-2,0,-2,-1
9.896226,1942,-10,-20,-1,0,0,0,-2,-2
9.896337,1943,9,-2,-2,-2,-1,-1,-1,-2
9.897258,1944,0,14,-10,-4,-1,-2,-1,-3
9.897263,1945,18,-18,13,1,1,-1,1,-3
9.918355,1946,1,3,1,1,0,0,0,-2
9.918373,1947,-1,1,1,0,-1,-2,-1,0
9.919740,1948,14,28,-6,-4,-3,-1,-2,0
9.919746,1949,-34,-54,2,2,-4,-2,-2,-1
9.934295,1950,2,10,12,2,3,1,-1,2
9.934310,1951,4,23,-9,-6,-3,-2,-3,0
9.934783,1952,-1,1,2,0,0,0,-1,0
9.934815,1953,19,-14,-1,-2,-3,-1,-1,-2
9.955928,1954,4,17,2,-2,-2,-3,1,-2
9.955958,1955,-3,-13,-5,3,-1,-1,-2,1
9.957987,1956,-22,-7,1,-3,-2,-2,-1,-1
9.957999,1957,3,20,-3,-1,-1,0,1,2
9.979661,1958,-46,-2,-1,0,0,-3,-2,-3
9.979676,1959,17,1,-1,-3,-1,-2,-1,-3
9.979852,1960,1,-13,-1,0,2,0,0,1
9.979858,1961,-7,9,-7,-2,-1,1,-2,0
9.992821,1962,13,0,-2,-1,0,0,-1,2
9.992850,1963,-10,-13,-2,-2,-2,-1,-1,0
10.000193,1964,0,-14,6,0,-3,-2,0,-1
10.000225,1965,-16,27,-4,-1,0,-3,-3,-3
10.016312,1966,13,-26,-3,4,1,0,-3,1
10.016343,1967,-11,8,18,3,-1,-1,0,-2
10.018064,1968,18,-7,-6,-2,-1,-1,0,1
10.018073,1969,-21,-1,-11,-2,0,-1,0,-1
10.038652,1970,13,26,-3,-2,-3,-2,-1,1
10.038692,1971,-6,-13,3,2,0,1,-1,2
10.040518,1972,-2,-32,-5,0,2,-1,-1,0
10.040533,1973,14,-6,11,-2,-2,0,0,0
10.053198,1974,-34,28,-5,-3,-3,-2,-2,-2
10.053235,1975,1,0,2,-5,1,-2,-1,-4
10.059570,1976,-13,19,-2,0,-2,-1,-2,-1
10.059594,1977,3,-7,-3,2,1,-3,-2,2
10.075699,1978,13,-12,-1,-2,0,-1,1,0
10.075718,1979,7,16,-5,-4,-3,-3,0,-1
10.077510,1980,-6,10,0,-3,-2,-2,0,-5
10.077528,1981,2,-24,-6,1,-2,0,0,-2
10.098532,1982,7,-2,-2,0,1,-2,-1,-3
10.098561,1983,-11,16,-1,1,-1,-3,1,2
10.100683,1984,-10,-26,-1,-2,0,-1,-3,-5
10.100691,1985,6,-3,-3,1,0,0,-1,-1
10.111962,1986,7,10,7,-3,-3,-2,-2,1
10.111978,1987,5,-10,-11,-3,1,0,-1,1
10.122833,1988,1,13,5,0,-1,-1,-2,-1
10.122848,1989,-5,4,-3,-2,-1,-2,-2,1
10.135919,1990,-3,-9,3,1,0,0,-2,-1
10.135938,1991,3,0,-2,-6,-2,-1,-2,2
10.137615,1992,-1,13,6,6,-2,-1,-1,2
10.137634,1993,0,-7,-6,-4,-2,-1,-1,0
10.158435,1994,5,13,1,2,-2,-3,1,1
10.158457,1995,-2,-11,-1,-3,-3,-1,0,0
10.160203,1996,8,-5,-4,-3,-2,-1,-1,1
10.160209,1997,-4,6,3,-1,-3,-2,-1,-1
10.172541,1998,-2,-10,-1,-2,-1,2,1,-3
10.172585,1999,1,25,-10,-3,-4,-2,0,-9
10.182572,2000,-4,-17,0,1,1,-3,0,-5
10.182630,2001,2,-28,4,1,1,-1,-1,2
10.196426,2002,-9,1,-2,0,1,-2,-4,4
10.196457,2003,2,-4,0,1,0,-3,-4,4
10.197520,2004,4,20,-1,-3,-2,2,0,2
10.197638,2005,-1,4,-2,-5,-2,0,-2,-3
10.218821,2006,11,-1,2,1,-1,1,2,-2
10.218846,2007,-15,-17,-2,-1,-4,-2,-1,-4
10.221133,2008,-2,-2,-2,1,-1,-2,-1,1
10.221141,2009,5,0,0,-3,-3,-2,0,-2
10.232193,2010,-28,-54,-8,-1,0,-1,-2,-3
10.234397,2011,5,18,2,-1,0,-1,2,-3
10.241863,2012,5,-15,0,-2,-2,-1,-2,1
10.241876,2013,-4,26,-2,-2,-2,0,-1,-3
10.255826,2014,7,12,-7,1,1,-1,0,-1
10.255845,2015,-7,-4,2,0,0,0,-1,2
10.257422,2016,11,-13,-5,-5,0,-1,-2,-1
10.257446,2017,8,16,-1,1,-1,0,-1,-1
10.278649,2018,-15,4,-4,-1,-2,-1,-1,-1
10.278679,2019,6,-3,1,1,-1,-2,-2,-2
10.280690,2020,-13,11,5,-1,-1,0,2,-1
10.280702,2021,0,-14,-7,-4,-1,-1,0,-2
10.292161,2022,14,11,5,-1,-3,-2,-1,-2
10.292184,2023,-10,-16,0,0,-1,1,-2,-3
10.300870,2024,-1,21,2,1,-1,0,0,0
10.300948,2025,-18,-13,-3,-4,-1,-1,-1,-2
10.315822,2026,7,-2,-1,1,-1,-1,-2,2
10.315859,2027,4,-8,-11,-3,-2,1,-1,0
10.317194,2028,7,8,-2,1,0,-2,0,2
10.317224,2029,-31,1,13,1,-1,-2,-3,0
10.345650,2030,8,-30,-2,-1,-3,-2,-2,0
10.345662,2031,0,5,-2,-1,-2,-1,0,1
10.347258,2032,-21,-14,-5,-3,-2,-1,-1,-2
10.347271,2033,12,11,-5,1,1,0,1,-1
10.351928,2034,2,13,2,-2,-1,-3,2,-1
10.351943,2035,-5,-15,3,2,0,0,0,0
10.360893,2036,6,6,4,1,-1,-1,-1,0
10.360905,2037,9,7,-9,-3,-2,-2,-3,2
10.376535,2038,-3,6,5,0,-1,-1,-1,2
10.376546,2039,-2,-1,-2,0,-3,-1,-1,-2
10.377199,2040,1,17,-2,-2,-2,0,-1,-2
10.377205,2041,6,-27,-1,-1,-1,-2,0,-2
10.398376,2042,2,14,0,-1,-1,0,-1,-2
10.398396,2043,0,-12,-5,-3,-1,-2,-3,2
10.399778,2044,-1,19,0,0,-1,-1,-3,-3
10.399792,2045,21,19,-1,-1,-3,-2,-1,-2
10.412154,2046,-11,-32,2,-1,0,-2,-1,1
10.412176,2047,5,-11,-4,-3,1,-2,0,-1
10.422894,2048,-4,-4,1,-2,-1,-3,-1,2
10.422915,2049,1,-21,-3,-2,-1,1,0,3
10.437506,2050,1,25,3,2,1,1,1,-3
10.437523,2051,1,11,7,0,0,2,-3,2
10.437528,2052,-8,-21,-5,0,-3,0,-3,0
10.437531,2053,3,12,-2,-1,-1,-1,-1,0
10.458337,2054,2,22,-4,-4,-4,0,-2,-3
10.458360,2055,2,-25,0,-1,-1,-2,0,-2
10.459963,2056,-1,0,-1,-2,0,0,2,-2
10.459980,2057,5,7,6,0,1,0,-1,0
10.472486,2058,-2,-3,-5,-3,-1,-2,-1,-1
10.472516,2059,0,14,1,2,-2,-1,0,2
10.481205,2060,5,-4,-6,-3,-2,-1,-1,0
10.481217,2061,-5,-21,8,2,0,-1,-3,-3
10.497573,2062,8,-15,-3,-1,-1,-2,1,-2
10.497584,2063,2,8,-8,-2,-3,-2,-1,-2
10.497586,2064,1,7,15,-3,-3,-3,-2,-3
10.497587,2065,-4,9,-12,-1,-2,2,3,0
10.518661,2066,0,3,10,-8,4,0,-2,-3
10.518688,2067,-7,-12,-10,8,0,-1,-1,-4
10.520561,2068,2,6,4,1,-2,-1,0,-1
10.520568,2069,0,9,6,-1,-1,-3,1,-4
10.532343,2070,-4,-20,2,-1,-4,-1,-1,-2
10.532370,2071,-5,3,1,-3,0,-1,-1,-3
10.542153,2072,-8,27,-8,-5,1,-1,-2,-3
10.542165,2073,-3,-14,-7,-1,-1,-3,0,-2
10.557873,2074,4,-14,2,0,-2,-1,0,1
10.557885,2075,7,10,1,2,-1,0,-2,2
10.557887,2076,-6,-10,-8,0,-1,0,-2,-3
10.557889,2077,5,16,-3,-7,-3,0,-1,2
10.578373,2078,-26,29,4,6,1,1,-1,-4
10.578388,2079,1,-59,-3,-3,2,2,-4,-1
10.579926,2080,4,-11,-2,0,-1,0,0,5
10.579934,2081,-2,4,-5,-1,-2,-2,0,1
10.592100,2082,4,-3,-10,-4,-5,-4,-4,0
10.592128,2083,-5,34,10,-8,-4,-2,2,-3
10.602772,2084,1,-15,-1,10,4,1,-2,0
10.602789,2085,3,-6,-1,-2,0,0,1,-1
10.623508,2086,-1,12,-4,1,-1,-1,-3,2
10.623818,2087,-6,-3,-2,-2,-3,-3,0,0
10.625352,2088,-4,-18,-5,-8,-4,-1,-2,4
10.625363,2089,6,22,5,1,0,0,2,8
10.638468,2090,2,-30,-5,-3,0,-2,0,-2
10.638492,2091,-12,2,-4,-2,-1,0,0,-4
10.640021,2092,3,-5,3,-1,-2,-1,0,-5
10.640042,2093,-8,-4,-2,1,-1,-2,-2,-3
10.652751,2094,16,22,-1,2,0,0,0,-2
10.652777,2095,-37,2,-1,-2,-2,-1,-1,-2
10.662954,2096,-1,-30,0,-3,-3,-2,0,-1
10.662965,2097,-2,10,-9,-4,-1,0,-3,-5
10.675985,2098,-4,13,18,0,-2,-3,-2,0
10.676015,2099,7,-33,-4,4,0,-1,0,0
10.678067,2100,-4,5,-10,-2,-1,-1,-1,-4
10.678121,2101,-12,-29,7,-1,-2,-1,-2,-4
10.698515,2102,10,6,14,1,1,0,0,2
10.698540,2103,0,26,-12,-6,-4,-2,-3,-1
10.699729,2104,0,-11,19,7,0,-1,-3,0
10.699743,2105,0,27,-7,1,1,0,0,1
10.712166,2106,-1,-52,-9,0,-2,0,-1,-1
10.712191,2107,19,14,8,2,1,-1,-3,0
10.723134,2108,-10,-6,-13,-8,-5,-1,0,1
10.723146,2109,1,14,3,0,0,-1,0,-1
10.735617,2110,-3,20,-2,0,-1,0,-1,-1
10.735647,2111,16,-2,4,-2,1,-1,2,1
10.741949,2112,4,-1,-13,-1,-1,-3,-2,-5
10.741971,2113,-7,-33,3,0,0,0,0,-1
10.758344,2114,-5,11,-13,-1,-1,-3,1,0
10.758363,2115,0,1,-6,3,0,1,-1,-2
10.760021,2116,-1,14,19,0,2,1,1,3
10.760038,2117,-14,-22,0,1,-2,0,0,-2
10.772077,2118,-10,-18,-9,-1,-3,-1,-4,-4
10.772139,2119,15,27,-6,-5,-2,0,-3,-2
10.782031,2120,-11,21,-5,-1,-1,-2,0,-1
10.782042,2121,23,43,0,3,2,-1,-3,0
10.795407,2122,-10,-17,-2,-2,-2,0,0,1
10.795435,2123,2,44,7,0,-2,0,0,0
10.802119,2124,19,-61,-9,-4,-2,-2,0,0
10.802152,2125,-12,-23,1,-2,-3,-3,-1,-1
10.818594,2126,8,-10,-8,0,0,-2,-2,-3
10.818624,2127,-2,10,4,0,1,-1,-1,1
10.819725,2128,7,13,2,-2,-2,-1,-2,2
10.819738,2129,4,9,3,0,-2,-1,1,-1
10.840927,2130,-5,6,-3,-2,-2,-1,-3,0
10.840950,2131,-8,-26,-2,-1,-1,-1,0,-1
10.842629,2132,2,4,-2,2,1,-1,0,0
10.842641,2133,-9,0,-5,-3,0,-1,0,-1
10.855427,2134,-6,32,-2,0,-1,-2,0,-4
10.855446,2135,7,-51,2,0,-1,-1,0,-1
10.861885,2136,-6,24,3,-3,-1,0,-2,-1
10.861907,2137,-21,-6,-1,-4,-2,-2,-3,-4
10.878806,2138,-12,-6,-1,-3,-1,0,0,-4
10.878885,2139,5,-5,-7,-2,-2,-2,1,-1
10.879936,2140,-3,-4,3,0,1,0,1,0
10.879954,2141,4,8,3,3,0,0,0,2
10.900026,2142,10,36,1,2,1,0,-2,1
10.900046,2143,-12,-57,-2,-3,-4,-2,-3,-3
10.909289,2144,-2,5,-7,-3,-3,0,-1,-4
10.909300,2145,-2,-6,-3,-1,-1,-2,-3,-1
10.915251,2146,6,5,4,-1,-1,-2,2,1
10.915267,2147,-15,12,-4,-3,0,-2,-1,-3
10.922051,2148,1,2,-3,0,-1,-2,0,-1
10.922069,2149,9,7,-1,1,-1,-1,-1,-2
10.938220,2150,-2,-24,-3,-2,1,-2,-1,1
10.938234,2151,-16,37,-1,0,-1,0,-1,-5
10.940108,2152,1,-64,-2,-1,-1,-2,-2,-2
10.940125,2153,-3,8,4,-1,-2,-1,0,-3
10.961106,2154,12,12,-4,-4,-2,-1,3,1
10.961135,2155,-4,-11,-1,0,-2,-2,-2,1
10.962585,2156,-1,30,3,1,0,-2,0,-5
10.962591,2157,4,-39,5,0,-2,-1,-1,-1
10.975256,2158,-3,14,-1,1,-1,-3,-2,-3
10.975282,2159,5,5,3,0,2,-1,-2,1
10.983819,2160,-10,-57,-9,-4,-2,-1,-1,-1
10.983829,2161,4,5,-4,-2,-3,-4,-1,1
10.998738,2162,-11,-6,-2,-1,1,0,-2,2
10.998749,2163,8,7,1,-1,1,0,-1,2
10.999709,2164,-5,39,2,2,-1,0,-1,0
10.999715,2165,-12,-13,-1,-3,0,0,1,2
11.021123,2166,-6,-20,-11,-3,-2,-1,-3,-4
11.021150,2167,3,16,22,4,0,1,1,0
11.023189,2168,1,-1,-1,0,-1,0,-1,1
11.023202,2169,0,19,3,-3,-3,-1,0,0
11.035361,2170,10,-2,-6,0,-3,-1,-2,-1
11.035383,2171,-3,-38,-5,0,-1,-1,1,1
11.042115,2172,3,23,1,0,0,1,-1,-2
11.042137,2173,6,-4,2,2,0,-3,-1,-1
11.059017,2174,0,58,-5,-6,-3,-4,-4,1
11.059029,2175,5,3,4,-2,-1,-1,0,-2
11.059970,2176,-8,-5,-3,-2,-2,-2,-2,-2
11.059995,2177,5,4,-3,-1,-1,1,-2,0
11.081022,2178,-1,-21,6,1,-1,0,0,-2
11.081041,2179,-4,19,-11,-1,-1,0,1,0
11.082833,2180,-8,-36,-3,0,-2,-2,-1,-1
11.082838,2181,7,6,-5,-3,-1,-1,1,-2
11.094585,2182,-12,-21,6,1,-2,0,1,-5
11.094607,2183,-1,13,-2,0,-2,0,-2,1
11.104561,2184,3,22,0,-3,0,-2,0,-1
11.104573,2185,-17,-23,3,-2,-1,-2,-1,-4
11.120478,2186,3,-11,-9,-3,-1,-1,1,3
11.120495,2187,7,24,-6,0,-1,-1,0,-1
11.120500,2188,0,-63,-7,-3,-2,-1,-4,-6
11.120504,2189,-6,14,-8,1,-2,-1,0,-1
11.141002,2190,5,-12,6,-1,0,-1,-2,0
11.141025,2191,-10,2,3,-2,-2,0,-2,-1
11.142976,2192,7,19,-1,-2,-2,0,-3,2
11.142983,2193,-2,1,-1,-2,-1,-1,-3,-1
11.154638,2194,4,-4,3,0,-2,-1,-1,-1
11.154667,2195,-6,-7,-3,-3,-3,-2,-2,-1
11.163642,2196,0,17,1,3,-1,0,2,-1
11.163652,2197,3,-4,-1,0,-1,3,0,-2
11.179196,2198,-2,-1,0,1,1,-1,0,-1
11.179229,2199,3,-8,-1,-3,0,-2,1,-2
11.181358,2200,-3,31,1,-1,-3,-2,-2,-1
11.181411,2201,-5,-47,-4,-1,-1,-4,-5,-1
11.201041,2202,3,0,0,0,-2,0,-1,0
11.201070,2203,-8,-5,-3,-1,-1,-3,-1,-3
11.202608,2204,-3,5,-1,0,-1,-2,1,-1
11.202629,2205,0,21,-1,-1,-1,0,-1,0
11.214868,2206,1,-6,2,0,1,-1,-2,-3
11.214893,2207,-11,-18,-2,0,-2,-2,-1,0
11.225117,2208,6,13,-2,-3,0,-2,0,1
11.225129,2209,2,10,-1,-2,-2,0,-2,-2
11.238747,2210,-4,-4,1,-2,-1,0,-2,-2
11.238770,2211,4,2,2,0,-1,-2,-2,-4
11.240794,2212,-3,-4,-1,-1,0,-1,-1,0
11.240805,2213,2,5,-4,-1,-1,-1,0,1
11.261088,2214,-4,9,0,-1,-1,0,1,2
11.261114,2215,2,-19,-7,-1,-2,-1,-1,0
11.262692,2216,-1,9,1,-1,-1,-2,-2,-1
11.262713,2217,0,-6,-2,0,1,-2,0,0
11.274482,2218,0,15,1,0,-1,0,0,-1
11.274499,2219,2,0,0,0,0,-1,-2,-1
11.283966,2220,-4,-4,1,-1,-3,-1,-1,0
11.283980,2221,-2,1,-1,-1,-2,-1,-2,-1
11.298746,2222,-1,-12,-3,-2,0,0,-2,0
11.298775,2223,1,4,2,-1,0,-1,1,-1
11.300110,2224,-5,-5,-2,-1,-3,-1,0,-1
11.300124,2225,-1,2,1,0,0,-3,0,-2
11.320910,2226,-4,-6,-3,-1,-2,-1,-1,-3
11.321065,2227,4,-5,-1,-1,1,-2,0,1
11.322270,2228,0,14,1,-1,-1,-1,-1,-1
11.322288,2229,-4,-11,0,-2,-2,-1,-1,-2
11.336358,2230,-1,-17,-1,0,-1,1,0,0
11.336370,2231,1,16,1,-1,-2,-1,-2,-2
11.344055,2232,4,-4,-1,1,-1,1,-1,-3
11.344067,2233,-9,9,0,-2,0,-2,-2,2
11.358537,2234,0,-1,-1,-2,-1,-3,0,0
11.358554,2235,1,-5,-1,0,-2,0,-1,0
11.360059,2236,2,8,2,1,1,-1,-1,-1
11.360075,2237,-7,-15,-2,-3,-2,0,-3,1
11.381842,2238,-1,-1,-2,-3,-1,0,0,1
11.381853,2239,3,-1,-1,-2,1,-2,-1,0
11.382251,2240,0,-9,-2,-4,-1,0,-1,2
11.382283,2241,4,21,-1,-1,-1,0,0,-1
11.395032,2242,1,-14,2,0,-2,-3,-1,-1
11.395092,2243,-7,3,-3,-3,-1,-2,-1,-2
11.411340,2244,-3,-8,0,-1,-1,-1,-2,-1
11.411358,2245,3,5,0,0,-2,-1,-2,-1
11.418368,2246,-1,9,-1,-1,0,0,0,-1
11.420411,2247,3,-5,0,-1,-2,0,1,-2
11.420417,2248,-2,5,0,0,0,-1,0,-1
11.420418,2249,-5,-13,2,-2,0,0,-2,-2
11.442438,2250,3,4,3,0,-1,-2,-3,-2
11.442454,2251,-1,-14,-2,0,0,-1,-3,0
11.442457,2252,-6,13,-2,-3,-1,-1,-1,-1
11.442458,2253,0,-9,-1,-1,-2,-1,1,1
11.455257,2254,-1,3,0,1,-2,0,-2,-1
11.455286,2255,-2,4,-1,0,1,1,-2,-1
11.465743,2256,2,9,-1,-1,-2,-2,-2,-1
11.465754,2257,-3,-9,0,-3,-1,-2,0,-1
11.478441,2258,-12,-4,-1,-1,-2,-1,-3,-1
11.478471,2259,0,5,2,0,0,0,0,-3
11.479813,2260,0,-4,-1,-1,-1,-1,-1,-1
11.479848,2261,-1,-10,-3,-1,-2,0,-1,-2
11.501314,2262,2,-7,0,-2,0,0,0,-4
11.501343,2263,4,2,-5,-3,0,-3,3,-8
11.504321,2264,-2,-16,-4,-1,2,-2,6,-19
11.504334,2265,1,8,1,1,-1,-3,-5,6
11.514780,2266,-5,13,-1,1,-2,-2,-8,12
11.514814,2267,1,25,-1,-2,-2,0,-4,2
11.524794,2268,-4,-50,-1,-1,-1,0,-6,11
11.524808,2269,1,7,-5,-2,-3,0,-1,0
11.538434,2270,-1,-1,2,1,-2,-3,-1,-1
11.538460,2271,1,3,-1,0,0,-1,-2,4
11.539924,2272,-2,13,1,-1,0,0,-1,0
11.539941,2273,-1,-7,-1,1,0,-3,0,-3
11.561127,2274,0,-4,-3,-4,-2,-1,-1,-5
11.561156,2275,0,-10,0,-1,-1,-1,-1,-4
11.563720,2276,-1,5,0,1,-2,-2,-2,1
11.563731,2277,-1,-6,-1,-1,-2,-1,0,-4
11.574487,2278,1,9,-2,-1,-1,-1,1,-4
11.574522,2279,-2,-7,-2,-3,-2,-2,0,-2
11.585292,2280,1,-2,-1,-1,-1,-2,-1,0
11.585309,2281,6,9,4,2,-1,1,1,-2
11.598685,2282,-4,-10,-2,-1,0,-1,1,-2
11.598710,2283,2,-2,2,0,-2,0,-1,-1
11.599869,2284,0,23,3,1,-2,0,-2,0
11.599892,2285,-2,-53,-11,-3,-1,-2,0,-3
11.621833,2286,1,5,2,-2,-2,-1,0,-3
11.621874,2287,-1,-2,1,0,0,-1,-3,1
11.623942,2288,-3,4,1,-1,-2,-1,0,-1
11.623963,2289,-2,20,2,1,-1,0,-1,-3
11.634593,2290,3,-14,-4,-3,-1,-2,0,-1
11.636345,2291,-11,-8,0,-3,-3,-1,-1,-1
11.644707,2292,6,0,-6,-2,-1,-2,-1,-2
11.644718,2293,0,7,1,-1,0,-2,0,-1
11.657649,2294,-1,-5,-1,0,0,-1,-1,-1
11.657664,2295,0,4,0,-1,-1,0,-1,0
11.664353,2296,-2,-4,-1,-1,-1,-1,-1,-1
11.664373,2297,2,3,1,0,0,-1,2,0
11.681036,2298,-1,11,-2,-3,-1,0,0,-2
11.681058,2299,-1,-9,-2,-2,-2,-2,-2,0
11.682640,2300,-2,-1,0,-1,0,-1,0,-3
11.682688,2301,1,0,-2,-1,-2,1,0,1
11.694766,2302,-2,11,-2,0,0,-2,-1,-1
11.694796,2303,-5,-2,0,0,0,-1,-1,0
11.704132,2304,1,-10,-2,-2,0,-2,0,0
11.704149,2305,-1,13,2,-1,-1,-1,-3,-3
11.718884,2306,2,-5,2,0,-2,0,-2,-1
11.718906,2307,-2,-5,-12,0,-3,0,2,1
11.719889,2308,-2,-2,-1,-1,-1,-1,-2,-1
11.719895,2309,-2,0,1,-2,-1,-1,-3,1
11.740877,2310,-2,-3,0,0,-1,-1,-1,-4
11.740893,2311,-2,-5,2,-1,0,-2,-2,-4
11.742413,2312,-2,4,-2,0,-4,-1,-1,0
11.742432,2313,3,-2,-3,-3,-2,1,1,2
11.763162,2314,-2,-5,-3,1,0,-1,-1,0
11.763174,2315,4,8,2,0,-3,0,-1,0
11.764711,2316,-1,-4,1,1,-1,-2,-1,0
11.764724,2317,-4,-2,2,-2,0,0,-1,-1
11.778341,2318,0,-2,-2,0,1,1,0,2
11.778355,2319,2,3,0,0,0,-2,-2,-1
11.779786,2320,-3,-2,-1,1,-2,1,-1,-1
11.779853,2321,1,0,-1,-1,-2,-2,0,0
11.800399,2322,-3,-1,0,-1,-1,-3,-2,-1
11.800421,2323,-1,-4,0,-1,-1,-2,1,-1
11.801837,2324,1,-1,0,0,-1,1,0,1
11.801842,2325,-4,0,-2,0,0,-3,-2,0
11.831012,2326,0,-1,-1,-1,-1,-1,-1,0
11.831030,2327,1,-3,2,-1,-2,-1,-2,-1
11.832533,2328,-4,-2,-3,-2,-3,0,-2,-1
11.832539,2329,-1,3,0,0,0,-2,1,-1
11.837684,2330,2,-2,-2,-3,0,-1,-1,-2
11.837702,2331,-1,-2,3,0,-1,0,0,-3
11.845293,2332,1,-3,-9,0,0,-1,-1,-1
11.845313,2333,0,2,-1,-3,0,0,-2,-1
11.860187,2334,-2,-2,-3,-2,-1,-2,-1,2
11.860204,2335,-2,0,0,-1,-1,1,-1,-2
11.860865,2336,-2,-1,1,-1,-2,-4,-1,-1
11.860872,2337,-4,-6,-5,-2,-2,-3,-2,-2
11.883156,2338,0,-2,-1,-1,-1,-1,1,-1
11.883195,2339,-6,-4,-3,-1,0,-2,-2,2
11.885660,2340,1,3,3,-2,-2,1,-1,2
11.885676,2341,1,2,0,-1,-1,-1,-1,-3
11.897978,2342,-7,-6,-1,-1,-1,-1,-2,1
11.898008,2343,2,-1,-2,-1,-1,-2,0,-2
11.900252,2344,0,-3,-3,-5,1,-2,0,-3
11.900264,2345,1,1,1,-2,-2,0,-1,-1
11.920258,2346,2,2,-2,-1,0,0,-1,-1
11.920283,2347,0,1,0,1,0,0,-2,1
11.921005,2348,-4,-4,-2,-1,-2,-2,-1,2
11.921029,2349,5,2,-2,1,0,-2,-1,-4
11.942667,2350,-3,-2,-1,-2,-2,0,-2,0
11.942686,2351,-5,-3,-9,0,-1,1,-1,-2
11.943950,2352,-1,-2,4,-1,-1,-1,-2,-3
11.943958,2353,-2,-2,-2,-1,0,0,0,-1
11.957812,2354,2,2,1,0,-2,-2,-1,0
11.957836,2355,1,0,2,-1,-1,-3,-3,-1
11.959569,2356,1,-1,-2,0,-1,-1,-3,1
11.959584,2357,-14,-5,-1,-1,-1,-1,-3,-1
11.980504,2358,0,-4,-4,-1,-2,-1,0,-1
11.980528,2359,-1,2,-1,-2,0,0,0,-1
11.980748,2360,2,0,1,0,1,-2,-2,-1
11.980760,2361,0,3,0,0,-3,-2,-1,0
12.002834,2362,-3,1,1,0,1,-1,-1,-3
12.004984,2363,-3,-6,-4,-2,-3,-2,-1,1
12.005001,2364,-4,-3,2,-2,-2,-1,-1,-3
12.005005,2365,1,-4,-10,-1,0,-1,1,0
12.017737,2366,-3,0,6,-1,-2,-1,-1,0
12.017759,2367,6,1,-1,-2,-1,-1,1,1
12.019240,2368,-3,1,1,-1,1,-3,0,-2
12.019246,2369,-2,-3,1,-1,-1,0,-2,0
12.040104,2370,1,1,-1,-1,-1,0,-2,-3
12.040126,2371,1,-2,-2,-1,-1,1,-1,-1
12.040897,2372,-2,0,3,1,0,0,-1,0
12.040918,2373,1,-3,-1,-2,-2,-1,-1,0
12.062629,2374,1,0,1,2,0,1,-1,1
12.062651,2375,-1,1,1,-1,-1,-3,-1,-4
12.063499,2376,1,0,-3,-1,-1,-2,1,-2
12.063514,2377,-1,-3,-4,-2,0,-1,-2,2
12.077552,2378,0,-1,0,-1,-1,0,-2,0
12.078649,2379,-1,-6,-5,1,0,0,1,1
12.078663,2380,-1,0,-2,1,-1,-1,1,0
12.078665,2381,-5,-3,1,-1,-1,-1,-1,-2
12.100644,2382,-4,0,-3,-3,-2,-1,-1,1
12.100673,2383,2,-2,1,-3,0,-2,-1,-3
12.100821,2384,-1,-4,0,0,-3,1,-2,1
12.100896,2385,2,4,3,-3,-3,0,-2,-1
12.122824,2386,-3,-4,2,1,-2,-1,-1,-2
12.122842,2387,-1,3,-4,-1,0,-1,-1,-4
12.123987,2388,-2,-2,-2,-1,-2,-2,0,0
12.124009,2389,-1,4,-2,0,0,0,-1,2
12.137731,2390,2,1,5,-1,0,0,-3,-1
12.137761,2391,-1,-2,-3,-2,-2,0,-2,1
12.139197,2392,0,1,-1,-2,-2,-1,-4,-1
12.139214,2393,-5,-2,1,1,-1,0,1,0
12.160103,2394,3,-1,-8,-2,-3,-1,-1,-2
12.160121,2395,-4,9,2,-2,-1,-2,0,0
12.160753,2396,-1,-12,-2,-1,0,0,-2,-2
12.160771,2397,3,1,1,1,0,-1,-1,-2
12.182756,2398,1,-1,-3,-1,0,0,-1,1
12.182778,2399,-1,-1,0,-1,-3,-2,0,-2
12.183571,2400,-1,-1,-4,-2,-1,0,0,-1
12.183632,2401,1,6,9,0,-1,-2,0,0
12.197924,2402,-2,-4,-10,-1,0,-1,1,1
12.197953,2403,0,1,1,-1,-2,-1,-3,-2
12.199392,2404,0,3,-1,-2,-2,-1,-1,0
12.199401,2405,-1,-5,-6,-2,-3,-1,-2,-1
12.220144,2406,2,-1,-2,-3,-1,-1,0,-1
12.220155,2407,-1,-3,-2,0,-2,1,-2,0
12.220829,2408,3,0,1,-2,-3,-2,0,-5
12.220840,2409,5,-1,-2,-1,-1,-1,-1,0
12.242528,2410,-3,0,0,-1,-1,-2,0,0
12.242544,2411,-3,-4,-2,-2,1,-1,-2,-2
12.243351,2412,-1,1,-1,0,-1,-1,-1,-1
12.243357,2413,-1,-1,2,0,0,-2,0,0
12.257586,2414,-2,-1,-1,0,-2,-1,-2,-2
12.257605,2415,2,5,-2,-2,0,0,2,-1
12.258444,2416,3,-7,-2,1,0,-2,0,-2
12.258455,2417,-4,3,-5,0,-2,-1,0,-2
12.288396,2418,2,6,10,1,-1,0,0,-2
12.288448,2419,-8,-9,-4,-4,-2,-1,-3,1
12.290243,2420,-2,4,-2,1,0,-1,-1,4
12.290256,2421,0,-6,-6,-3,0,-1,-2,-2
12.302917,2422,4,1,-3,0,-1,-2,0,0
12.302939,2423,-2,0,9,1,1,-1,0,-1
12.304695,2424,2,1,-5,-5,-2,-2,1,-4
12.304709,2425,-4,0,-2,1,0,-2,0,-2
12.317321,2426,4,3,-2,0,-1,-1,-4,-2
12.317343,2427,0,-2,-4,-2,-2,-2,-1,-2
12.324500,2428,-8,-8,2,1,2,0,-2,-3
12.324525,2429,4,1,5,0,-1,0,1,-3
12.342012,2430,-3,-1,-3,-2,-1,-4,-1,-3
12.342024,2431,1,-5,-6,-1,-1,-1,0,-1
12.342026,2432,-1,6,1,-2,-1,-1,0,0
12.342028,2433,2,4,-1,-1,-1,-1,-2,0
12.362671,2434,-4,-16,-8,-1,-2,0,-1,2
12.362694,2435,0,0,-4,-2,-2,-1,-1,1
12.363627,2436,1,1,12,4,-1,-1,1,0
12.363638,2437,3,11,-7,-1,1,-1,0,-2
12.376984,2438,-8,-15,11,-1,-1,-2,0,-1
12.377001,2439,2,4,3,1,2,0,0,-2
12.384693,2440,3,24,-7,-2,0,2,1,2
12.384716,2441,0,-44,6,1,-1,-2,-1,-2
12.400552,2442,-7,1,-9,-1,0,-1,0,0
12.400581,2443,1,25,5,-1,-3,-2,-1,-2
12.402448,2444,9,-37,-1,-3,0,0,0,-1
12.402460,2445,-16,-14,-6,-4,1,0,-1,0
12.422629,2446,0,5,-1,1,-1,0,-1,-4
12.422651,2447,0,1,10,9,1,-1,-3,-1
12.423375,2448,3,8,3,-2,-4,-1,-4,1
12.423394,2449,0,12,-7,-4,-3,-2,-1,3
12.437129,2450,5,-8,-16,-6,-3,-2,-2,-3
12.437153,2451,-13,-21,9,-4,-2,1,0,-1
12.444410,2452,-4,1,1,3,0,1,-1,0
12.444432,2453,1,3,3,-4,0,0,-1,-2
12.460306,2454,-3,11,1,4,1,0,-2,1
12.460334,2455,5,13,3,3,-1,-2,1,-1
12.462194,2456,-7,-21,-29,-9,-1,-2,-2,-1
12.462206,2457,1,8,16,3,0,-2,-1,-1
12.483133,2458,5,19,8,-5,0,-1,-2,1
12.483162,2459,-7,-15,-18,-5,-2,-2,-1,0
12.485372,2460,6,-26,4,-1,-1,-5,0,-1
12.485384,2461,-9,5,-12,1,-2,0,-3,-4
12.497087,2462,-3,10,10,7,0,1,1,3
12.497109,2463,11,4,-8,-2,-2,-1,-2,1
12.504798,2464,2,-13,-2,-15,-5,-2,-1,0
12.504829,2465,4,30,-6,8,-1,-2,0,-2
12.520676,2466,-14,-45,21,2,-2,1,-1,-1
12.520708,2467,17,8,-43,-19,-2,-2,0,-2
12.522613,2468,-5,29,8,26,3,0,-3,-5
12.522626,2469,3,-1,25,0,6,4,-1,7
12.542658,2470,-6,-2,-18,-4,0,-2,-2,-3
12.542682,2471,-4,0,-2,-4,-4,-3,-1,-2
12.543539,2472,-3,-14,1,5,0,0,0,0
12.543558,2473,-10,5,-12,-4,-3,-2,-2,-2
12.565215,2474,-3,8,-5,1,0,1,-1,-4
12.565238,2475,-6,-48,15,-5,-1,-2,-2,1
12.566914,2476,-1,29,-2,-6,-1,-1,0,-1
12.566925,2477,5,-1,1,-2,-2,-3,-1,-2
12.580288,2478,6,-13,-9,-10,0,-1,-1,0
12.580311,2479,-23,-5,-5,3,0,1,-1,-1
12.582176,2480,1,10,15,0,-1,-1,-2,-5
12.582183,2481,-11,-29,0,6,2,-1,-1,-1
12.602829,2482,0,-13,-13,-8,-4,-4,0,-1
12.602854,2483,22,23,2,5,1,1,1,0
12.603568,2484,-14,-19,3,4,-2,-2,-4,-2
12.603611,2485,11,15,-28,-26,-3,0,2,-2
12.617333,2486,0,7,20,23,2,0,-1,1
12.617355,2487,1,9,7,6,2,-1,-2,-1
12.624510,2488,5,-5,-14,-6,-1,1,-2,3
12.624536,2489,1,7,21,1,-3,-1,-1,-3
12.640090,2490,-3,-1,-7,-10,-2,-3,-1,-2
12.640110,2491,-3,9,10,0,1,-2,1,-2
12.641593,2492,-2,-25,-5,-2,1,-2,0,0
12.641604,2493,6,-14,3,9,2,-1,-2,-2
12.662528,2494,-9,-1,-12,-6,-2,0,0,3
12.662548,2495,-4,11,2,-1,-1,-1,-3,0
12.663250,2496,-9,19,-6,-11,-3,1,1,-3
12.663263,2497,17,3,-1,2,-3,-1,1,-1
12.676882,2498,-17,-7,15,7,-1,-1,-1,0
12.676898,2499,-2,-8,-15,-11,-2,1,0,-4
12.684351,2500,2,44,10,8,3,1,0,4
12.684432,2501,-11,-72,6,1,-2,-2,-2,-3
12.700309,2502,7,27,-7,-3,-3,-4,-3,-5
12.700330,2503,-9,-22,17,0,-2,-2,-2,0
12.701766,2504,3,20,-3,0,-1,0,-1,-2
12.701774,2505,0,24,0,0,-2,-2,0,-1
12.722606,2506,10,14,4,-6,-2,-1,-2,-1
12.722629,2507,0,-20,-19,-2,-1,-3,-1,-3
12.723321,2508,-5,-59,-11,-3,-1,-1,-1,-5
12.723339,2509,-3,12,8,2,-2,-1,-1,-1
12.745132,2510,5,-4,-8,-7,0,0,-1,0
12.746352,2511,16,37,13,7,5,2,1,5
12.746357,2512,-19,-11,-12,-6,-3,-1,0,0
12.746359,2513,-5,5,-1,-4,-1,0,0,-2
12.760092,2514,-7,-19,-7,5,0,1,-1,-1
12.760109,2515,4,31,14,-3,-4,-1,-1,-3
12.761066,2516,10,13,-8,-4,1,-2,-1,-2
12.761077,2517,-4,-29,-11,-4,1,0,0,0
12.782693,2518,5,9,4,-1,1,0,1,-2
12.782712,2519,-8,4,16,5,0,2,0,0
12.783230,2520,-5,-23,4,0,-1,-1,-1,-2
12.783243,2521,-2,40,-14,-6,-4,-3,-3,-1
12.805392,2522,1,-11,5,8,-2,-1,0,-3
12.805415,2523,-17,-20,-15,-8,-1,0,0,1
12.807723,2524,1,25,13,1,-1,0,2,2
12.807736,2525,8,10,-8,0,-1,-1,-3,-1
12.820764,2526,3,-24,11,6,2,-1,-1,1
12.822851,2527,-3,-14,-8,-3,-3,-2,-2,-3
12.822867,2528,5,31,-14,-5,-2,-2,-2,-1
12.822869,2529,-8,-26,17,3,0,0,0,-2
12.843059,2530,14,22,-15,-11,-4,-2,-1,0
12.843077,2531,10,-13,-2,5,1,-3,-1,1
12.843815,2532,-13,-1,33,12,1,-2,-1,-1
12.843876,2533,7,11,-31,-9,-3,0,0,-2
12.865244,2534,9,20,2,-4,2,2,1,2
12.865267,2535,-11,-29,-11,9,0,0,-1,2
12.867673,2536,8,3,3,0,-1,1,-1,-1
12.867683,2537,-10,1,-4,1,0,-2,-3,-1
12.880777,2538,2,26,12,1,0,-1,-1,0
12.880806,2539,18,5,-13,-5,-2,-3,-1,1
12.882428,2540,-22,-19,-9,-5,-6,-3,-4,-4
12.882440,2541,6,31,6,-5,3,0,0,1
12.902556,2542,-14,-49,-5,-2,1,1,0,-3
12.902567,2543,1,-15,5,3,-2,1,-1,-6
12.903175,2544,7,5,-3,-9,-1,-1,0,3
12.903187,2545,9,-5,1,3,-3,-1,-1,0
12.925180,2546,-14,29,12,-2,-2,-1,-1,-2
12.925209,2547,-2,-6,0,-7,-1,0,-1,0
12.926567,2548,-2,-22,-29,1,-2,-2,0,-2
12.926579,2549,-6,5,24,2,1,-2,0,1
12.940067,2550,11,2,-6,4,3,-1,-1,2
12.940086,2551,-13,-1,-6,-1,-1,0,-2,-4
12.941136,2552,-3,18,6,-11,-2,0,0,0
12.941145,2553,-1,-42,-5,5,-1,0,-2,1
12.962518,2554,-3,-25,2,8,-4,-1,-1,-3
12.962534,2555,1,17,-10,-7,0,-1,-1,-1
12.963188,2556,6,34,15,0,3,2,-1,2
12.963207,2557,10,-5,-14,-5,-5,-1,0,-2
12.985279,2558,-6,29,19,-5,-4,-1,-1,-3
12.985310,2559,0,-51,-7,4,3,0,-3,1
12.987468,2560,4,-8,11,1,-2,0,2,-2
12.987479,2561,-12,14,2,9,0,0,-2,0
13.000569,2562,-1,-7,-27,-19,0,-1,-1,3
13.002828,2563,-10,26,4,3,1,0,3,-2
13.002840,2564,20,-16,1,0,1,-1,-3,0
13.002842,2565,0,-6,-5,0,-2,-1,0,-2
13.023491,2566,1,5,3,4,-4,-3,-2,-2
13.023505,2567,-9,2,-12,-7,0,-1,-1,0
13.023507,2568,-4,-61,0,-1,0,-1,-3,-2
13.023508,2569,0,23,-4,4,-4,-1,1,-3
13.045096,2570,0,-17,-2,-10,-2,-2,-2,-3
13.045113,2571,15,31,12,8,3,1,-1,1
13.046039,2572,-26,6,-12,-4,-3,-1,-2,-1
13.046048,2573,4,-10,19,7,5,1,-3,-1
13.060171,2574,13,1,-11,-8,-6,-3,-1,0
13.060188,2575,-17,-5,20,2,-3,-3,0,1
13.061156,2576,9,39,-2,9,2,2,1,1
13.061164,2577,-15,-33,6,-10,-4,-2,-3,-1
13.084151,2578,-7,0,4,1,2,-2,-3,1
13.084168,2579,8,1,-11,-3,-1,0,-2,-1
13.084172,2580,3,1,-9,-8,-2,0,0,-1
13.084175,2581,3,37,30,8,0,-1,-2,-3
13.105205,2582,-27,-41,-27,-9,-3,0,-1,-2
13.105228,2583,-1,6,10,-1,1,-1,-2,-2
13.106629,2584,-5,-19,0,4,1,1,-3,-2
13.106648,2585,7,-1,-12,-5,0,-2,0,-2
13.122428,2586,15,5,-4,5,-2,-2,-1,-2
13.122449,2587,-30,4,-6,-5,-3,-4,-1,-2
13.122512,2588,4,-6,2,-3,-1,-2,-1,-2
13.122518,2589,6,-23,4,3,4,0,0,0
13.142608,2590,9,24,-2,-1,-1,-1,0,4
13.142625,2591,0,0,-7,-6,-7,-2,0,-4
13.143747,2592,-10,14,13,3,4,-3,-3,-1
13.143760,2593,-12,-13,-22,-4,0,-2,0,2
13.165017,2594,-1,27,25,6,4,1,0,-1
13.165039,2595,0,-55,0,-6,-4,-2,0,0
13.166009,2596,-6,4,-17,-6,-6,-1,0,-6
13.166015,2597,1,26,12,0,2,1,0,-1
13.190051,2598,-6,-22,2,6,2,1,-2,0
13.190067,2599,13,9,-6,-2,-1,-1,0,-1
13.190068,2600,10,7,-6,-4,-3,-1,-1,4
13.190148,2601,5,4,-16,-8,-4,0,2,3
13.203048,2602,-16,-36,7,2,2,1,0,28
13.203077,2603,13,17,3,2,0,0,-2,63
13.205427,2604,-17,-17,-2,3,1,-2,-3,25
13.205441,2605,12,13,-9,2,-1,-1,-1,-38
13.225027,2606,6,24,-5,-4,-1,2,0,-32
13.225046,2607,-39,-22,14,7,2,0,-1,-39
13.225924,2608,9,-2,-9,-5,-5,-1,1,-28
13.225945,2609,-10,-7,-3,-5,0,-4,-2,-22
13.242188,2610,7,5,-18,5,5,3,2,-38
13.242200,2611,9,11,9,-3,1,0,0,-9
13.242411,2612,0,19,-7,-5,-1,-1,3,8
13.242588,2613,-8,-29,15,-5,-5,-1,0,12
13.262564,2614,1,-7,-10,-1,-5,-2,0,14
13.262588,2615,12,25,-12,-2,-2,0,3,10
13.263490,2616,-18,-22,10,-2,-1,0,-1,4
13.263496,2617,15,5,-14,4,-2,-1,-1,7
13.285449,2618,-20,-11,-3,0,-1,-2,-1,11
13.285477,2619,9,0,16,1,0,0,1,0
13.286198,2620,-2,12,-4,-2,0,-1,3,-13
13.286217,2621,-3,-22,-9,-8,-3,0,-2,11
13.299883,2622,7,12,-1,6,2,0,-3,3
13.299912,2623,-2,-23,5,-7,-6,-3,-3,-8
13.307682,2624,19,21,6,9,3,0,-5,-7
13.307710,2625,-12,2,-8,-2,2,-1,-5,9
13.322988,2626,7,-1,11,-1,-1,-2,-1,1
13.323024,2627,11,-1,-13,-2,-4,-2,-5,-4
13.324911,2628,-3,8,5,-3,-2,-2,-4,-3
13.324923,2629,-4,-4,-1,-3,-4,-2,-4,3
13.345010,2630,-4,1,4,-3,-2,-2,-5,-8
13.345032,2631,3,7,-3,-5,2,1,-1,1
13.345716,2632,-2,-3,2,5,0,-1,-1,-7
13.345729,2633,-1,7,6,1,-2,-2,1,-3
13.359519,2634,12,-4,-7,5,0,0,-1,5
13.359543,2635,-7,-5,-6,0,-1,-3,1,-2
13.367500,2636,13,5,6,-1,-1,1,1,2
13.367515,2637,-33,1,-7,-5,-1,2,0,-2
13.382746,2638,-1,-8,7,1,-1,-1,-1,5
13.382775,2639,1,8,1,3,1,1,-1,-3
13.384639,2640,-5,1,-10,-9,-2,0,0,1
13.384645,2641,8,3,-1,5,0,-2,-1,4
13.405261,2642,1,-2,-8,-6,-2,0,-1,6
13.405288,2643,-5,-13,-5,1,-1,-2,-3,-3
13.406130,2644,-2,-34,-8,-3,-1,0,1,4
13.406161,2645,-2,6,4,-2,0,-2,-3,1
13.419759,2646,-7,8,-6,-3,-1,0,0,-3
13.419788,2647,0,17,7,2,-2,-1,-1,-4
13.427691,2648,6,4,3,2,2,0,-1,-1
13.427708,2649,2,-8,-2,2,0,-3,-1,2
13.442583,2650,-2,4,-5,-5,-2,-2,-1,-3
13.442602,2651,-20,-5,-11,0,-2,0,-1,1
13.443660,2652,5,-18,11,3,-2,-2,1,-2
13.443671,2653,-12,1,-2,1,0,0,2,4
13.464834,2654,0,-6,7,-9,0,-4,-1,-3
13.464846,2655,2,8,-4,6,-1,-2,-1,-2
13.472708,2656,-5,-9,-9,-1,-1,0,-1,-1
13.472726,2657,10,13,-6,-2,-2,-1,-2,-5
13.479358,2658,-17,-36,-1,-5,-3,-3,-2,0
13.479380,2659,19,22,6,-4,-1,-1,0,-3
13.488107,2660,-9,-11,-5,1,1,1,0,3
13.488139,2661,8,-29,-6,-1,-1,0,0,0
13.503080,2662,3,17,-6,-5,-6,-1,0,2
13.503122,2663,-1,-6,0,1,0,-1,-2,-3
13.504853,2664,10,29,5,3,4,-2,-3,-2
13.504871,2665,-26,-18,5,-4,-5,0,-1,1
13.525264,2666,1,-9,-10,-2,0,1,0,-3
13.525275,2667,12,23,5,7,1,-3,-1,-1
13.525829,2668,-7,-38,-7,0,2,0,-2,-1
13.525902,2669,3,14,-6,-2,0,-2,-1,0
13.540557,2670,-3,0,12,1,-4,-1,-3,-3
13.540570,2671,-4,6,-3,-8,-1,-2,0,0
13.547583,2672,4,6,-1,-1,-2,0,-1,-2
13.547604,2673,-6,-1,2,-1,0,0,0,1
13.562592,2674,1,-7,-6,-2,-3,-1,0,-1
13.562615,2675,9,-30,2,1,3,1,0,-2
13.563604,2676,-9,5,3,-2,-3,-3,0,-2
13.563620,2677,16,7,-5,-2,-1,0,0,-4
13.586617,2678,-3,27,12,3,2,0,0,0
13.586627,2679,-8,-40,-12,-10,-5,-2,-3,-4
13.586629,2680,8,3,2,11,4,0,0,-2
13.586631,2681,7,16,0,-3,-3,-3,-1,-2
13.601373,2682,3,-8,8,1,2,-2,-2,-2
13.601385,2683,-10,2,-11,-6,-2,0,-4,-2
13.607643,2684,7,-6,3,6,2,-1,-2,0
13.607665,2685,-6,-7,-5,-1,0,0,-2,3
13.622573,2686,3,17,-17,0,-3,0,-2,-1
13.622590,2687,-3,5,24,3,-1,1,1,0
13.624484,2688,-15,-33,-3,-5,-4,-1,-2,1
13.624496,2689,-6,-13,-6,-2,0,0,-1,0
13.645725,2690,-4,-5,-9,-5,-3,-1,-1,0
13.645741,2691,-2,5,-9,-3,-2,-1,-2,-1
13.645912,2692,13,31,-6,-5,-2,0,1,-3
13.645949,2693,-10,-7,24,6,1,-1,-1,-5
13.667500,2694,9,-4,-7,-6,-2,0,-1,-2
13.667527,2695,4,6,-2,1,-1,1,0,2
13.676440,2696,-20,-3,5,-5,-4,-2,1,0
13.676454,2697,23,6,-6,0,5,0,-1,0
13.682789,2698,5,0,0,2,0,-3,1,0
13.684544,2699,-37,11,3,-7,-1,-2,-2,-2
13.684558,2700,0,-21,-6,8,1,-1,0,-2
13.684612,2701,-2,-2,-1,-3,-4,-2,-1,1
13.705342,2702,3,13,7,3,3,1,-1,3
13.705372,2703,8,-10,-5,2,-2,0,-2,-1
13.707457,2704,-5,-10,-16,-16,-6,-3,-2,0
13.707469,2705,-4,23,22,8,4,2,0,-3
13.728367,2706,8,-14,3,1,0,-1,-2,3
13.728389,2707,-13,-32,-11,0,-1,-1,-1,1
13.728971,2708,-24,12,-2,-4,-3,-2,0,-3
13.728986,2709,4,7,2,0,-1,-1,-1,0
13.742555,2710,-5,1,-8,-3,-2,-1,-2,0
13.742575,2711,24,9,10,1,2,0,0,0
13.743295,2712,15,0,-7,-1,0,-2,-1,3
13.743308,2713,-23,-10,3,-2,-4,-1,-3,0
13.765321,2714,8,-1,-1,-2,-1,-1,0,-2
13.765350,2715,-4,4,-3,0,-1,-1,0,0
13.767721,2716,15,11,12,3,2,1,-1,-2
13.767733,2717,-1,-8,-5,2,-1,-2,-1,0
13.788510,2718,-12,-4,-2,-4,-1,-2,1,1
13.788529,2719,3,25,-9,-3,-2,-4,-2,0
13.790616,2720,1,-44,9,0,-3,-1,-3,1
13.790629,2721,-7,13,-10,-4,-2,-1,-1,-3
13.802894,2722,6,-6,-1,5,2,2,-1,3
13.802919,2723,-1,-5,-3,2,0,0,-1,0
13.803332,2724,9,24,-8,-7,-4,-3,-1,-2
13.803344,2725,1,-30,-7,-5,-3,1,-1,-2
13.825854,2726,-4,9,3,1,0,1,-1,-1
13.825873,2727,3,10,-2,2,2,-1,0,0
13.826993,2728,12,28,4,-2,1,1,-1,0
13.827004,2729,-46,-58,-15,-3,-3,-3,1,-3
13.848856,2730,11,-6,2,-2,-5,-2,-1,-6
13.848881,2731,-1,-5,1,0,-2,-1,1,-3
13.849403,2732,4,8,-1,0,-4,-3,0,-2
13.849423,2733,15,22,1,-5,2,0,-2,-1
13.862724,2734,-7,-5,-5,-2,-1,-2,1,0
13.862743,2735,-4,22,-2,1,1,-1,-1,-2
13.863255,2736,-4,-49,2,-12,-4,0,-2,-1
13.863274,2737,14,56,-6,11,-1,-1,1,-1
13.886079,2738,-9,-61,14,4,2,0,-4,0
13.886113,2739,6,3,-7,0,-1,-1,-1,-3
13.888419,2740,-2,20,2,1,2,0,-2,-1
13.888435,2741,4,1,2,-4,0,-1,0,-2
13.908299,2742,-11,14,-7,-4,-2,-3,0,-2
13.908328,2743,-3,-14,-4,0,-4,-2,-1,1
13.908963,2744,-9,-8,-1,-4,-4,-1,0,-1
13.908976,2745,-5,-4,3,1,2,1,-2,2
13.922790,2746,1,15,-2,1,1,0,-1,-1
13.922809,2747,8,-4,8,-2,-1,0,-2,-1
13.923663,2748,7,17,-4,0,0,0,-1,-2
13.923685,2749,0,-11,3,-2,-3,-3,0,-1
13.953174,2750,-2,5,1,-2,1,-3,-2,-1
13.953193,2751,-4,1,-5,-6,-4,0,-2,-6
13.953808,2752,3,-23,-6,3,1,2,0,3
13.953814,2753,3,10,6,1,-1,0,-2,3
13.968500,2754,-9,10,-1,4,1,0,1,-3
13.968518,2755,8,-3,7,-2,-1,-2,1,0
13.968999,2756,-18,7,-9,3,0,0,0,-5
13.969065,2757,8,20,-3,-2,-3,-1,-1,0
13.982645,2758,-3,-34,6,-2,-2,0,-1,1
13.982664,2759,2,2,0,2,1,0,-1,1
13.983214,2760,-7,-1,0,-2,0,-1,-1,-2
13.983227,2761,1,-7,-7,-5,-3,0,-1,0
14.006046,2762,6,24,-1,-6,-3,-2,1,-2
14.006079,2763,9,-5,1,3,1,-1,-2,-1
14.007288,2764,-38,-18,4,-2,-3,-1,-1,2
14.007299,2765,-1,9,-6,-1,2,-2,0,-1
14.028201,2766,7,-21,0,2,-2,-2,-2,-5
14.028219,2767,-8,-13,-2,-3,-1,-3,-2,2
14.029040,2768,5,19,3,2,0,-1,-1,-3
14.029105,2769,0,-9,-7,-4,-4,-1,-2,-1
14.042613,2770,0,20,-3,-6,-2,-1,1,1
14.042625,2771,-14,-29,6,3,1,-1,-1,-1
14.043294,2772,11,4,-1,2,1,-1,-1,1
14.043361,2773,3,-11,-2,-2,-2,1,-2,-2
14.066065,2774,-5,2,-6,-3,-2,0,0,0
14.066095,2775,4,14,-4,-2,-1,-2,0,-2
14.068286,2776,5,7,-6,-3,-2,-3,-3,0
14.068293,2777,3,-11,5,-1,-1,-1,-1,-2
14.089450,2778,-4,3,9,1,-2,1,-2,3
14.089468,2779,-9,-1,-6,4,2,0,-1,3
14.089470,2780,6,3,4,-3,-2,-1,-3,1
14.089472,2781,-24,-4,-3,-1,-2,0,0,3
14.104798,2782,-12,6,-3,0,1,-1,-1,-2
14.104811,2783,3,-20,4,-2,-3,0,0,-1
14.104813,2784,-3,0,-10,1,0,-1,1,0
14.104815,2785,9,8,2,2,0,-1,-1,1
14.125097,2786,-3,5,6,-1,-1,-3,-1,1
14.125188,2787,-8,-11,-9,-3,-1,1,1,0
14.126116,2788,9,15,6,-4,-2,0,3,-1
14.126141,2789,-10,-2,-2,3,0,0,0,-2
14.150677,2790,7,16,-7,0,-1,-1,-3,-3
14.150688,2791,2,-17,9,2,1,0,1,-2
14.150690,2792,0,-1,-1,-2,-2,-1,-1,1
14.150691,2793,-14,3,-1,-4,-1,-1,0,-2
14.162574,2794,0,-23,-4,0,-1,0,-1,-1
14.162597,2795,3,16,-2,-1,-1,0,-1,0
14.163429,2796,3,20,8,1,2,2,-1,-5
14.163444,2797,1,-11,1,1,0,-1,-2,-1
14.186008,2798,-6,0,-6,-3,-2,-2,-1,-4
14.186021,2799,-6,9,-4,-3,-4,-3,-3,-2
14.187721,2800,-3,-21,-4,1,1,-1,-2,-1
14.187778,2801,12,-5,1,-2,-2,-1,0,-1
14.208346,2802,-8,-4,-8,-4,-4,-2,-4,0
14.208370,2803,2,2,-2,-3,-2,-1,-1,0
14.209399,2804,7,16,6,2,-1,-2,1,-2
14.209412,2805,6,-2,-10,-3,-2,-1,-2,0
14.222442,2806,4,-25,-8,1,0,-1,1,-3
14.222474,2807,-13,4,0,-2,3,0,-1,-3
14.230639,2808,7,17,-1,-2,-3,-1,-2,-3
14.230667,2809,10,-19,3,-1,-1,0,0,-2
14.245155,2810,1,16,0,1,2,1,1,1
14.245170,2811,12,-3,-7,0,-1,-1,1,-2
14.245748,2812,-18,-12,-1,0,-1,0,-2,-3
14.246566,2813,5,-5,-1,-1,-2,-2,0,-2
14.268416,2814,-10,1,-2,0,0,-1,0,1
14.268439,2815,-15,10,4,0,0,-1,-2,2
14.270324,2816,-3,-24,-11,-2,0,-3,-1,0
14.270342,2817,1,-16,-1,0,0,0,0,2
14.282375,2818,5,0,-7,-2,-3,-1,2,-2
14.282404,2819,1,20,6,-3,-2,-2,-2,-3
14.290338,2820,-2,9,3,0,0,-1,1,2
14.290354,2821,-2,-26,-13,-3,0,-1,-3,-2
14.305471,2822,-9,24,13,2,-2,0,-1,-2
14.305500,2823,7,-42,-11,-7,-4,-3,-1,-4
14.305996,2824,-7,-9,-3,1,-1,0,-2,-2
14.306011,2825,11,19,10,8,3,1,0,2
14.328358,2826,-1,13,1,-1,2,-1,-2,-2
14.328380,2827,6,-1,-2,-1,-1,0,-1,3
14.329230,2828,-1,5,-3,-2,-3,-2,-1,0
14.329238,2829,-10,-8,-5,-3,-2,-3,-1,-3
14.342011,2830,8,-3,-1,-1,-1,0,-2,-3
14.342028,2831,0,6,-4,0,-1,-1,0,-2
14.350171,2832,-5,-7,2,-1,0,1,0,0
14.350194,2833,-7,8,1,-2,-1,1,-2,-2
14.365142,2834,2,3,-6,-2,-3,-3,2,0
14.365159,2835,3,-16,0,1,1,0,-2,-2
14.365839,2836,9,1,-9,1,-1,-2,0,0
14.365846,2837,-17,10,11,-4,1,-1,0,-3
14.388640,2838,8,-13,1,5,0,0,-1,-1
14.388671,2839,-17,1,-4,0,0,0,-1,-2
14.390568,2840,2,14,4,-2,0,-1,-3,1
14.390579,2841,7,1,5,-3,-2,-2,0,-1
14.402101,2842,8,-1,3,-3,-2,0,-1,1
14.402124,2843,7,9,3,3,0,-3,0,2
14.410173,2844,-2,-7,-3,-1,-1,-2,-2,-2
14.410225,2845,-7,-15,-7,-3,-1,-2,0,1
14.425054,2846,0,3,4,-3,-3,0,-1,3
14.425072,2847,9,10,9,1,-1,-1,-1,-3
14.425907,2848,-20,7,6,0,-3,-1,1,-3
14.425927,2849,15,-14,-8,-14,-2,-1,-1,-1
14.448390,2850,-5,-3,-3,5,-1,-3,-3,0
14.448413,2851,-2,0,-14,-8,-4,-3,-2,0
14.449288,2852,18,-1,15,4,3,0,-1,2
14.449303,2853,-26,14,2,11,-2,0,-3,-1
14.461958,2854,18,22,2,-2,1,0,0,-1
14.461982,2855,-20,-48,-3,-4,-1,1,-3,-3
14.470166,2856,12,4,0,0,1,0,1,-3
14.470190,2857,18,19,-1,1,-1,-3,0,0
14.485495,2858,-7,-23,-13,-4,-3,-2,-2,-2
14.485519,2859,4,25,3,-1,-2,0,-1,1
14.492704,2860,-6,0,11,-2,0,0,-2,0
14.492734,2861,2,-12,-5,0,-1,-2,-1,1
14.508891,2862,-6,-2,1,0,-1,0,-2,-2
14.508918,2863,-1,7,-10,-5,-2,-1,-2,0
14.509729,2864,-8,9,8,1,-2,-1,0,2
14.509747,2865,2,-47,-12,-1,-1,-1,0,-1
14.522217,2866,-11,1,4,-2,2,0,0,-1
14.522265,2867,-1,4,-6,0,0,-3,0,-2
14.529998,2868,-1,4,-17,-5,-1,-1,-3,-2
14.530020,2869,-1,20,22,2,0,-1,-1,0
14.544965,2870,-3,1,-1,1,-1,-2,-2,0
14.544978,2871,-3,-23,5,4,1,1,0,-1
14.545795,2872,5,-5,-10,-6,-2,-2,-1,-3
14.545860,2873,-7,9,-13,-6,-6,-3,-2,-3
14.568632,2874,-1,-1,6,0,2,-1,-1,-1
14.568661,2875,2,40,11,5,2,1,0,1
14.570313,2876,-6,-69,-5,-2,-2,-1,-2,0
14.570322,2877,6,18,0,-1,0,1,-2,1
14.590859,2878,8,1,-2,-5,-4,-3,-1,-2
14.590881,2879,-1,8,-5,2,0,-1,1,-1
14.591532,2880,-8,3,-3,-1,-1,1,-1,-4
14.591605,2881,2,1,-3,0,-2,0,-1,-3
14.605309,2882,3,0,5,-3,-1,0,0,0
14.605335,2883,-1,-10,-2,-2,0,0,-2,-1
14.605937,2884,-7,-3,-1,0,-1,-1,-1,-2
14.605957,2885,4,7,1,0,1,-1,-1,0
14.628155,2886,-3,-4,-7,0,-1,0,-1,-3
14.628172,2887,-5,-4,6,-2,-2,-1,-2,-1
14.628949,2888,-5,13,-6,-1,-1,1,0,0
14.628955,2889,-1,-8,-6,2,1,-2,-3,-2
14.650828,2890,-4,-5,-6,-4,-1,1,1,-1
14.650845,2891,1,-6,6,-1,-1,0,-1,-2
14.651431,2892,2,7,-1,3,1,-1,1,1
14.651443,2893,-3,13,2,6,-1,1,1,-1
14.673288,2894,-5,-3,-8,-1,-3,-1,-2,-1
14.673314,2895,0,-11,-3,-3,-3,-2,-1,-2
14.674435,2896,1,21,-7,-3,-3,-3,1,-1
14.674447,2897,-16,-15,7,-2,0,1,-2,-5
14.688565,2898,3,-28,-4,-2,0,-1,-1,-2
14.688594,2899,-15,0,-7,-2,0,0,-1,0
14.690337,2900,0,13,5,-2,0,-2,-3,1
14.690409,2901,2,-26,-4,-1,1,0,0,-1
14.710723,2902,-1,13,1,0,0,0,-1,-1
14.710737,2903,0,-1,-1,0,-1,0,-1,-1
14.711318,2904,1,3,0,0,-1,-1,0,0
14.711341,2905,3,15,2,0,0,-1,1,0
14.725642,2906,-12,-9,1,-2,0,-3,-1,-1
14.725655,2907,7,2,3,-2,-1,-1,-1,-1
14.733651,2908,-20,-15,-2,0,-2,1,-2,-1
14.733662,2909,9,9,-2,-3,-3,-2,-1,-4
14.748299,2910,-3,-5,-3,-1,-3,-2,0,-3
14.748321,2911,1,7,1,2,-1,-3,-1,0
14.749717,2912,-1,-8,-3,-2,-1,-1,-2,1
14.749756,2913,9,9,-2,0,-1,-1,1,-2
14.770790,2914,-7,-16,-2,-2,-1,0,-2,-1
14.770804,2915,2,0,-8,-4,-1,-2,-1,-2
14.772474,2916,-3,0,12,1,0,0,0,-3
14.772499,2917,-3,18,9,-1,-2,-1,-1,1
14.785260,2918,-1,5,-4,-1,-3,1,-1,0
14.785276,2919,3,-4,2,-3,-2,-1,1,-1
14.793951,2920,2,14,-13,-1,1,-2,-2,-1
14.793962,2921,-11,-32,11,1,-1,-1,-2,1
14.808325,2922,1,12,4,1,0,-2,-2,-2
14.808343,2923,1,-7,-6,-1,-1,0,2,1
14.809856,2924,3,5,3,-2,-4,-4,-4,0
14.809990,2925,-24,-7,-10,-2,-1,0,-1,-1
14.831538,2926,8,-1,-2,-3,-1,0,-1,1
14.831550,2927,-4,8,5,2,1,-1,-2,0
14.832295,2928,8,-10,-4,-2,1,-2,0,-1
14.832311,2929,1,4,-9,-1,-2,-2,-1,1
14.844333,2930,0,9,5,1,-1,0,-1,-3
14.844348,2931,-6,-45,-8,-2,-2,-3,-1,-2
14.854097,2932,3,-7,-4,-3,0,0,-1,0
14.854110,2933,0,10,2,-2,1,-1,-2,-3
14.868410,2934,0,9,-3,-1,0,-1,0,2
14.868431,2935,2,13,2,2,-1,-2,0,0
14.870795,2936,-9,-16,-10,-1,-2,-1,0,-1
14.870810,2937,8,-2,-4,-2,-1,0,1,1
14.891494,2938,5,2,-2,-2,-1,-1,0,0
14.891507,2939,-1,1,2,0,0,-1,-4,-2
14.892236,2940,2,-1,-1,-2,-2,-1,-2,-1
14.892252,2941,5,37,2,1,-1,0,0,-1
14.905018,2942,-2,-73,-9,-7,-3,-2,1,-3
14.905038,2943,6,11,11,4,2,0,0,-2
14.914927,2944,0,2,2,-2,-2,-2,-1,1
14.914939,2945,3,13,-5,-4,-2,-2,-1,0
14.928324,2946,2,16,3,4,0,-1,0,-1
14.928346,2947,-4,-1,-1,-3,-3,1,1,2
14.929722,2948,-8,-2,-3,-2,-1,0,0,-5
14.929755,2949,6,-9,-3,-2,1,0,1,1
14.951924,2950,-6,5,-3,0,-1,-2,-1,-2
14.951942,2951,-2,4,5,-1,-1,-2,-3,-2
14.952172,2952,10,3,4,1,0,-1,-1,-3
14.952204,2953,-9,-28,-10,-5,-4,-3,-1,-1
14.964728,2954,-3,20,-1,-1,0,0,-1,1
14.964758,2955,-4,11,1,-1,-2,0,-2,2
14.974773,2956,7,-5,0,0,1,-1,0,1
14.974785,2957,-24,-4,1,-1,-3,-2,-1,-3
14.988059,2958,5,3,-2,1,0,-2,0,-2
14.988073,2959,1,-4,-4,-4,1,0,-1,-1
14.994486,2960,-6,1,2,1,1,0,0,-1
14.994503,2961,9,-23,-6,-3,-3,-2,-2,-3
15.010837,2962,-1,12,11,4,1,0,0,0
15.010853,2963,-1,-7,-8,-1,-1,0,-1,0
15.012292,2964,-3,20,6,0,1,0,-1,-6
15.012307,2965,3,4,3,1,0,-1,1,0
15.024416,2966,-7,-6,-7,-2,0,0,-1,-2
15.024438,2967,8,19,3,-2,-3,-3,0,-2
15.034880,2968,-10,-16,-11,0,-2,-1,-1,-1
15.034897,2969,3,2,-3,-2,-1,0,-2,0
15.048842,2970,-3,-1,3,-1,-2,-2,-3,-3
15.048868,2971,-7,-5,-1,-1,0,0,1,-3
15.050698,2972,-3,1,-4,-3,-4,-1,-2,-2
15.050706,2973,-1,0,9,-1,1,1,0,-1
15.071580,2974,0,-11,-5,-1,-1,-3,-2,2
15.071611,2975,3,6,-5,-4,-2,0,0,-2
15.074140,2976,3,-1,4,0,-2,-1,0,0
15.074155,2977,-3,-1,-10,0,0,-3,-2,-1
15.084950,2978,1,15,5,-2,-3,-1,0,-2
15.084979,2979,8,-3,-14,-3,-1,0,0,-1
15.099578,2980,3,-15,2,-2,-2,-2,1,1
15.099597,2981,0,8,1,0,-1,0,-2,-2
15.108297,2982,-2,-1,-2,0,-2,-1,-3,0
15.108319,2983,-1,-27,-1,-2,-1,-1,0,-1
15.109799,2984,3,6,-1,1,-2,-1,-1,-4
15.109811,2985,-4,7,3,-2,-1,-2,-1,-5
15.131557,2986,3,1,-2,-3,-2,0,-1,0
15.131587,2987,-5,6,-6,-1,0,-2,-2,1
15.133784,2988,-6,-2,-2,-1,-1,-1,-2,0
15.133795,2989,2,-21,6,-1,1,-1,-2,1
15.144825,2990,-4,5,-1,2,-2,0,-1,-3
15.144854,2991,-5,-5,-3,1,0,-1,2,-1
15.161062,2992,1,-3,-4,-1,1,-1,-2,-2
15.161074,2993,5,27,7,-1,-1,1,-1,0
15.168587,2994,-7,-26,7,-3,0,-2,-1,-2
15.168609,2995,3,6,-3,-1,0,0,-3,-3
15.170263,2996,1,-8,-2,1,-1,-2,0,-1
15.170270,2997,0,24,-5,-1,-1,0,-1,-2
15.190854,2998,-27,-6,-4,-4,0,-1,1,0
15.190870,2999,-1,-10,5,3,0,1,-1,5
15.192310,3000,-1,7,-4,0,-1,-1,0,0
15.192378,3001,4,-13,-8,-1,-2,0,0,-1
15.204753,3002,2,2,1,1,-2,-2,-2,-1
15.206440,3003,-2,2,3,-4,-1,-1,-1,0
15.214528,3004,-4,12,1,-2,0,-1,-1,-1
15.214539,3005,0,-45,-7,0,-2,-2,1,2
15.228453,3006,5,2,-6,-5,-2,-1,-2,-3
15.228481,3007,-3,16,2,0,-2,0,0,-1
15.229805,3008,6,-2,2,0,-2,-2,1,-1
15.229811,3009,-7,-7,-6,0,-2,-1,-3,-1
15.251129,3010,4,12,1,0,1,-1,-1,2
15.251158,3011,-2,-8,-2,0,-1,0,-1,-2
15.252723,3012,-2,3,1,-3,-1,1,1,2
15.252728,3013,0,7,8,1,-1,-1,-2,-2
15.264664,3014,-4,-4,0,-1,-3,0,-2,-1
15.264693,3015,-2,23,0,0,1,-2,-1,-1
15.282157,3016,-4,-61,-4,0,-1,-1,-1,-1
15.282167,3017,1,8,-2,-3,-1,-1,-3,1
15.288265,3018,-3,-6,-4,-1,0,0,-1,2
15.288285,3019,2,5,7,-1,-4,-4,-1,-2
15.289987,3020,-19,1,-3,-2,-1,0,-2,-1
15.290003,3021,5,9,-1,-1,-1,-1,1,-1
15.310954,3022,1,-23,-2,-2,-1,-2,-1,-1
15.310985,3023,-1,0,-6,-2,-3,0,-1,0
15.312877,3024,3,30,-2,-2,-1,-1,1,1
15.312882,3025,-5,-57,-1,-3,-2,-2,0,-4
15.324422,3026,2,16,-3,1,-1,-1,-2,0
15.324438,3027,-1,0,0,0,0,-2,-2,-2
15.342324,3028,4,-4,4,1,-3,0,-3,-1
15.342340,3029,-2,16,-1,0,-2,-1,1,-1
15.348344,3030,7,7,1,-1,-1,-1,1,1
15.348362,3031,-1,-18,-2,-3,-3,0,-2,-1
15.349694,3032,-2,6,2,-2,-1,-2,0,-1
15.349710,3033,-2,4,-7,3,0,-1,0,-1
15.371122,3034,8,1,7,-2,-1,0,-1,-4
15.371146,3035,-10,-4,-2,-2,-1,-3,-1,0
15.373003,3036,-5,-4,-1,0,0,-1,0,0
15.373015,3037,1,28,-3,-2,-2,-2,-1,0
15.384841,3038,1,-51,-4,0,0,-1,-2,-4
15.384871,3039,-1,2,0,-2,-1,0,0,-3
15.394932,3040,2,3,1,-1,-1,0,-1,-2
15.394944,3041,-2,5,1,-2,1,-1,-1,1
15.409423,3042,-5,15,-2,0,-3,-3,-3,0
15.409435,3043,2,-5,-2,-1,0,-1,0,-2
15.409823,3044,0,-7,0,-2,-2,-1,-2,-2
15.409857,3045,-2,-6,-1,-2,-1,-1,0,-1
15.431052,3046,2,10,-3,0,-2,-2,1,-2
15.432744,3047,-2,-9,-1,-2,0,-2,-2,-1
15.432749,3048,1,10,0,-1,-1,0,-2,0
15.432751,3049,-1,1,1,0,-2,0,-3,0
15.444684,3050,1,3,0,0,0,0,0,-1
15.444713,3051,-3,-4,-2,-1,-3,-2,-1,0
15.454702,3052,-3,-6,-5,-3,-1,-2,-1,0
15.454722,3053,1,-3,-2,-2,0,-2,-1,-2
15.470903,3054,-3,-1,-1,-1,0,0,-1,-1
15.470915,3055,-1,2,0,0,0,-1,0,0
15.470918,3056,2,31,-2,-1,1,1,2,-1
15.470919,3057,0,-43,3,0,-1,-1,-2,-3
15.490941,3058,-5,9,-3,-2,0,-1,-2,0
15.490964,3059,1,-4,-3,0,-1,0,-1,-1
15.492949,3060,2,2,-2,-1,-2,-3,-1,-2
15.492960,3061,1,11,-2,0,-1,-1,0,0
15.505289,3062,2,4,0,-1,-2,-1,-2,-1
15.505322,3063,-2,-4,1,0,-1,0,-2,-1
15.515163,3064,-2,-12,1,2,1,-1,-2,-1
15.515175,3065,-4,10,-1,-2,-3,1,-2,-2
15.528317,3066,0,-6,-2,0,-1,-2,-1,1
15.528339,3067,1,7,-1,-1,-2,-2,-2,0
15.529789,3068,-2,-15,-2,0,-2,-1,-2,0
15.529838,3069,-1,32,-2,-2,-2,-1,0,-2
15.551234,3070,-3,-22,-6,-3,1,0,-1,-1
15.551260,3071,1,4,7,1,-1,0,2,2
15.552832,3072,1,-4,-1,-1,-2,-2,-1,0
15.552845,3073,2,10,-3,1,0,-1,0,-3
15.573398,3074,-4,8,-4,-2,-2,-1,0,-1
15.575426,3075,-3,-4,-3,-1,-1,-1,-2,-4
15.575440,3076,-3,-2,1,-2,-2,-1,-2,-1
15.575443,3077,-1,-13,2,0,-2,-1,-1,0
15.588478,3078,2,4,-3,0,-1,0,0,-2
15.590361,3079,-2,-7,0,-1,-1,-1,1,-1
15.590376,3080,-1,4,1,-1,-1,2,-1,-2
15.590378,3081,-1,-3,-3,-2,1,-1,-1,-2
15.609891,3082,-3,12,4,0,-2,-1,0,-2
15.609907,3083,1,-28,-7,-1,0,-1,0,2
15.619410,3084,-5,2,-3,0,-1,-1,0,-1
15.619427,3085,-3,-2,2,0,-1,-2,-3,-1
15.633237,3086,1,-1,-3,-1,0,0,-1,0
15.633259,3087,1,14,8,1,0,0,-1,0
15.634735,3088,5,-4,-1,-1,-2,-1,1,0
15.634740,3089,-3,-11,-1,0,-1,0,0,1
15.648445,3090,0,11,3,0,0,-1,-1,-1
15.648473,3091,3,6,-3,1,-1,0,-3,-1
15.650256,3092,-12,-28,-1,0,-1,0,-2,-3
15.650266,3093,5,7,-2,-2,1,1,-2,0
15.671193,3094,0,-4,-3,-2,-1,-2,-2,-2
15.671214,3095,-2,1,-1,-2,-1,-2,0,-3
15.672682,3096,2,-2,4,0,-1,-1,-1,0
15.672704,3097,-2,32,-2,-1,1,-1,1,-2
15.693342,3098,-3,-60,-2,-1,-2,-2,-1,1
15.693361,3099,1,5,-3,-4,-1,-1,-2,0
15.694867,3100,0,7,-3,-2,-1,-2,-1,1
15.694942,3101,3,4,3,-1,-1,-1,0,-3
15.707583,3102,-2,12,-9,-2,-1,0,-3,1
15.707600,3103,-1,-2,-2,0,-2,-3,0,-3
15.722097,3104,-6,-7,0,-2,-2,0,-1,1
15.722118,3105,-6,-10,-1,0,-1,0,-2,2
15.730933,3106,4,7,1,-1,-1,-1,0,-3
15.730944,3107,0,-5,-5,0,-2,-1,0,-2
15.732137,3108,5,8,-1,-1,1,-1,0,-4
15.732144,3109,-9,-15,-1,-2,-2,-3,-3,-2
15.753195,3110,-3,5,-2,0,-1,-1,-3,-3
15.753215,3111,-3,30,4,0,-2,0,0,0
15.754786,3112,4,-55,-2,0,-2,-1,-1,-3
15.754805,3113,1,1,-2,-2,-1,0,-1,1
15.767511,3114,-4,6,-2,-1,-1,-3,1,-2
15.767532,3115,0,1,0,1,-1,-1,-1,-1
15.774367,3116,-4,14,-1,-2,-1,1,-2,1
15.774392,3117,2,-5,-2,-1,-1,-1,-2,0
15.791458,3118,-3,2,3,-2,-1,-2,2,0
15.791469,3119,0,-6,-3,-2,-1,0,-2,-1
15.792226,3120,-3,13,5,1,-1,-1,0,0
15.792334,3121,-3,-11,-4,-2,-1,-1,-1,0
15.813956,3122,3,9,9,-1,0,1,0,1
15.813985,3123,-1,-5,1,-1,0,1,-1,-1
15.816207,3124,2,1,-3,-1,-3,-1,-1,-1
15.816219,3125,-3,17,-9,-3,-1,-2,0,-3
15.827603,3126,-5,-47,-3,2,-1,-1,0,0
15.827626,3127,-1,-4,-2,-2,-1,0,0,0
15.834746,3128,3,12,0,-2,0,-1,0,2
15.834767,3129,1,-4,4,0,0,-1,-1,-2
15.852275,3130,-1,19,-1,-2,0,0,-3,-2
15.852286,3131,-5,-10,-2,-1,0,-2,-1,-2
15.852288,3132,0,-2,-2,-1,0,-3,-2,-1
15.852290,3133,1,-1,3,1,-1,0,0,-1
15.873254,3134,3,4,-2,-1,-2,-2,0,-1
15.873279,3135,-4,-6,1,-1,0,-1,-2,2
15.874849,3136,0,8,0,-1,1,-1,0,-1
15.874889,3137,-3,-7,1,-3,-1,0,-1,-2
15.898119,3138,-1,15,1,1,0,1,0,0
15.898131,3139,-2,-25,-3,-2,-3,-2,-1,-1
15.898133,3140,0,-1,-3,-1,-3,0,-1,-3
15.898135,3141,4,-2,2,-1,-1,-1,-1,2
15.911017,3142,-1,3,1,-1,0,0,-3,-2
15.912709,3143,0,15,-2,-1,0,-1,-1,-1
15.912721,3144,2,-1,-1,0,1,-1,0,-1
15.912723,3145,1,-12,-4,0,-1,-1,-1,0
15.933345,3146,0,14,1,0,-2,-1,0,-1
15.933371,3147,-5,-5,-4,-2,-2,-1,-2,2
15.935185,3148,1,0,0,-2,0,-2,1,-4
15.935196,3149,3,27,2,0,-1,-1,-1,1
15.947507,3150,-3,-51,-3,-3,-3,-2,-3,-1
15.947524,3151,-3,3,-1,-2,0,-1,-2,-2
15.954355,3152,-2,1,0,-1,-3,0,-1,-1
15.954376,3153,0,7,2,0,0,-3,1,-1
15.970783,3154,-1,14,0,-2,-1,-1,-1,0
15.970807,3155,4,-5,-4,-1,-1,0,1,-1
15.972934,3156,-4,3,-2,0,0,-1,0,-2
15.972948,3157,-3,-11,3,0,1,-1,1,-1
15.993564,3158,1,3,-2,-1,-1,0,-1,0
15.993667,3159,-3,-5,-1,-1,-4,0,-2,-1
15.994701,3160,-1,5,1,-1,-1,-2,-1,-3
15.994714,3161,-2,-13,-3,-2,-2,0,-1,0
16.007533,3162,5,2,-3,-1,-1,-2,-2,0
16.007549,3163,-5,4,1,-1,-1,-3,-1,0
16.014839,3164,-3,-2,-3,-1,-1,1,2,0
16.014868,3165,2,-8,-4,-3,-3,-1,-1,-1
16.031363,3166,-2,7,1,0,0,-1,0,-4
16.031392,3167,2,1,-1,-1,1,0,-1,-2
16.032922,3168,-1,-5,1,-1,-1,-3,-3,1
16.032931,3169,1,-6,-6,-1,-1,-1,-3,0
16.053227,3170,-4,10,10,0,0,-2,-2,0
16.053252,3171,-2,-1,0,-1,0,0,1,1
16.054962,3172,-1,-3,0,-2,-1,-2,-1,-1
16.054987,3173,0,0,-2,-1,-2,0,-1,-1
16.066976,3174,0,-2,-5,1,-2,-1,-1,-1
16.067065,3175,-1,-1,-2,-2,-2,-2,1,-1
16.076060,3176,-2,-2,-2,-1,-2,-1,-2,-1
16.076072,3177,-4,-3,-1,-1,-1,-1,-1,1
16.090687,3178,0,2,-2,-3,-2,-1,-1,-2
16.090704,3179,2,-1,2,0,-1,-2,-2,-4
16.092329,3180,3,0,-2,0,-2,0,-2,0
16.092347,3181,-2,-7,1,-2,-1,-2,-2,-3
16.114014,3182,-2,1,2,-1,-1,0,-1,0
16.114039,3183,0,3,-1,1,0,-1,-2,-1
16.114835,3184,-1,-1,-1,-1,0,-1,0,-2
16.114853,3185,-2,-2,-2,0,-1,-2,1,-2
16.126976,3186,1,3,-2,-2,-1,-1,-1,0
16.126994,3187,1,0,-1,-2,-2,0,-1,0
16.136587,3188,-1,0,0,-1,-2,1,-1,-2
16.136598,3189,0,-2,2,-1,0,0,0,0
16.150679,3190,0,-3,-7,-2,0,0,0,-1
16.150696,3191,-1,-1,2,-1,-1,0,0,1
16.152126,3192,-3,1,8,1,-1,-2,-2,4
16.152133,3193,0,0,0,-2,0,-2,-1,-2
16.173845,3194,-2,-3,-3,-1,-3,-2,-1,-1
16.173862,3195,3,0,-2,-1,-1,0,0,-1
16.175280,3196,-4,-1,-2,-1,0,-1,-2,0
16.175287,3197,-1,-1,-2,1,-3,0,0,1
16.187800,3198,-5,-1,0,1,-1,0,-1,-3
16.187819,3199,-3,-1,0,-2,-1,-1,-1,-2
16.195895,3200,-2,-1,-2,-1,-2,-1,-1,-2
16.195952,3201,-1,4,-1,-1,0,-1,0,-1
16.210853,3202,-6,-5,0,-1,1,1,0,-1
16.210871,3203,2,0,0,-2,-2,0,-2,0
16.212247,3204,-2,-4,-3,-3,-2,0,-2,0
16.212309,3205,-1,0,-3,0,-1,2,0,0
16.233251,3206,1,1,8,0,-3,-1,0,-1
16.233268,3207,-1,2,-2,-1,0,0,0,-1
16.234627,3208,-1,-5,-3,-2,-2,0,-1,-1
16.234635,3209,1,-3,-2,-1,-1,-3,-1,0
16.247540,3210,2,4,-3,0,-1,-1,1,-1
16.247551,3211,-2,-3,-1,-1,0,-1,1,1
16.257335,3212,4,-1,-6,-2,0,0,1,-2
16.257350,3213,-5,-1,3,1,-1,1,0,-4
16.270785,3214,-2,-2,-2,1,-2,-1,-1,1
16.270810,3215,-1,-1,0,-1,-1,-2,-2,-2
16.272412,3216,-5,-5,-2,0,0,1,0,1
16.272431,3217,2,-1,-1,-1,-1,0,0,0
16.293156,3218,0,-2,-2,-3,-1,-2,-1,-3
16.293167,3219,-1,2,-1,-1,-1,1,-2,-2
16.294834,3220,4,4,-1,-1,-1,-1,-1,-2
16.294846,3221,-5,-5,-2,-2,-1,0,-4,2
16.307400,3222,-1,1,-6,-3,0,-1,-1,-2
16.307415,3223,-1,-4,-1,1,-1,-3,-3,-2
16.322224,3224,2,-3,1,-1,-1,-2,0,-3
16.322405,3225,-1,6,2,-1,-1,0,-1,-1
16.330783,3226,-3,-6,-7,-2,0,-1,-1,4
16.330804,3227,-3,1,-2,-3,-1,-3,-1,-1
16.332157,3228,-4,0,0,0,-2,-2,-1,0
16.332167,3229,4,3,3,-2,-1,-1,-1,-1
16.353217,3230,-1,-4,-2,-1,-2,0,1,-3
16.353256,3231,2,-1,4,1,-2,-1,0,-1
16.354901,3232,-2,2,-2,-1,0,0,-2,-1
16.354924,3233,-2,-1,-3,0,-2,-2,-3,-2
16.367768,3234,-1,0,0,-2,-1,-4,-2,-2
16.367780,3235,0,-2,-1,-1,-1,-2,-1,-2
16.376672,3236,-1,0,-7,-1,1,-1,3,-1
16.376685,3237,-2,0,9,-2,0,0,-1,0
16.390880,3238,2,-1,-2,1,1,0,-2,1
16.390898,3239,-4,-3,0,-2,-3,-2,-2,0
16.392169,3240,-4,0,1,0,-4,-2,-3,0
16.392181,3241,-1,-2,-4,0,-1,0,-1,-2
16.414006,3242,-7,-1,1,-2,-1,-1,-1,-3
16.414021,3243,1,0,-1,-1,0,0,-1,-1
16.414917,3244,-3,-1,-1,-1,-1,0,-2,0
16.414927,3245,-1,0,-1,-1,0,-3,0,0
16.426949,3246,1,2,1,-1,-3,-1,-2,0
16.428664,3247,-2,1,-3,-3,-1,0,0,-2
16.437911,3248,-1,-3,0,-1,0,-1,-2,0
16.437925,3249,-3,-4,-4,-1,1,-1,0,-1
16.451166,3250,3,1,0,0,0,-1,-3,0
16.451186,3251,3,0,-2,0,0,1,-2,-1
16.452665,3252,2,-1,-1,-2,-1,-1,0,1
16.452678,3253,-5,-5,-3,-3,-3,-5,0,-1
16.473649,3254,2,-1,-1,-1,-1,-1,-1,1
16.473663,3255,-5,-2,0,-1,-2,-2,-2,-2
16.474912,3256,2,2,1,0,-1,0,-2,-2
16.474929,3257,-3,0,-4,-1,-1,-1,-2,-3
16.496523,3258,-3,-5,-3,1,0,-1,0,0
16.496545,3259,-3,-1,1,-1,-1,-2,-2,1
16.498087,3260,-2,-2,1,-1,-2,-1,-3,-1
16.498096,3261,0,-2,-2,-2,-1,1,-1,0
16.510941,3262,-2,-1,-4,-1,-2,-2,-2,-3
16.510963,3263,0,-3,-1,0,0,1,1,-2
16.512731,3264,-5,-1,-1,-1,0,-2,-1,-2
16.512738,3265,3,0,-3,-1,0,1,0,0
16.534510,3266,-2,0,-3,-1,-1,0,-1,-2
16.534521,3267,-2,-2,-2,0,-1,-2,-2,0
16.534658,3268,0,0,-2,-1,0,-1,-1,-1
16.534687,3269,-4,-1,3,-1,-1,-1,0,-2
16.555829,3270,-2,-4,-2,0,-2,-2,-2,-2
16.555854,3271,2,0,-6,-2,-1,-1,-1,-2
16.557297,3272,-4,-3,-3,0,-2,-1,-1,-2
16.557316,3273,3,-1,7,1,0,2,-3,0
16.571155,3274,-8,0,0,-1,-2,-2,-1,-3
16.571178,3275,-3,-4,0,-1,0,-2,-1,0
16.576997,3276,1,2,-2,-3,-1,-1,-2,-1
16.577018,3277,2,-3,-4,-1,0,-2,-1,-5
16.594216,3278,3,3,2,-1,-2,0,-1,0
16.594227,3279,-7,-3,-1,-2,-1,0,-1,-1
16.594691,3280,-2,-2,-2,-1,-1,-3,2,0
16.594697,3281,0,1,5,0,-1,-4,-2,0
16.616079,3282,-1,-3,-4,-1,1,-2,1,-2
16.616100,3283,0,4,3,-1,-2,-2,-3,-2
16.618368,3284,1,0,0,-1,-2,-2,-1,0
16.618375,3285,-2,0,-2,0,-1,1,-1,0
16.630222,3286,3,-1,-5,-2,-1,0,-1,-1
16.630246,3287,-1,1,1,0,-1,-1,0,-3
16.637260,3288,-2,-7,-4,-3,-1,-1,-1,-1
16.637287,3289,0,2,1,1,-1,-1,-1,1
16.655028,3290,2,1,6,1,-2,-1,-2,0
16.655041,3291,-1,0,-3,1,-2,1,-1,0
16.655044,3292,0,0,1,0,-2,-1,-2,0
16.655045,3293,1,0,-4,-1,-2,-1,-1,-1
16.675921,3294,0,2,1,-2,-1,-1,-1,-3
16.675937,3295,-1,0,-1,0,-1,0,1,-2
16.677334,3296,-1,-1,-1,-1,0,-1,0,-1
16.677357,3297,1,-6,-6,-4,-2,0,-1,0
16.690191,3298,2,2,2,-1,-1,-1,0,0
16.690215,3299,1,-3,-2,-2,0,-1,0,1
16.697097,3300,-3,3,3,1,-1,-1,-1,-2
16.697207,3301,-2,-2,-3,-1,-1,-1,-1,-2
16.713399,3302,-1,-1,1,-2,0,-2,-1,2
16.713421,3303,-2,2,4,0,-2,-2,-1,-1
16.715014,3304,3,-1,-2,1,1,1,-1,0
16.715030,3305,0,-2,-1,-2,-2,-1,-1,0
16.736406,3306,-3,-3,-3,-2,-1,-1,-3,-1
16.736427,3307,-4,-3,-6,0,-1,-2,-2,-1
16.738212,3308,0,3,6,1,0,0,-1,0
16.738226,3309,-3,-1,-2,-2,-3,-1,0,-1
16.750902,3310,0,0,0,-2,1,-2,0,-1
16.750920,3311,1,1,-4,-4,0,-2,0,-1
16.756937,3312,-9,-7,-1,-2,-1,-2,-2,-1
16.756953,3313,-1,0,-7,-1,0,-1,0,0
16.773507,3314,-1,0,1,0,-2,-1,-1,-2
16.773531,3315,1,0,0,-1,-2,0,0,-2
16.775316,3316,5,2,2,0,-1,-1,-1,-1
16.775325,3317,-4,-4,-9,-1,0,-1,-2,3
16.795988,3318,-4,-1,5,-1,-1,0,-1,0
16.796202,3319,2,0,-1,-1,0,0,-3,3
16.797150,3320,2,3,-2,-2,-2,-1,0,-4
16.797155,3321,-2,-2,2,2,1,-2,0,-2
16.810208,3322,2,1,-4,-1,-1,-1,-2,-2
16.810226,3323,-4,-3,-3,-2,-1,-2,-1,-1
16.817092,3324,-2,-3,-3,-4,-2,0,-2,-1
16.817111,3325,2,1,-2,0,-2,0,-1,-2
16.833551,3326,-7,-3,-1,-1,2,2,-1,0
16.833572,3327,-4,-5,1,-1,-3,1,-1,-4
16.834643,3328,-3,0,-9,-4,-2,-3,-3,1
16.834650,3329,-1,0,-1,-1,-2,-3,-1,-3
16.855887,3330,0,-1,2,1,-1,0,-1,-1
16.855938,3331,0,4,-4,-1,1,-1,-1,-1
16.857398,3332,4,-8,0,1,-1,-1,-1,0
16.857504,3333,-4,-1,1,0,-1,-1,-1,-2
16.870101,3334,0,-2,-1,-2,-1,-2,0,1
16.870119,3335,-3,-2,5,0,-3,-1,0,0
16.876970,3336,2,6,1,1,-1,0,2,0
16.876987,3337,1,1,1,-1,-1,-1,-2,0
16.893243,3338,-1,-6,-6,0,-1,0,-1,1
16.893261,3339,-3,-3,-5,-5,-1,-2,-1,-2
16.894792,3340,-1,1,3,-1,-1,1,3,-3
16.894806,3341,1,-1,-2,-2,-1,-2,0,0
16.916329,3342,-6,3,-1,0,-2,-2,-2,-1
16.916354,3343,3,0,-9,-3,-2,-1,-1,1
16.917332,3344,0,-7,0,0,-1,-1,-3,-2
16.917351,3345,2,0,-1,-3,-2,-1,-1,-1
16.930555,3346,-3,-4,-1,-1,-2,-1,0,-1
16.930637,3347,3,1,2,2,0,-1,-1,-2
16.936897,3348,-1,21,1,-2,-1,-3,1,-1
16.936913,3349,0,-19,3,2,-1,-1,0,2
16.952408,3350,3,-9,-5,-2,0,-3,-3,-2
16.952430,3351,-5,31,6,-1,-1,-1,-2,-1
16.961313,3352,-1,-61,-5,-2,-2,-1,-2,-1
16.961325,3353,-4,13,-5,-2,-2,-2,0,-3
16.975765,3354,3,12,2,-2,-3,0,-1,-2
16.975783,3355,-6,-23,-4,1,2,1,-1,-3
16.977367,3356,7,34,1,0,-1,0,-2,-1
16.977385,3357,-3,-17,12,1,-1,0,-2,-2
16.989554,3358,1,-2,-4,-3,-1,-2,3,1
16.989648,3359,2,4,-6,-1,-1,-2,-1,-3
17.004554,3360,-4,2,1,-3,-2,-1,0,0
