timestamp,emg1,emg2,emg3,emg4,emg5,emg6,emg7,emg8,label
2.002187,-14,-10,2,1,6,-3,6,-5,2
2.002456,-9,56,-2,-1,0,0,7,7,2
2.017179,3,-16,5,1,-14,17,2,7,2
2.017202,42,27,-2,-3,17,-17,7,-32,2
2.018473,-78,-56,-6,-1,13,-14,-4,14,2
2.018477,-11,-19,-6,-6,-9,24,-4,-11,2
2.040472,35,51,4,3,19,4,-5,30,2
2.040495,-63,-53,2,-1,-36,-10,-8,-39,2
2.041209,127,30,-9,-6,0,5,29,40,2
2.041228,-58,-64,-2,2,8,-14,-7,14,2
2.054223,-57,43,2,1,-2,-2,-6,-66,2
2.054244,24,-38,0,-1,4,-9,-5,-8,2
2.062211,-42,9,0,0,-5,44,-1,-13,2
2.063253,-36,-25,-1,-2,-7,-3,-2,-11,2
2.077743,34,74,11,5,0,4,-4,41,2
2.077787,55,-17,-1,1,6,17,7,-11,2
2.079929,-40,34,4,-1,-3,-21,10,-18,2
2.079935,-93,-47,-15,-4,2,-12,-6,5,2
2.100303,18,45,4,-1,-2,8,-1,-6,2
2.100315,-5,6,-8,-4,3,13,-2,-6,2
2.100977,-25,-10,3,0,1,-4,-12,3,2
2.100986,48,32,2,0,-3,1,-3,-15,2
2.113922,-10,-4,-4,-2,1,-15,3,1,2
2.113939,-60,-24,-8,-2,-9,-13,-3,12,2
2.122422,-28,-83,-8,-2,-13,-7,-5,-3,2
2.122451,47,34,7,2,13,-3,-6,-25,2
2.137377,66,-22,-1,-1,-7,14,23,18,2
2.137405,16,3,-5,-5,-4,-25,-14,2,2
2.138931,-2,22,-4,2,8,2,-10,11,2
2.138935,-3,50,6,-2,-24,13,7,10,2
2.160705,12,-15,-7,-3,1,-4,-6,-9,2
2.160711,56,-4,-2,-2,-9,-15,5,15,2
2.160713,-22,25,5,1,3,16,-2,-12,2
2.160715,-12,25,-2,-3,6,-5,-7,-22,2
2.174364,63,13,0,-1,1,-10,-10,-19,2
2.174384,-24,-23,-3,-1,-4,4,9,4,2
2.182601,0,-22,-1,-3,3,-14,-5,-2,2
2.182625,33,57,2,1,4,-4,-6,-20,2
2.197414,15,-34,4,3,-5,1,1,29,2
2.197436,-96,7,3,-1,-25,5,-8,-26,2
2.197906,67,-1,-4,-1,22,4,10,53,2
2.197938,12,-21,-3,-3,6,-1,-23,-64,2
2.220556,-48,-25,-10,-7,-20,-18,11,-6,2
2.220580,-3,-8,-4,-3,-3,-1,-5,-7,2
2.222122,26,-14,4,1,-6,-5,0,20,2
2.222128,-22,31,7,0,0,6,6,22,2
2.234046,-16,-12,-4,-4,3,3,-17,-56,2
2.234064,89,82,5,0,7,-4,5,21,2
2.242387,-32,-55,-5,-1,-7,-32,-9,-47,2
2.242412,46,2,-8,-3,19,45,15,58,2
2.257520,-110,-29,7,3,-12,-65,-23,-21,2
2.257575,-33,-24,-16,-2,-8,4,-4,-7,2
2.258263,42,39,0,-2,2,-13,11,11,2
2.258276,-15,-26,1,2,-1,53,-6,5,2
2.280874,-64,4,-4,-2,-2,24,18,24,2
2.280988,49,122,15,3,4,-11,-18,11,2
2.282733,-25,-116,-12,-3,2,-15,-8,-70,2
2.282737,-16,-9,-4,2,2,-2,4,22,2
2.294005,35,35,0,-5,-14,2,1,-6,2
2.294027,-89,16,-1,0,2,-1,-22,-58,2
2.302904,64,-8,2,1,8,43,9,-5,2
2.302915,-31,4,11,4,-16,-19,7,31,2
2.318981,-43,17,-9,-2,12,5,-9,-52,2
2.318989,-12,31,7,1,8,-8,6,18,2
2.318991,5,9,-3,-3,-51,-22,-10,30,2
2.318992,74,-76,-2,1,37,-12,2,-36,2
2.340523,-16,-17,1,-1,4,-2,-1,23,2
2.340541,66,-15,0,-3,-2,7,1,-10,2
2.341586,-20,37,8,2,-2,12,-1,15,2
2.341590,65,56,4,0,-15,-26,9,13,2
2.364938,-25,-73,-7,0,16,24,2,28,2
2.364942,49,-41,-5,-3,-2,16,-5,-37,2
2.364944,-51,20,2,-1,7,7,13,0,2
2.364946,-11,-5,-7,-3,9,-18,-5,-68,2
2.380102,-9,36,1,-2,-15,1,7,34,2
2.380106,20,6,4,3,2,-28,-4,22,2
2.380108,0,-39,0,2,5,2,-1,14,2
2.380110,-38,-3,-3,-2,-5,4,5,-13,2
2.400339,-70,-51,-6,-3,13,51,-8,-11,2
2.400362,49,-19,-4,0,-6,-40,10,21,2
2.402495,44,4,-9,-9,0,47,-13,-33,2
2.402501,-58,-2,1,0,5,-12,-7,-23,2
2.423024,69,43,3,0,-12,7,-6,28,2
2.423048,-18,-97,-7,-1,7,10,9,9,2
2.425859,-3,35,1,2,12,-8,6,25,2
2.425864,-117,-54,-5,-2,-23,-18,-6,17,2
2.437554,50,67,10,3,6,0,0,-27,2
2.437599,5,-1,-11,-6,5,-11,-12,-51,2
2.440174,-74,-3,3,3,-4,21,8,16,2
2.440199,85,6,-6,-5,10,-14,-13,-6,2
2.460338,8,19,6,2,-13,17,14,-24,2
2.460356,-33,22,6,0,2,-3,-2,12,2
2.461059,31,-18,-10,-6,24,-10,-5,2,2
2.461075,41,-11,0,-1,-20,-3,16,-19,2
2.482874,100,-2,-2,2,12,-14,-9,20,2
2.482897,44,-8,-3,-1,-3,17,0,-9,2
2.483719,40,21,5,-2,-14,-13,2,3,2
2.483723,4,29,2,0,2,2,-5,3,2
2.497479,22,-22,0,-1,-6,-16,2,-18,2
2.497511,-70,-75,-8,-4,-9,30,13,49,2
2.499703,-3,7,0,1,3,-7,-7,-23,2
2.499944,15,-16,-7,-3,-34,2,-19,-13,2
2.522550,80,81,3,-2,1,-58,-10,68,2
2.522559,-119,-71,-7,-3,-4,-4,-6,9,2
2.522561,14,2,-3,-2,-3,-8,-5,-4,2
2.522563,-14,6,1,0,0,8,4,5,2
2.542946,28,-31,-3,0,4,3,-2,8,2
2.542970,8,58,8,1,-1,4,0,2,2
2.545140,62,27,3,-1,-3,-19,-5,-9,2
2.545145,-67,-30,0,1,-6,-2,-1,17,2
2.557641,7,-19,5,1,9,5,3,2,2
2.557689,36,-24,-5,-2,3,2,7,1,2
2.558727,16,17,5,0,-7,0,-17,-64,2
2.558732,34,17,-3,0,7,2,5,-23,2
2.580614,-68,-72,-5,-2,8,36,20,49,2
2.580644,-4,31,4,0,5,-10,-14,-62,2
2.582791,18,5,-1,-4,-12,0,-6,34,2
2.582798,-55,54,2,-1,39,-10,2,-31,2
2.603072,7,-68,-9,-1,-6,-10,6,-30,2
2.603089,19,32,3,1,3,5,1,38,2
2.603786,-16,-3,2,0,-3,-12,1,-20,2
2.603817,-21,-3,-5,-6,-22,5,-7,-1,2
2.617225,26,27,-1,-1,-11,4,-8,22,2
2.617245,-3,21,3,2,12,-4,2,-25,2
2.617949,18,34,2,3,5,42,-9,18,2
2.617972,14,-64,-4,-4,-40,-18,33,18,2
2.639851,-26,20,-4,-6,22,2,-12,-59,2
2.639874,69,26,7,3,-10,-5,-5,36,2
2.641115,-120,-77,-24,-11,1,4,7,-21,2
2.641120,22,-11,-2,2,17,11,-8,19,2
2.662881,-64,48,8,4,-38,-9,5,-29,2
2.662896,9,21,-4,-3,44,1,12,-5,2
2.663656,68,101,5,0,-9,-15,0,30,2
2.663704,36,-81,-4,0,11,2,-7,27,2
2.678487,-11,7,-4,-1,-10,-15,10,-34,2
2.678491,-31,39,1,3,-9,-3,-3,32,2
2.678494,59,-97,-2,0,-5,1,5,3,2
2.678496,17,23,6,0,12,2,-3,-4,2
2.699696,69,66,9,4,11,34,-6,-11,2
2.699723,-93,-28,-12,-6,-19,-43,-9,35,2
2.701174,-51,-36,-11,-5,-2,-11,-10,-30,2
2.701186,6,5,-5,-3,-7,1,-5,-19,2
2.723675,15,-29,-1,-2,6,-2,-2,28,2
2.723682,28,52,10,3,2,16,3,-11,2
2.723733,-35,13,0,1,-8,-11,0,18,2
2.723772,-28,-3,-2,-1,4,-7,-9,-1,2
2.738775,-11,46,1,-3,46,-1,-2,-21,2
2.738787,15,-18,-4,-1,-37,-7,7,-17,2
2.738789,-8,-92,-6,-4,-4,-69,-2,27,2
2.738791,90,81,17,4,3,-1,7,16,2
2.760088,-79,-106,-23,-9,-7,-7,-3,9,2
2.760119,-29,-7,-5,-4,-1,5,-10,-35,2
2.761968,43,82,3,1,11,15,2,-25,2
2.761977,85,-91,-5,0,-12,1,-2,35,2
2.782922,-55,22,-1,-3,-14,-28,-12,9,2
2.782946,-9,19,3,1,14,25,2,-8,2
2.783918,89,16,1,2,-14,-9,1,47,2
2.783923,-120,-22,-4,-3,2,27,-15,-53,2
2.796647,47,14,0,1,-10,4,11,30,2
2.796672,14,-31,-4,-2,-36,-12,-8,1,2
2.804973,2,54,12,4,46,32,15,13,2
2.805013,-52,41,3,3,-3,-20,-9,0,2
2.820345,-33,-12,-9,-2,-11,6,-13,-54,2
2.820371,127,-39,-3,-2,-9,9,-8,-13,2
2.821080,-104,-23,-4,-4,-11,-54,-5,-34,2
2.821107,33,-9,-3,-1,4,3,11,12,2
2.842875,31,6,5,0,-2,-4,-8,-13,2
2.842896,23,45,2,-1,-10,-9,3,50,2
2.844001,10,8,0,0,14,32,-4,14,2
2.844006,-36,-41,-1,-3,-20,0,-1,-1,2
2.857484,22,16,1,3,45,-17,-3,27,2
2.859361,-7,-51,-2,-1,-3,11,6,-12,2
2.859370,-49,25,12,3,-2,12,-2,3,2
2.859373,-8,-3,-5,-2,-12,-10,11,-12,2
2.880562,12,-59,-8,-5,-12,2,-7,44,2
2.880577,-79,-17,-4,-1,12,4,-2,-12,2
2.880579,7,15,-5,-2,-5,4,1,5,2
2.880581,51,37,9,4,6,8,-2,24,2
2.903069,-33,34,3,-2,-13,-2,-5,-9,2
2.916965,-30,-41,-5,0,17,-28,2,-5,2
2.916972,61,73,12,2,-12,43,1,-1,2
2.916974,-28,-87,-19,-8,3,12,-4,6,2
2.916979,-68,-61,-6,-2,-13,9,-1,-39,2
2.916982,-8,77,6,-3,-23,-33,-1,0,2
2.925149,-65,-42,3,3,10,3,4,-2,2
2.925177,89,63,-1,-1,3,-2,-5,21,2
2.939853,15,48,-3,-2,11,-6,15,13,2
2.939879,89,-86,-1,-1,-11,23,2,-51,2
2.941743,66,-19,-1,0,-2,-12,-1,21,2
2.941770,32,69,0,-4,10,-16,-3,-5,2
2.962848,-50,-5,0,5,2,-1,-8,-15,2
2.962873,8,59,-2,-4,4,18,-2,-1,2
2.963710,12,30,5,3,-2,-8,18,7,2
2.963795,31,-104,-22,-10,-8,19,-9,25,2
2.976919,-3,65,8,4,-3,2,2,-15,2
2.976999,-1,25,-4,-3,-12,5,2,24,2
2.984849,-31,-8,-1,0,4,-49,-17,-25,2
2.984875,-3,36,9,4,-7,54,22,4,2
2.999631,-48,40,2,-2,-5,-2,0,4,2
2.999648,-2,-57,-7,-2,10,-4,-12,-45,2
3.000763,-37,-16,-1,-2,-7,15,-4,9,2
3.000888,-56,-41,1,1,-5,-47,-9,-20,2
3.023068,61,25,4,2,-12,0,19,-7,2
3.023141,-14,-37,2,1,11,13,0,-14,2
3.023736,41,-15,-4,-4,-21,-4,-6,-4,2
3.023932,-48,10,-6,0,29,-3,-3,28,2
3.036776,-4,27,0,-4,-4,-9,-13,-18,2
3.036800,56,-77,-2,1,10,-6,6,42,2
3.045048,-100,-6,-9,-6,-10,9,0,-21,2
3.045070,-87,12,3,2,-10,-3,-2,-35,2
3.059773,70,-11,-2,-1,-4,7,-5,15,2
3.059790,27,82,6,0,10,-3,-13,33,2
3.060535,37,-1,-5,-4,-11,3,5,-14,2
3.062288,17,-16,3,2,-2,-2,-4,1,2
3.083085,60,12,-2,-4,-2,-4,-3,13,2
3.083103,3,58,5,2,-4,-2,2,27,2
3.085506,2,-53,-9,-2,4,5,2,-6,2
3.085515,22,46,8,1,-5,-13,-9,-39,2
3.096729,-50,-40,0,-2,10,7,-5,4,2
3.096751,-26,22,-8,-3,5,-10,22,29,2
3.104846,-37,-2,-2,0,-22,-10,0,-36,2
3.104868,16,6,-1,0,7,9,9,19,2
3.119733,45,76,1,-1,-14,-2,-5,-17,2
3.119751,-21,-68,1,2,37,12,-1,-5,2
3.120735,-15,14,0,-1,-1,-5,-4,17,2
3.120758,67,-23,-8,-6,-18,-21,-11,-11,2
3.142927,23,-24,1,2,3,21,15,23,2
3.142949,-51,-20,-4,-3,-6,-3,-7,-20,2
3.144020,-29,0,2,4,11,3,0,-11,2
3.144024,80,33,-2,-2,-10,-3,-11,31,2
3.156878,-9,-24,3,1,0,1,15,5,2
3.156920,-23,77,8,2,0,6,2,-42,2
3.166032,23,-78,-4,-3,-1,0,-9,18,2
3.166036,-97,-9,-13,-3,-13,-2,-3,-11,2
3.180341,-29,-51,-2,2,14,-4,-6,-1,2
3.180381,-11,33,-3,-4,-50,-4,-1,5,2
3.182451,-4,12,-4,-2,72,4,4,34,2
3.182456,-31,27,9,2,6,-6,-2,-45,2
3.203731,51,-22,-4,-3,-25,-2,3,-4,2
3.203766,-19,18,0,-4,-7,-26,-11,-11,2
3.203775,63,-7,4,2,0,60,9,-1,2
3.205943,-10,-16,-7,-4,0,17,0,21,2
3.216487,1,-28,-4,-2,3,6,-18,-7,2
3.216508,2,3,3,2,19,-3,9,-10,2
3.224758,-3,122,-1,-3,-41,-27,-8,-19,2
3.224775,-18,-22,-3,0,38,10,4,-8,2
3.239837,11,4,9,4,-3,-2,-4,22,2
3.239897,10,22,-10,-3,23,3,-9,-65,2
3.241231,38,-7,11,6,-1,-10,2,22,2
3.241235,-71,-46,-11,-7,-34,-7,-10,-6,2
3.262907,2,4,-8,-5,1,-16,10,1,2
3.262928,-35,5,2,-1,-15,4,-4,26,2
3.263643,-15,12,2,1,0,-10,3,-21,2
3.263656,1,26,8,3,6,-5,2,10,2
3.285698,1,-4,2,1,-6,-16,-5,5,2
3.285719,95,41,6,4,-1,25,15,18,2
3.288675,-86,-107,-22,-6,-5,-27,-25,-10,2
3.288682,45,35,-3,-3,-9,20,17,4,2
3.299811,-100,-54,-6,-3,5,-1,-5,-5,2
3.299832,63,12,5,1,2,7,-5,24,2
3.300889,38,20,1,1,11,3,-2,-27,2
3.300892,4,-3,1,0,-4,-9,2,-4,2
3.322936,51,99,4,-1,17,-10,-5,33,2
3.322944,-45,-121,-12,-4,32,20,-5,27,2
3.323679,30,-60,-13,-6,-20,29,3,-6,2
3.323699,8,28,7,2,10,-5,9,-9,2
3.345659,-2,20,2,0,-31,0,-1,6,2
3.345680,42,25,5,3,12,-8,3,7,2
3.346567,6,25,0,-2,3,4,-7,-21,2
3.346575,59,20,10,4,4,5,-1,31,2
3.359684,-82,-85,-8,-3,2,-4,7,8,2
3.359702,-32,-49,-15,-8,-8,-3,0,-23,2
3.361158,-3,40,3,0,-4,-28,-2,-4,2
3.361163,47,30,7,2,-12,-4,-3,-8,2
3.382846,-15,-18,-6,-3,3,-3,-1,-15,2
3.382868,29,-69,-8,-3,-13,-10,-12,-14,2
3.383916,45,17,2,1,-16,-7,1,22,2
3.383920,-33,30,2,0,48,0,-1,-4,2
3.405404,55,19,6,3,-7,9,-2,16,2
3.405422,11,10,-1,1,-10,-15,2,4,2
3.406336,-90,1,-7,-5,10,19,-1,-33,2
3.406351,-8,-23,6,7,-7,-1,-1,-12,2
3.420216,79,3,-9,-3,20,3,-4,-11,2
3.420262,-58,27,-3,-5,-30,-5,0,14,2
3.421204,-30,-14,2,0,-31,-12,-5,9,2
3.421340,-10,-39,-4,-5,52,-17,12,-11,2
3.442912,25,-36,-8,-2,-7,20,6,-14,2
3.442933,54,93,10,5,-6,0,0,1,2
3.444630,-32,-74,-5,-3,1,-2,-4,36,2
3.444638,56,9,-15,-5,-25,4,-8,-15,2
3.465304,5,10,9,2,-1,-7,-1,28,2
3.465319,-29,-9,0,-1,13,1,-5,-61,2
3.465950,38,25,7,1,2,4,7,8,2
3.465958,98,37,5,0,-11,-7,-7,16,2
3.479927,-18,-62,-5,-1,1,-13,-2,-2,2
3.479931,32,-6,-1,-1,-5,18,0,17,2
3.480401,-28,45,2,0,11,-3,-2,-46,2
3.480408,-60,-96,-9,-5,-21,-1,-5,1,2
3.503248,17,69,6,1,-4,-11,-12,7,2
3.505416,-70,-36,-6,-3,2,5,8,8,2
3.505423,-22,33,10,4,2,8,9,13,2
3.505535,11,-12,-9,-2,8,-8,-14,23,2
3.526280,20,70,2,-2,-10,0,-11,-34,2
3.526284,-71,-99,0,-1,6,-12,-1,-13,2
3.526286,61,111,-4,-3,-12,3,19,4,2
3.526288,-48,-80,-3,-1,35,-4,8,-6,2
3.539026,-21,17,-5,-4,-9,2,-3,15,2
3.539069,34,86,1,-1,-9,-3,-3,-15,2
3.550020,15,-39,1,0,9,-4,-12,22,2
3.550024,3,19,8,3,-21,-1,-3,-1,2
3.563226,9,-37,-9,-1,4,8,8,0,2
3.563247,0,-17,-2,-2,12,11,-11,-19,2
3.564711,3,7,-4,-4,-16,-68,3,-15,2
3.564728,-54,-45,4,-1,-13,-10,-5,-8,2
3.585624,8,30,-2,-1,2,15,9,-3,2
3.585645,-2,37,4,2,-7,-9,-1,17,2
3.588489,-4,-28,-2,0,10,16,-3,-16,2
3.588501,-11,34,-9,-3,-13,-4,-5,-14,2
3.599035,-21,-33,5,5,-25,-14,-3,-25,2
3.600294,-81,63,1,-2,37,0,-4,-18,2
3.608637,85,-32,1,0,-9,-18,-1,-9,2
3.608641,-31,1,-2,-5,-2,14,1,2,2
3.622846,-49,6,3,-1,1,6,-5,-18,2
3.622855,77,-32,-6,-1,-13,0,5,50,2
3.624406,8,-43,3,1,12,8,-10,-4,2
3.624428,-38,17,-2,-2,-9,-16,-5,11,2
3.645692,16,0,1,0,4,17,9,-27,2
3.645720,12,14,1,1,-7,-10,0,31,2
3.648230,-23,-23,-8,-4,23,-1,-12,-7,2
3.648233,-12,49,3,-1,-11,15,4,-10,2
3.659137,-34,-71,-6,-1,-8,-7,2,9,2
3.659154,29,5,3,0,-4,-4,-5,-5,2
3.668370,-75,64,5,2,-7,16,5,34,2
3.668375,31,-46,-5,-2,0,6,0,-20,2
3.683366,-99,11,0,-3,8,-7,-8,-13,2
3.683377,56,18,-3,-3,-5,-3,2,17,2
3.684528,-3,-27,1,1,-14,-3,-8,12,2
3.684535,-11,22,0,2,15,16,17,29,2
3.705539,90,43,2,0,2,-7,0,-28,2
3.705567,8,-7,-4,0,-2,25,-14,-55,2
3.707435,9,-43,2,1,-4,16,20,-4,2
3.707440,109,30,-1,-2,-7,-6,3,58,2
3.719784,-48,24,4,0,-19,-6,-4,-16,2
3.719813,-55,-64,4,4,18,28,9,32,2
3.728076,47,24,-11,-7,-17,-34,-19,-36,2
3.728969,-10,9,1,-2,-12,4,-5,-19,2
3.743189,64,25,-1,-3,-14,2,7,32,2
3.745301,-26,12,1,0,0,-15,-2,7,2
3.745306,3,-31,-9,-2,11,16,0,14,2
3.745307,-106,-1,-1,2,-8,-13,-5,-14,2
3.765795,17,8,-2,-2,5,0,-2,7,2
3.765813,0,16,0,-1,-16,-19,0,18,2
3.767800,-2,-7,0,1,26,-13,-5,1,2
3.767804,0,-11,-8,-6,17,23,11,-45,2
3.779130,62,-26,-3,-1,1,-5,-6,10,2
3.779298,-51,50,-3,-1,-3,-6,-1,-27,2
3.789950,-62,2,-1,1,-4,8,-4,41,2
3.789958,25,45,6,0,-13,-2,2,8,2
3.803129,-22,-63,1,3,25,-7,-13,-4,2
3.803158,15,1,-1,-2,-19,-5,8,-14,2
3.805652,38,29,-4,-5,-18,3,-6,7,2
3.805679,-2,-45,-3,-1,-1,-1,-3,-44,2
3.826144,28,15,-5,-3,20,3,-4,-1,2
3.826401,-60,-17,3,0,-3,-5,-6,5,2
3.827014,-35,-45,0,1,9,8,4,8,2
3.827030,51,73,5,1,-50,-14,-7,7,2
3.839578,-24,-39,-1,1,49,-27,-3,-36,2
3.839588,88,-38,-4,-3,5,51,13,36,2
3.848703,-106,25,-7,-3,-4,0,-6,-89,2
3.848707,-14,-51,-5,-1,-5,-10,-7,57,2
3.863195,-6,23,5,2,-15,0,6,16,2
3.865213,62,31,-4,-1,6,-15,-7,-18,2
3.865218,10,109,4,-3,-9,1,8,6,2
3.865220,53,-12,-5,-3,9,3,-5,6,2
3.886904,-83,-38,-7,-3,-12,1,-6,-8,2
3.886917,-5,-13,2,-3,4,-13,-1,22,2
3.886999,40,35,10,3,8,55,0,12,2
3.887013,49,-57,-5,1,45,25,11,-24,2
3.901123,-66,2,-12,-8,-28,4,-9,6,2
3.901127,-14,-4,4,3,-11,4,5,-26,2
3.909351,51,-20,-3,-1,11,6,4,77,2
3.909357,-42,3,2,0,-9,-10,-12,-81,2
3.922149,39,19,5,1,-5,2,11,14,2
3.922177,-18,0,-1,1,25,3,-2,1,2
3.932488,-10,72,10,2,-13,-23,-7,-24,2
3.932497,-24,-72,-8,-2,-5,9,-15,50,2
3.947485,-60,12,-11,-7,0,-10,17,2,2
3.947493,9,54,2,-2,-13,-42,-17,-32,2
3.947498,34,-12,-1,0,10,37,10,24,2
3.947502,-36,5,5,2,-2,-10,-5,5,2
3.959150,33,-11,-2,1,2,13,-8,-1,2
3.959172,28,-16,4,2,-3,0,4,4,2
3.968675,-76,-34,-11,-5,-4,-22,-6,-31,2
3.968681,-3,16,0,-2,-43,-14,-1,6,2
3.983179,55,-22,0,2,30,30,8,-45,2
3.983199,-111,-10,-7,-4,-7,-10,-9,22,2
3.984355,29,18,1,-2,-4,-16,-18,-47,2
3.984438,19,-5,-1,0,-4,2,1,21,2
4.005576,25,48,2,2,-7,-3,-2,-9,2
4.005594,9,-83,0,-1,-3,3,3,10,2
4.007388,11,-73,0,1,4,-2,-2,-2,2
4.007456,30,99,0,-2,37,-2,3,29,2
4.019005,-38,67,6,2,-9,-4,-3,-14,2
4.019026,88,-18,-10,-4,5,-2,-4,12,2
4.028984,-103,-101,-6,-2,-28,-10,2,-2,2
4.028988,52,52,4,0,14,-2,-4,-18,2
4.043365,54,-24,1,0,-4,2,3,24,2
4.043380,-44,-49,-12,-4,-2,-3,0,-3,2
4.044873,31,19,0,1,-9,-7,2,19,2
4.044890,20,-9,3,2,-2,-4,0,-23,2
4.065471,17,6,-4,-2,-5,1,-4,8,2
4.065494,-58,18,0,-2,-9,3,-4,-11,2
4.066870,42,4,0,-2,10,-3,1,42,2
4.066884,-39,10,3,2,5,12,10,46,2
4.079355,-6,19,0,-2,-9,-38,-22,25,2
4.079376,58,14,2,0,-1,9,7,18,2
4.088484,42,-19,-4,-4,4,1,-3,-20,2
4.088488,-68,25,-2,-1,8,-10,-5,-12,2
4.104163,9,13,2,0,-19,6,2,19,2
4.104180,-14,-4,2,-1,-3,-6,14,-20,2
4.104521,59,45,2,0,4,5,11,53,2
4.104537,-10,-19,-1,-1,-13,-8,-15,-72,2
4.125434,2,44,3,-3,15,-9,-3,-9,2
4.125453,-57,-17,-11,-4,-24,12,-19,-21,2
4.127107,15,-6,0,0,12,-31,13,-9,2
4.127112,61,-1,3,-4,-9,-6,15,16,2
4.139038,-68,-18,-5,-2,-5,8,-2,5,2
4.139058,60,47,10,6,5,-3,5,-30,2
4.149658,37,-19,-2,0,-8,2,-13,11,2
4.149662,70,31,4,0,-3,-1,-4,-18,2
4.164016,-59,-21,0,1,-1,-10,3,14,2
4.164020,-13,-22,-2,-3,7,0,-4,-16,2
4.164574,45,5,-9,-3,-11,-1,-1,72,2
4.164608,-7,25,1,-1,16,2,-1,-34,2
4.185785,-39,-66,-8,-4,-1,28,5,13,2
4.185805,-11,32,-4,-4,0,-27,-5,8,2
4.188008,-6,21,7,3,2,6,-5,-50,2
4.188016,-40,-12,7,1,-36,-5,-6,23,2
4.199412,-18,-10,-11,-3,17,16,8,-2,2
4.199439,7,-42,-6,-4,-13,-13,-10,-36,2
4.208591,-18,5,-1,-1,9,14,-4,-17,2
4.208595,8,4,-1,-3,-21,-10,6,14,2
4.223267,44,37,13,8,0,-6,-8,-18,2
4.223301,1,-19,-4,-2,-7,0,2,16,2
4.225936,23,20,2,0,15,1,2,4,2
4.225944,-89,-27,-10,-3,6,2,-4,6,2
4.245676,27,-15,-7,-4,4,-14,-6,-44,2
4.245697,64,14,-3,0,6,33,0,5,2
4.247330,-28,-23,-2,2,-3,3,9,-5,2
4.247334,-38,17,0,2,13,8,3,-9,2
4.267801,40,-13,3,0,-6,-12,1,-1,2
4.267822,-47,1,4,0,1,0,-4,-5,2
4.269340,110,41,7,2,-34,-32,-14,-7,2
4.269359,-58,-38,-13,-3,26,26,23,-9,2
4.282902,-14,-50,-7,-7,-25,-7,0,-28,2
4.282924,5,92,3,2,11,-2,-1,14,2
4.284398,-16,-54,-1,-2,-15,7,0,8,2
4.284433,24,23,0,0,0,-17,-8,-5,2
4.305570,41,-1,-1,0,3,1,1,27,2
4.305580,-11,37,2,-1,-3,7,8,36,2
4.307116,-33,18,-3,-2,18,-8,-6,-29,2
4.307135,4,-31,13,4,-12,-22,-18,-37,2
4.328036,-28,-23,-21,-7,30,40,11,-25,2
4.328059,83,-40,1,-2,-15,-14,-1,1,2
4.330250,-53,22,-1,-1,2,8,8,-6,2
4.330258,37,7,1,1,9,-5,-5,23,2
4.341640,16,37,10,3,-14,1,0,8,2
4.341662,-55,2,1,1,6,-7,-4,-17,2
4.351966,8,-67,-7,-2,-21,-2,-10,-1,2
4.351970,19,-34,-5,-3,3,11,17,5,2
4.365920,-19,9,6,4,3,-14,-5,14,2
4.365949,104,38,5,2,12,6,3,15,2
4.368445,-91,-50,-8,-5,-22,-4,-13,-35,2
4.368453,37,31,0,1,6,-1,-3,58,2
4.388031,-98,-64,-12,-7,-11,-20,-12,-84,2
4.389338,77,50,5,3,13,10,4,25,2
4.389418,-40,-33,-10,-6,-24,-12,-3,1,2
4.389449,33,4,-9,-5,-6,8,4,-7,2
4.402355,51,46,7,1,8,-9,5,28,2
4.402371,-28,-18,-1,0,-7,-15,-2,0,2
4.409030,10,51,6,1,22,6,2,-4,2
4.409046,-3,3,-6,-2,0,-3,-5,4,2
4.425776,31,1,7,5,-10,-2,-6,22,2
4.425793,-42,-1,-2,-3,2,2,-2,-13,2
4.427086,43,-43,-5,-2,12,15,9,-1,2
4.427092,-55,-6,-1,-2,-6,-6,-10,-20,2
4.447804,-35,26,10,5,1,12,20,88,2
4.447866,-3,-31,-20,-11,-6,-10,-21,-79,2
4.449286,1,20,0,-1,-3,-8,1,20,2
4.449300,43,1,0,-2,-3,-2,-4,13,2
4.462936,73,9,1,-1,-6,-12,-8,17,2
4.462942,-63,-15,4,3,10,20,11,2,2
4.469023,-17,-33,-10,-4,-4,-15,-14,-41,2
4.469045,-11,40,0,-1,0,6,4,7,2
4.486151,45,-4,-3,-2,-2,-5,-14,3,2
4.486188,-28,14,2,1,-8,5,12,10,2
4.488219,2,31,3,2,16,15,5,-22,2
4.488224,1,36,3,2,-2,-2,-8,5,2
4.509110,-74,-34,-8,-3,2,-2,-2,-1,2
4.509114,-34,-45,-3,-1,-1,-16,-3,5,2
4.509406,-4,3,3,-2,11,19,6,15,2
4.509502,-28,-16,-2,-2,2,-6,-2,4,2
4.522240,40,16,-3,-2,-9,-2,-10,-32,2
4.522259,-26,6,-1,-1,-2,-2,-3,-12,2
4.529124,-87,2,1,0,2,-18,-8,26,2
4.529147,-10,-54,-7,1,-7,-9,-8,-14,2
4.545667,-12,-2,-2,-2,-10,36,18,-31,2
4.545689,80,-16,2,0,30,-40,13,35,2
4.547600,31,25,1,2,3,0,-2,3,2
4.547607,18,7,1,-2,1,-2,-2,3,2
4.567838,-63,19,2,3,0,0,-1,-8,2
4.567853,-37,-28,0,-1,-2,1,-16,-9,2
4.569315,111,26,0,-2,-2,-7,6,15,2
4.569322,-55,66,1,2,4,-3,-1,-37,2
4.582169,66,-89,-9,-1,-7,-19,6,31,2
4.582190,-30,17,0,0,2,0,-1,16,2
4.589023,17,7,-1,-3,0,27,-8,-59,2
4.589047,-23,-10,0,-4,-7,8,0,22,2
4.605471,70,37,6,0,0,-22,-12,-25,2
4.605490,68,57,3,1,-9,25,13,38,2
4.607091,-33,18,-6,-3,-1,-6,5,25,2
4.607113,-69,-17,-2,1,1,5,-4,-18,2
4.627853,37,22,1,-2,3,-7,-3,4,2
4.627874,-27,1,3,-1,-6,5,5,8,2
4.630886,38,10,-3,-1,13,-19,-21,46,2
4.630892,36,-53,-7,-4,-10,4,24,-3,2
4.642252,37,5,0,1,7,-5,-12,-17,2
4.642275,-49,-20,-6,-1,-9,12,8,6,2
4.648957,36,1,4,2,-31,-2,3,-47,2
4.648972,49,2,6,4,42,-9,-5,19,2
4.665533,-68,33,-7,-4,-5,13,-9,-8,2
4.665596,-3,-82,-12,-6,-3,-26,-9,14,2
4.667080,21,-1,3,2,-4,-11,6,28,2
4.667177,72,53,-2,-4,-9,8,-3,-64,2
4.688234,-112,0,1,-2,6,18,-4,9,2
4.688253,14,54,-14,-5,-15,-53,-13,-27,2
4.689735,15,38,1,0,8,-5,3,10,2
4.689743,29,-91,-5,0,-13,-2,-2,21,2
4.702612,-70,64,8,3,-15,-3,3,15,2
4.702641,73,-13,5,2,9,6,-15,-2,2
4.708977,-38,-34,-6,-4,-11,1,3,-20,2
4.708994,-26,33,-1,-1,-2,-3,-4,-12,2
4.725361,35,-11,0,-3,-10,9,-1,-5,2
4.725415,-10,4,2,1,-2,5,5,30,2
4.726773,-50,18,6,3,12,3,2,1,2
4.726783,58,37,0,-3,-12,-14,-13,4,2
4.748282,-11,-116,-16,-6,4,8,16,3,2
4.748304,-76,14,-6,-4,-2,5,-10,-56,2
4.749655,-6,-42,-4,-1,14,4,0,-21,2
4.749765,-28,11,-1,0,-5,-1,-4,3,2
4.761690,71,34,5,2,-3,-12,-4,-8,2
4.761710,-1,7,9,5,-33,2,5,35,2
4.772405,-16,53,7,3,44,67,2,5,2
4.772411,-7,-79,-17,-8,-32,-27,-2,11,2
4.787647,2,-10,-2,-2,8,-3,3,-5,2
4.787657,16,0,1,-1,-13,-10,4,26,2
4.787661,0,16,6,2,-6,-10,-1,-59,2
4.787662,0,23,0,0,8,26,-11,11,2
4.807969,55,16,-2,-1,5,-20,-11,30,2
4.807985,-16,19,2,-1,0,17,23,-51,2
4.809379,31,25,5,-1,-1,2,1,40,2
4.809383,-51,-1,-10,-3,9,1,5,-17,2
4.821685,-50,-96,-11,-5,-9,-17,-11,-5,2
4.821702,62,50,2,1,14,10,-5,9,2
4.833079,37,-29,-1,-2,-6,-12,-3,24,2
4.833089,-64,6,0,0,-7,0,16,-9,2
4.847885,2,61,8,2,6,1,-12,-2,2
4.847893,-20,-75,-6,-4,10,4,-7,4,2
4.847895,-8,5,-1,1,-15,-8,4,-6,2
4.847897,-22,-42,-2,-2,-24,-5,-4,34,2
4.868287,-7,5,1,-1,27,7,3,-26,2
4.868317,73,3,-1,-1,5,0,-10,-4,2
4.871050,-50,-16,-7,-1,4,-8,21,6,2
4.871066,2,66,4,-3,-18,-1,-12,-2,2
4.881452,85,-23,-5,-4,-27,-9,22,52,2
4.881468,-81,-65,-13,-2,5,44,-16,-6,2
4.892332,50,18,0,1,-3,-8,1,-14,2
4.892339,31,-67,-3,0,20,-2,3,36,2
4.905432,-53,51,3,2,-4,0,3,-35,2
4.905453,54,47,4,0,11,9,0,13,2
4.907446,-18,7,-1,-1,-12,-20,-8,-14,2
4.907455,-21,-18,3,1,29,-2,3,-12,2
4.927869,48,-8,2,3,5,14,-5,28,2
4.927892,-3,-13,-1,1,-9,1,12,9,2
4.929360,-17,20,-4,-2,10,-1,-10,10,2
4.929382,6,19,9,4,-9,-6,1,-65,2
4.941519,31,20,-8,-3,-1,-1,-2,17,2
4.941535,-37,-68,-5,-2,4,-14,-9,-28,2
4.951068,-22,-5,-10,-6,-12,-15,-6,-23,2
4.951079,-11,-21,6,0,0,26,2,6,2
4.965355,-27,-18,-6,-1,5,9,1,-10,2
4.965377,-72,41,3,-2,-4,-14,0,-9,2
4.966842,103,-21,2,0,-2,-5,-13,15,2
4.966849,8,65,-1,-2,5,0,11,25,2
4.988503,-32,-38,-1,-1,6,11,0,-13,2
4.988515,98,55,9,0,-15,-31,-22,44,2
4.989415,-58,-7,-16,-8,25,-8,-13,-34,2
4.989427,-14,7,-3,-2,-12,-14,-14,-64,2
7.014433,-2,-1,-2,-1,0,-1,0,-1,0
7.014613,0,-2,0,0,0,-2,-1,0,0
7.014615,0,-2,0,-1,0,-2,-1,-1,0
7.014716,-1,-1,-1,-1,-1,-1,-1,-1,0
7.026579,-1,-1,-2,-1,-2,-2,0,-2,0
7.026595,-2,-3,-3,-1,0,0,0,0,0
7.037022,-1,0,-1,-1,-2,-1,-1,0,0
7.037034,-2,-1,-2,-1,0,-2,-2,-2,0
7.050498,0,-2,0,-2,-1,0,0,-1,0
7.050519,2,0,0,-1,-3,-1,1,-1,0
7.053455,-2,-2,-1,-1,0,0,-1,-1,0
7.053473,-1,-1,0,0,0,-1,-1,-1,0
7.073148,-2,-1,-2,-1,-1,-3,-1,-2,0
7.073166,-2,0,-1,-2,-1,-1,-1,-1,0
7.074748,0,-1,-2,-1,-1,-1,-1,-1,0
7.074753,-3,-2,-2,-1,-1,-2,-1,0,0
7.095469,0,0,-1,-1,-1,-1,-2,-2,0
7.095490,-3,-2,-1,-1,-1,-1,-1,0,0
7.096906,0,-1,0,0,-2,-3,-1,-2,0
7.096919,-2,-1,-1,-2,-1,0,-1,0,0
7.110456,0,0,-1,-1,-2,0,-2,-1,0
7.110477,-3,0,-3,-3,1,0,-2,0,0
7.112178,-1,-1,1,-1,-2,0,0,0,0
7.112199,0,0,-2,2,0,-1,0,-1,0
7.132851,-1,-2,-2,-2,-1,-2,-3,-3,0
7.132873,-1,-1,1,-2,-2,-2,-2,-3,0
7.134343,0,0,0,0,-3,-2,-1,-1,0
7.134358,-1,0,0,0,-4,-2,-3,0,0
7.155445,1,-2,-3,-1,-1,-3,0,-1,0
7.155474,-2,0,-2,-1,-1,-1,-1,-2,0
7.157406,1,-2,1,-2,0,-1,0,0,0
7.157453,-6,-2,-2,-2,-2,-1,1,-1,0
7.169729,15,3,1,-2,-1,-1,0,-1,0
7.169750,-15,3,-1,0,-1,-1,-2,-1,0
7.176486,15,-7,-3,-3,0,0,-2,-2,0
7.176506,-1,0,0,-2,0,0,0,0,0
7.192936,-12,-2,-1,-1,0,0,-2,0,0
7.192954,12,3,-2,0,-3,0,-1,0,0
7.194337,1,3,0,0,-1,-1,0,0,0
7.194379,-2,-2,0,0,-1,-2,-1,-2,0
7.215675,-1,-2,-2,0,-1,0,0,0,0
7.215679,-4,-3,-2,-3,0,0,-1,-2,0
7.216861,-10,1,-5,1,-1,-1,-2,-2,0
7.216876,1,-3,-1,-3,-1,0,0,-1,0
7.232063,-3,4,4,0,0,-1,0,-2,0
7.232069,-2,-4,-1,0,0,-2,0,-1,0
7.236763,-2,0,-2,-1,0,0,0,-2,0
7.236785,1,-2,-3,-2,-1,-2,0,0,0
7.252917,-2,0,1,-2,-1,0,-2,0,0
7.252939,0,-2,-2,-3,-1,1,-1,0,0
7.259100,-2,-1,1,-1,-1,0,-2,-1,0
7.259121,1,-1,-2,0,-2,0,-1,0,0
7.275803,-2,-4,-3,-1,-1,-2,0,-1,0
7.275930,1,-2,-2,1,-1,-1,1,-1,0
7.276814,-4,0,1,-2,-1,-2,1,1,0
7.276826,-1,-1,-1,0,-1,-1,-2,-1,0
7.292706,-1,-1,-3,-1,-1,-2,-2,-1,0
7.292712,-1,-1,-2,-1,-1,-2,-1,-1,0
7.296667,0,0,-1,1,-2,0,-2,-1,0
7.296689,-2,-1,0,-3,0,-1,-1,0,0
7.313061,1,-1,-2,-1,0,1,-1,-1,0
7.313083,-1,-2,1,-1,0,0,-1,-1,0
7.315472,-3,-2,0,-1,-1,-1,-1,-3,0
7.315478,0,2,0,-1,-2,-1,0,-1,0
7.335400,-4,-1,-2,-1,-1,-1,-1,0,0
7.335423,4,0,0,-1,-2,0,0,0,0
7.337900,-2,1,-1,0,-2,-1,-1,0,0
7.337913,0,0,-1,0,-1,0,-1,-1,0
7.350680,-2,-2,-2,-2,-1,-2,-2,-1,0
7.350708,-2,-3,-2,1,-1,-1,0,-4,0
7.356532,-2,4,3,-1,0,-2,-1,1,0
7.356549,0,-2,-1,-1,-3,-2,-1,-1,0
7.373054,0,0,0,-1,-2,1,1,0,0
7.373080,-3,-2,-2,-2,0,-1,-2,-1,0
7.374434,-1,-2,-2,-1,0,0,0,-1,0
7.374449,1,1,0,0,0,-3,0,-1,0
7.395454,0,-3,-3,-1,-1,-1,-1,0,0
7.395478,-2,-2,0,1,0,0,1,0,0
7.397337,-3,-2,-1,-1,-1,-1,0,-2,0
7.397343,-1,0,-1,-2,-2,0,0,-1,0
7.409712,0,-1,-1,0,-3,-1,0,0,0
7.409729,0,1,1,-1,-1,0,-1,0,0
7.424377,-1,-3,-2,-1,-1,0,-2,-2,0
7.424407,1,-1,-2,-1,0,-1,0,-1,0
7.433219,0,0,-1,-1,-1,-1,0,-1,0
7.433225,-2,-1,1,-1,-1,1,-1,-1,0
7.434262,0,-2,-1,-1,0,0,-1,0,0
7.434272,0,-2,0,-1,-2,-1,-1,0,0
7.455357,-2,0,-2,-1,-3,0,-1,-2,0
7.455377,1,0,1,-1,-3,-2,-2,-2,0
7.457154,1,-1,-1,-2,-1,1,-1,-1,0
7.457184,-2,0,-1,-2,0,-1,-1,-2,0
7.470170,-2,0,-1,0,-1,-1,-2,0,0
7.472346,-1,-3,-1,-1,-1,-2,-2,0,0
7.476631,-3,0,-1,-1,-1,-2,-1,-1,0
7.476660,-1,-1,-2,-1,0,-1,-1,0,0
7.493673,-1,-1,0,0,-1,-1,-2,-2,0
7.493679,-1,1,-3,-1,0,-3,-1,0,0
7.494379,-2,-1,-1,-2,-1,-1,0,0,0
7.494385,-2,0,1,0,0,-1,-1,-1,0
7.515647,-2,-1,0,0,-1,-1,0,-1,0
7.515668,-3,0,0,0,-2,-1,-4,-1,0
7.517624,-1,0,-1,-1,-3,-3,-1,0,0
7.517669,0,-1,-2,-1,-2,-2,-1,-1,0
7.529140,0,-2,-2,-1,1,-4,-2,0,0
7.529164,-1,-3,1,-1,-1,-1,-1,1,0
7.539527,1,-1,-2,-1,0,-2,-1,-1,0
7.539534,-3,-2,0,-2,1,-1,-1,-2,0
7.553096,-1,-1,0,-1,-1,1,-2,-1,0
7.553128,0,0,0,-2,-1,-1,0,0,0
7.555411,-1,-2,0,-1,0,-1,-2,-1,0
7.555422,1,-1,-1,-2,-1,-2,0,0,0
7.575443,0,0,-1,1,-2,-1,-1,0,0
7.575460,0,-3,-1,-1,0,-1,-1,-2,0
7.576902,0,-1,0,-1,-1,1,-1,0,0
7.576917,-2,0,-1,0,-2,1,-2,0,0
7.589144,0,0,-1,-1,0,-1,-2,-1,0
7.589166,0,-1,-1,-1,-1,-1,-1,-2,0
7.599094,-1,0,-2,-1,0,0,-3,-1,0
7.599098,-2,-1,0,-1,-1,-2,-1,-1,0
7.612973,0,-2,0,-2,-2,-1,-2,-2,0
7.614368,-2,0,-1,0,0,-1,0,-1,0
7.614434,-1,-2,1,-1,-1,-1,-1,-2,0
7.614474,-4,0,-1,-2,0,0,-1,0,0
7.635458,-2,-1,0,0,0,-1,-1,0,0
7.635506,-1,-2,-2,-2,0,-1,0,0,0
7.637100,-2,0,-2,-1,0,0,-2,-1,0
7.637123,-1,0,-1,0,-1,0,-1,0,0
7.650007,0,-1,-1,-2,-1,-1,-1,-1,0
7.650014,-1,0,-1,-1,-1,0,-1,-1,0
7.660243,-2,0,-1,-1,-1,-2,-1,0,0
7.660255,0,-2,-1,0,-1,-1,-2,0,0
7.672952,0,-1,0,-1,0,0,1,-1,0
7.672991,-1,-1,-2,-1,-2,-1,-1,-1,0
7.674806,-4,-1,0,0,-1,-1,1,-1,0
7.674815,-2,-1,-1,-1,-2,0,-2,-1,0
7.696837,0,-2,-3,-1,-2,-1,0,-1,0
7.696843,1,-2,-2,-1,-2,-2,-2,-1,0
7.696929,-1,-1,-1,-1,-1,1,0,-1,0
7.696935,-1,0,-1,-1,0,0,1,0,0
7.709370,-2,-1,-1,0,-1,0,1,0,0
7.709401,-2,-1,-1,-1,-1,-2,0,0,0
7.719780,1,-2,-3,0,-1,-2,-1,1,0
7.719790,0,0,-2,-1,-1,-2,-1,0,0
7.733475,2,-2,-1,-2,-1,0,1,-1,0
7.733496,-2,-1,-2,0,-1,0,-2,-2,0
7.735150,-4,-1,-1,-1,-2,-1,0,-2,0
7.735159,0,-1,0,-2,-2,0,-1,-2,0
7.755506,-1,-1,0,-1,-1,-1,-1,0,0
7.755524,-1,1,1,0,-1,-1,-2,-1,0
7.757593,0,-1,-1,-1,-2,0,0,-1,0
7.757612,0,-1,-3,-1,-1,-1,0,-2,0
7.769006,-3,-1,-2,-3,-1,-2,-2,-1,0
7.769035,-1,-1,-1,-1,0,-1,0,0,0
7.779807,-1,0,0,-1,0,-1,-1,0,0
7.779813,-1,0,0,-2,0,-2,-1,0,0
7.792904,-1,-1,0,1,-1,-1,-1,-1,0
7.792921,0,-2,-1,-1,-2,-1,-1,0,0
7.794497,0,0,-1,-1,-1,-2,-1,-1,0
7.794513,-1,-1,-2,-1,-1,-1,-1,-2,0
7.815348,-2,-3,-2,-1,0,-1,-1,-1,0
7.815370,-2,0,-1,-1,-1,-2,-1,0,0
7.816913,-2,-1,-2,0,-1,-1,-2,-1,0
7.816926,-1,-1,0,-2,-1,-1,-1,-1,0
7.837883,-1,-1,-1,-3,-1,-1,0,-1,0
7.837901,-1,1,-2,0,-2,0,0,-2,0
7.839626,2,-1,-2,0,0,-1,-1,-1,0
7.839649,-1,-1,0,0,0,0,-1,-1,0
7.853216,-2,-1,-1,-2,0,0,-1,-1,0
7.853233,-2,-1,-1,-2,0,-1,-3,0,0
7.854562,-1,0,0,-2,-1,-2,-1,0,0
7.854583,-1,-1,0,1,0,-1,-1,-1,0
7.875500,0,-1,-1,-1,-1,-1,0,0,0
7.875525,-2,-2,-1,-1,0,-1,0,-3,0
7.876900,0,0,-1,-1,0,0,-1,-1,0
7.876908,1,-1,-2,0,-1,-2,-1,-1,0
7.889241,-2,0,-1,0,-2,-2,-1,-1,0
7.889272,0,0,0,-1,-1,-1,0,-1,0
7.898449,-3,-2,-1,-2,0,0,0,-2,0
7.898453,-3,0,-2,-3,-1,0,0,-1,0
7.914553,-1,-2,1,1,1,-2,-2,-1,0
7.914556,-1,-2,-1,0,0,-2,-2,-1,0
7.914559,-2,-1,-1,0,0,-1,-2,-2,0
7.914561,-2,-2,-1,0,-2,-2,-1,-2,0
7.935353,-1,-2,-3,-1,-1,-1,-2,-2,0
7.935374,-1,2,-1,-3,-1,0,-2,-1,0
7.938063,0,0,1,-1,0,-2,-1,0,0
7.938074,1,-5,-4,-2,0,-1,0,1,0
7.949193,0,3,4,0,-1,-1,-3,0,0
7.949212,2,-1,0,0,1,-2,-1,0,0
7.958558,-1,3,-2,-4,-1,0,-1,-1,0
7.958564,-3,-17,-2,0,-2,-1,-1,-2,0
7.972886,0,-3,-5,-3,-1,-1,0,2,0
7.972904,-2,-6,-4,0,0,-2,-1,-1,0
7.974525,-2,5,1,1,-1,-1,-2,-1,0
7.974539,-2,1,-1,0,-2,-3,-1,-2,0
7.995473,-2,-1,-2,-3,-1,-1,-1,-1,0
7.995494,-1,0,-2,-2,-3,0,0,-1,0
7.996901,0,-5,-2,0,1,-1,-1,-1,0
7.996918,0,4,1,-2,-2,0,-2,-1,0
8.018313,-2,-1,-3,0,-2,0,-1,-2,0
8.018334,-1,4,1,-1,-1,-2,-1,0,0
8.021261,0,-2,-2,0,-2,-1,-1,-3,0
8.021321,-1,0,0,0,-2,-1,-2,1,0
8.032974,-1,1,1,0,1,0,0,0,0
8.032997,-1,-1,0,-2,-2,1,-1,-1,0
8.034349,-1,-1,-1,0,-1,0,0,-1,0
8.034373,-1,3,1,0,1,-3,-2,-2,0
8.055504,-2,-3,-4,-1,0,-1,-1,-1,0
8.055541,-2,-1,2,0,-1,0,-2,-1,0
8.057362,-1,-2,-2,-1,0,-1,0,-2,0
8.057395,0,2,-2,-1,-1,0,0,-2,0
8.078125,-2,1,0,0,-1,-1,-1,0,0
8.078146,1,-4,-2,0,0,0,0,-2,0
8.080975,-1,-2,-1,0,-1,0,0,-1,0
8.080981,-1,-2,-1,-1,-1,0,1,-1,0
8.092875,1,-2,-1,-2,-3,-1,-1,-1,0
8.092900,-1,0,-2,-2,-3,-2,-1,-2,0
8.094409,-2,-1,1,-1,-3,-1,-1,1,0
8.094425,0,-1,-1,-1,0,-2,-2,0,0
8.115276,-2,-1,0,0,-1,-1,-2,-1,0
8.115285,-2,0,0,0,1,0,-1,-1,0
8.116778,-1,-3,-4,-3,0,-1,-2,0,0
8.116785,-2,3,4,-1,-2,-1,0,-1,0
8.137969,0,-2,-4,-2,-3,-1,-3,-1,0
8.138011,0,3,4,0,0,-2,1,-1,0
8.139876,-1,1,1,-1,-1,-1,-2,-1,0
8.139882,-1,1,-1,-2,0,-1,-1,-1,0
8.152278,0,-2,-1,1,-1,-1,-3,-2,0
8.152298,-1,-3,-6,-2,-1,0,0,0,0
8.159080,0,-2,2,-2,-1,-1,-1,-1,0
8.159098,0,0,0,-2,1,-3,-1,0,0
8.175371,-2,-1,0,-2,-2,-2,-1,0,0
8.175386,-2,-3,-3,0,0,-1,-1,-1,0
8.176835,-1,-1,0,-1,-2,-1,0,-1,0
8.176853,-2,0,-2,-1,-2,1,-1,-1,0
8.197933,0,-2,1,0,-1,0,-1,-1,0
8.197955,1,-1,0,0,-1,-2,-1,-1,0
8.200328,0,0,-2,0,-1,0,0,0,0
8.200333,0,-2,1,-1,-3,0,-1,-1,0
8.212329,-2,0,-1,-1,-1,0,-1,-1,0
8.212352,-2,-1,0,-2,-2,0,-2,-1,0
8.219386,-2,-1,0,-1,-3,-1,0,-1,0
8.219412,-1,-2,-4,-1,0,-1,-1,-1,0
8.235528,-1,0,-2,-1,-2,-2,0,-1,0
8.235549,-1,-2,-2,1,-1,-1,-3,0,0
8.238329,-2,-2,-1,1,-1,-1,-1,-2,0
8.238343,-1,4,2,-1,0,-2,-1,0,0
8.258029,-1,0,0,-1,2,-1,-1,-2,0
8.258067,-2,-1,0,-1,-1,0,-1,0,0
8.264380,-1,-2,-1,-1,-2,1,0,-2,0
8.264409,2,-2,-3,-1,-2,-1,-2,-1,0
8.272319,0,1,-3,-2,-2,1,-2,-1,0
8.272336,0,0,-1,-2,-1,-2,0,-2,0
8.279081,-3,-2,0,0,-2,0,-1,1,0
8.279102,-2,-1,-2,-2,-2,-1,-1,0,0
8.295380,-2,-1,0,-2,-2,0,-1,-1,0
8.295402,0,-1,-1,-1,-1,-1,-1,-1,0
8.297148,1,-1,-2,-2,-1,-1,-1,0,0
8.297163,-1,0,2,1,2,0,0,0,0
8.318557,-2,-2,-3,0,-1,1,-1,-2,0
8.318583,-2,0,0,-1,-2,0,-1,-1,0
8.321603,-1,-1,-3,-1,2,-1,-1,-1,0
8.321610,-2,-2,-3,-1,-1,-1,-2,-2,0
8.332240,1,-2,-2,0,0,-1,0,-2,0
8.332321,-1,-3,-3,-2,-1,-2,0,-1,0
8.339098,2,3,-1,-2,0,-3,-1,-1,0
8.339115,-1,-1,1,1,-2,0,0,0,0
8.355397,-2,-1,0,-1,-1,-1,-2,-2,0
8.355425,1,0,-1,0,-2,-1,-1,-1,0
8.357374,-1,-1,-3,-1,-2,0,-1,0,0
8.357381,0,-2,-2,-1,-1,0,0,-2,0
8.378444,0,1,1,0,-1,-1,0,0,0
8.378467,-1,-1,-2,-1,0,0,0,0,0
8.379414,-3,-2,-3,1,0,-2,-2,-1,0
8.379429,0,-1,-1,-1,1,0,-2,-1,0
8.392206,1,0,-3,1,-1,0,-1,-1,0
8.392224,-2,-1,0,-2,1,-1,-2,1,0
8.399144,-1,-2,1,0,-1,-1,0,0,0
8.399165,-1,-2,-2,-1,-1,-2,-1,-1,0
8.415338,-1,-1,-1,-2,0,-2,-1,-1,0
8.415355,-3,0,-2,0,-1,0,-1,-1,0
8.416835,0,-2,0,-1,0,0,-2,-1,0
8.416848,0,1,-2,-2,-1,-2,-1,-1,0
8.438006,-1,1,-1,0,-1,0,0,0,0
8.438023,-4,-3,-3,-1,-1,-2,-1,0,0
8.439727,1,-1,2,-1,0,-1,-1,-1,0
8.439750,0,0,0,-1,-1,-1,0,-1,0
8.451833,0,0,0,-1,0,-1,-2,-2,0
8.451837,-1,0,-1,0,-2,0,-1,-2,0
8.462029,-1,-3,-4,0,-1,-2,-1,-1,0
8.462035,-3,-3,-2,0,-1,0,-1,-1,0
8.475570,0,-1,2,-1,-2,-1,0,-2,0
8.475585,-1,-1,0,-3,-1,-1,0,0,0
8.477099,-1,-1,0,-4,-1,-1,0,0,0
8.477104,-2,0,-1,-2,0,-1,-1,-1,0
8.499748,-3,-2,-2,0,0,-1,-1,0,0
8.499752,0,-1,-2,-1,0,0,-1,-1,0
8.499754,-2,0,-2,-1,0,0,-2,-1,0
8.499756,-2,-2,0,-1,0,-1,-1,-1,0
8.514259,-1,-1,-2,-3,-1,-2,1,-1,0
8.514266,-1,-1,-2,-1,-1,-1,-2,-2,0
8.522566,1,3,4,2,-1,-2,-1,0,0
8.522671,-2,-1,-1,0,-2,0,0,0,0
8.535359,-1,0,0,-3,-1,-1,-2,0,0
8.535380,-2,-3,0,-2,-1,-2,1,0,0
8.537901,-1,-3,-2,-2,-2,0,-1,-1,0
8.537916,-1,-4,-1,-1,-1,-2,-2,-1,0
8.558015,-2,1,0,-1,1,0,-2,0,0
8.558034,0,4,4,1,0,-2,-2,-3,0
8.560065,-1,-1,-3,-2,-1,-1,-1,0,0
8.560069,-2,-3,-1,-2,0,-1,0,0,0
8.571801,-2,-2,-2,0,-1,-2,0,-1,0
8.571821,0,-3,-2,-1,-1,0,-2,0,0
8.581395,-1,-1,0,0,0,-1,-1,-2,0
8.581401,-1,-1,-2,0,-2,1,-1,0,0
8.595377,0,-2,1,-1,-2,-1,-1,-2,0
8.595401,0,1,-3,0,-1,-1,0,0,0
8.597030,-5,-1,-1,0,-1,-1,-1,-1,0
8.597054,4,2,-1,-1,-1,0,1,1,0
8.618028,-4,-2,1,-1,0,-1,-2,-1,0
8.618057,-1,0,-1,-2,-1,-1,-2,0,0
8.620429,-2,-2,-3,-1,-2,0,-1,0,0
8.620442,-3,0,-2,-2,-1,-2,-2,-2,0
8.631736,-1,0,0,0,-1,-2,-1,0,0
8.631758,0,-3,-2,0,1,-2,-2,-1,0
8.640575,0,1,0,-1,-2,-2,0,-1,0
8.640595,-2,0,-1,-1,-3,-3,-1,-3,0
8.655854,1,-3,-2,-1,-2,0,0,-2,0
8.655861,-2,-1,0,-1,-3,-1,0,-1,0
8.655863,0,-2,-2,-2,-3,0,-1,-2,0
8.655864,0,-1,0,0,0,-1,0,-1,0
8.677486,-1,0,-3,-1,-2,-2,-1,0,0
8.677506,-2,-2,-1,-1,-1,0,0,-1,0
8.680191,-1,-2,0,-3,-1,-1,-2,-1,0
8.680194,-1,-2,-2,-1,1,0,0,-1,0
8.699744,-3,2,3,0,3,1,0,-1,0
8.699783,0,-1,0,0,0,0,-2,-2,0
8.701829,1,0,-1,-1,0,-2,0,-1,0
8.701834,-1,-2,-1,-1,-1,1,0,0,0
8.715077,-2,-2,-3,-1,-1,-1,-1,0,0
8.715095,-3,-1,0,-2,-2,-2,0,-1,0
8.717149,-1,-1,0,-2,-1,-1,-1,-1,0
8.717153,0,0,-1,0,-2,-1,0,-2,0
8.737459,-1,-1,-1,-2,0,-1,-2,-1,0
8.737489,0,-1,1,0,0,-2,-1,-1,0
8.738222,-3,-1,-2,-1,-1,-1,0,0,0
8.738250,-1,-1,-2,-1,-2,-2,0,-2,0
8.759769,-1,0,-2,-1,-2,1,-2,-1,0
8.759791,-1,0,-2,-2,0,-1,-1,-1,0
8.760822,-1,-1,-2,0,0,-1,0,0,0
8.760830,-3,-1,0,0,-1,-2,-2,-1,0
8.774898,1,-3,-1,-1,-2,0,-2,1,0
8.774919,-3,-1,-3,0,0,-1,-2,0,0
8.776333,-1,-1,-2,0,-1,-1,-1,-2,0
8.776340,-1,-1,0,-1,0,-1,-1,1,0
8.797377,-1,-2,-1,-1,1,0,-1,-1,0
8.797392,1,-4,0,0,-1,0,1,-1,0
8.797903,-2,2,0,-1,-1,0,-2,0,0
8.797920,1,0,0,-1,1,-1,0,-2,0
8.819811,0,-1,-1,-1,-1,-2,-2,-1,0
8.821912,0,-1,-3,-1,-1,-2,-1,-2,0
8.821919,1,-1,-1,-1,-3,-2,0,-1,0
8.821921,1,1,1,-1,-3,0,-1,1,0
8.834628,-3,0,-1,-2,-2,-2,0,-2,0
8.834650,-2,-3,-4,-2,-3,-2,0,-2,0
8.836607,-2,-4,-2,-2,1,0,-2,-2,0
8.836611,-2,-1,0,-1,-1,-1,0,-1,0
8.857833,0,-2,0,-2,-2,-2,0,1,0
8.857840,0,2,1,0,-2,-1,-2,0,0
8.858092,0,0,-1,0,-2,-2,0,-1,0
8.858098,-2,-1,-2,-2,0,-3,-2,1,0
8.880135,-1,0,1,0,0,-1,-2,0,0
8.880164,-3,0,0,-1,-1,-1,-1,-2,0
8.881282,5,-1,-1,-1,-1,-1,-2,-1,0
8.881291,-1,-1,0,-1,-1,-1,-2,-1,0
8.894910,-2,-1,-2,1,0,-1,0,-2,0
8.894926,-1,1,0,0,-1,-1,-1,-1,0
8.897180,-2,-1,-1,0,0,0,-1,-1,0
8.897186,-2,-1,-3,-1,-3,0,0,-3,0
8.917540,-1,-2,-1,-1,-2,-2,-1,-1,0
8.917573,-1,-1,-2,0,-2,-1,1,1,0
8.924839,-1,0,-1,0,-2,-2,-2,-1,0
8.924859,-2,0,-3,-2,1,-1,0,0,0
8.940096,0,0,-2,-1,-1,-2,0,-1,0
8.941727,1,-1,0,0,-1,-1,-2,0,0
8.941731,-4,-2,1,-2,-2,-2,0,-2,0
8.941733,0,-2,0,0,-1,-1,-2,-1,0
8.954755,-2,-1,-1,-1,0,0,0,-1,0
8.954777,1,-2,-1,-1,0,1,-1,-2,0
8.956062,-1,-2,-1,0,-1,-1,0,-1,0
8.956068,-2,-2,0,0,1,-1,-2,-1,0
8.977699,-1,-1,-2,0,-2,-1,-2,0,0
8.977726,-3,-1,-2,-2,-2,0,-1,-1,0
8.979628,-2,0,-1,-3,0,-1,0,-2,0
8.979635,0,0,-2,-1,0,0,-1,-2,0
8.999933,-1,-2,-1,0,-1,-1,-1,0,0
8.999977,0,-1,0,-1,-1,-1,-1,-2,0
9.000531,-2,-1,-2,-1,-2,-2,0,-1,0
9.000551,-1,0,-2,-1,-1,-3,0,-2,0
9.014656,1,0,-2,-2,-1,0,-1,-1,0
9.014678,1,0,-1,0,0,-2,0,0,0
9.015543,0,-1,-1,-2,-1,1,-2,0,0
9.015588,-4,-2,0,-3,-1,1,-2,-1,0
9.037569,0,-1,-1,-1,-1,-1,-2,-1,0
9.037598,-1,-1,-2,-1,-1,0,1,-1,0
9.039148,-1,-1,1,0,-1,-2,-1,-1,0
9.039152,1,0,-1,-2,-2,-3,-1,-1,0
9.060421,-3,-2,-2,-1,-1,-1,-2,0,0
9.060428,4,0,1,0,-2,0,-3,-1,0
9.060429,-1,0,0,-1,-2,-1,-1,1,0
9.060431,-3,-1,-1,1,-3,-2,0,-1,0
9.074819,-1,-1,0,-2,-1,0,-1,-1,0
9.074823,-3,0,-2,0,0,-1,0,-1,0
9.075393,-2,-1,0,0,-1,-2,0,-1,0
9.075400,-1,-1,-1,-1,-2,-1,-2,-2,0
9.097246,0,0,-2,-1,-1,-1,0,1,0
9.097267,-1,0,-2,-2,-1,0,-2,0,0
9.098739,0,-1,-2,-1,-2,0,-1,-1,0
9.098742,0,0,-1,-2,-2,0,1,-1,0
9.122588,-1,-1,0,-2,-2,-1,-1,-2,0
9.122597,-2,-2,0,-1,-2,-3,0,-1,0
9.122599,-1,-2,-2,-1,-1,-1,-2,0,0
9.122600,1,0,1,0,-1,-2,-2,-1,0
9.134701,-3,0,1,-2,0,-2,-1,-2,0
9.134723,-4,1,0,-1,0,-1,-1,0,0
9.137408,1,-2,0,0,-2,-2,-3,-3,0
9.137425,-2,-2,0,-1,0,0,0,0,0
9.157559,0,-1,0,0,-1,0,-2,-1,0
9.157594,-4,-2,-1,-3,0,-1,-1,-1,0
9.157873,2,0,-2,-2,-1,1,-2,0,0
9.157889,-2,-1,-2,0,0,-1,0,-1,0
9.179901,2,-1,-2,1,-1,-1,-1,-2,0
9.179928,-1,-2,-1,-1,-2,-1,-1,-2,0
9.181697,-2,-1,-1,-2,-1,-2,0,0,0
9.181709,1,-1,-2,-2,0,-2,-2,-1,0
9.194680,-3,-3,-2,0,1,0,0,0,0
9.194698,1,-1,-1,-2,-2,-3,-3,-1,0
9.195909,-1,0,0,-1,1,-1,0,0,0
9.195913,-1,1,0,0,0,0,-1,-2,0
9.217790,-2,0,0,-1,-1,-1,0,-1,0
9.217811,-2,-2,-1,0,0,0,-3,-1,0
9.218166,-2,-2,-1,-1,1,-1,-2,0,0
9.218323,-1,-2,-2,-1,-1,0,-1,0,0
9.239925,-1,-2,-1,0,-1,-1,-1,-1,0
9.239952,-2,-1,0,-1,-1,0,-1,-1,0
9.241056,-3,0,-1,0,-2,0,1,0,0
9.241060,-4,-2,0,-1,-1,-2,-2,-1,0
9.254722,1,0,0,0,-2,0,1,0,0
9.254740,0,0,-2,1,-1,-1,-1,0,0
9.255759,-5,0,-1,0,-2,-1,-1,-2,0
9.255765,4,0,0,0,0,-1,-1,0,0
9.277799,1,-1,-1,-2,-1,0,-1,-1,0
9.277806,-2,-1,-2,-1,-2,-1,-1,1,0
9.277928,1,0,-1,-2,-2,-1,0,-2,0
9.277934,-2,-1,-1,-2,-1,-2,-2,-1,0
9.299988,-1,0,-1,-1,-2,0,-1,-1,0
9.301145,-1,-1,0,-1,-1,1,0,-1,0
9.301148,-2,-1,1,1,-1,-1,-1,-1,0
9.301150,-3,-2,-1,-1,-1,-2,0,-1,0
9.314899,1,-2,-1,-1,1,-2,-2,-1,0
9.314920,-2,-1,-2,-2,-2,0,0,-1,0
9.316933,0,-1,-2,0,-2,0,1,-2,0
9.316938,-1,0,-1,-1,0,0,0,-1,0
9.337649,0,-1,0,0,-3,-2,-1,-1,0
9.337697,1,0,-1,1,-1,-2,0,0,0
9.340461,1,-1,0,-2,0,-2,-1,-2,0
9.340473,-2,-1,-1,0,-1,-1,1,-1,0
9.359691,-1,1,-3,-1,0,0,-1,-1,0
9.359708,1,0,0,-1,0,-1,0,-1,0
9.360367,0,0,-1,-2,0,-1,-1,-1,0
9.360383,-3,-1,-1,-2,-2,-1,-2,-1,0
9.374703,-2,-1,-1,-1,-1,-1,0,-1,0
9.374722,-1,-1,1,-2,-2,-1,-3,-2,0
9.376071,-2,-2,0,-1,0,1,-2,-1,0
9.376075,2,-1,-2,-1,-1,-2,-1,-2,0
9.397548,-1,0,0,-2,-3,-2,-1,-2,0
9.399213,-2,0,-2,0,0,-1,-3,-1,0
9.399220,0,-2,0,-2,-1,-2,-1,0,0
9.399221,-1,-1,-2,0,-3,-1,-1,0,0
9.419709,0,-1,0,-1,-1,-1,0,0,0
9.419733,-3,-3,0,-1,-1,-1,1,-1,0
9.420569,-2,-1,0,-1,-1,-2,-1,-2,0
9.420597,-1,0,0,-1,0,0,-2,1,0
9.434563,0,-2,-1,-2,0,-1,0,-2,0
9.434571,0,-2,0,-2,-1,1,0,-1,0
9.435237,0,-1,-2,-1,-1,-1,0,-1,0
9.435249,-1,-1,-2,-2,-2,-1,1,-1,0
9.457859,-6,-1,-2,-1,0,-1,-3,-1,0
9.457895,4,0,-1,-2,0,0,-1,-2,0
9.459786,-1,0,-1,0,-2,0,0,-1,0
9.459793,-2,0,0,0,0,-1,-2,-1,0
9.482764,-3,1,-1,0,1,-2,-2,-1,0
9.482772,-1,-3,-2,-1,0,-1,-2,-1,0
9.482776,0,1,-3,0,0,-1,-1,-1,0
9.482780,-1,-1,-2,0,-1,-1,-1,1,0
9.494782,0,0,0,-2,-2,-1,0,1,0
9.494806,-2,0,0,-1,-3,-1,-2,-2,0
9.496738,1,-2,-2,-2,-1,-1,-3,-2,0
9.496744,0,-1,1,-2,0,-1,-1,0,0
9.517224,-1,-2,-2,-1,-1,-1,-2,-1,0
9.517243,-1,1,-2,0,1,-1,1,-1,0
9.517782,-3,-2,0,-2,0,0,-2,0,0
9.517864,0,0,-1,-3,-2,-1,-3,-3,0
9.539855,5,1,0,-1,-1,-1,1,0,0
9.539877,-3,-2,-2,-1,-1,-1,0,1,0
9.541584,-2,-1,-1,1,-2,0,0,-2,0
9.541588,-1,0,-1,-1,-1,-1,1,-1,0
9.554351,-2,-1,-1,0,-1,2,-1,-2,0
9.554378,-3,-2,-2,0,-2,-2,-1,-2,0
9.562529,2,-1,-1,-1,-1,-2,-2,-1,0
9.562545,-1,-1,0,0,-2,0,0,1,0
9.577933,-5,0,0,0,1,-1,-1,-2,0
9.577957,4,1,-1,-1,-2,-2,-1,0,0
9.578536,-2,-1,-1,-2,-1,0,-1,1,0
9.578553,0,0,-1,0,0,-1,-2,-1,0
9.599697,0,-2,-1,-2,0,-1,-1,0,0
9.599713,-5,-1,0,2,0,1,-1,0,0
9.600948,-2,-2,-2,1,-2,-1,-1,0,0
9.600952,2,0,0,-1,-1,0,-1,0,0
9.614213,-1,-1,-2,-1,0,0,0,-1,0
9.614234,-2,-2,0,-1,-1,-2,-2,-1,0
9.622272,0,1,-1,-2,-2,-1,-1,-2,0
9.622294,-4,-1,0,-1,0,0,-3,-2,0
9.637223,-1,-1,-1,0,-1,-1,-1,-1,0
9.637308,2,-1,-1,-2,0,0,-1,0,0
9.638028,-1,-1,-1,0,-1,-2,-2,-1,0
9.638042,0,-1,0,0,-1,-1,1,-1,0
9.659724,-2,-1,-1,-1,0,-1,-2,-2,0
9.659741,2,-2,-1,-1,-2,-1,1,-2,0
9.661137,-1,0,-2,-1,-1,-2,1,-1,0
9.661141,-1,-1,0,-1,-2,0,-1,-1,0
9.674156,-1,0,-1,-2,-1,-1,-1,0,0
9.674172,-2,1,-2,-1,-1,-1,0,0,0
9.683118,-2,-1,-2,-1,-1,2,0,0,0
9.683122,1,-1,-2,1,0,-1,1,-1,0
9.699132,0,-2,-1,0,-3,0,1,-2,0
9.699139,-1,-2,-2,-2,0,-1,-3,-1,0
9.699141,-2,-1,-1,-2,-1,0,0,0,0
9.699142,-2,-1,-2,-1,-1,-2,-1,-1,0
9.719716,-2,-1,-2,-1,-2,0,-1,-1,0
9.719737,0,-1,-1,-2,-3,-2,0,0,0
9.721368,0,0,1,-2,1,-1,-2,0,0
9.721372,-1,-1,-2,-2,-1,1,-2,-3,0
9.742939,0,-1,-1,-2,-1,-1,-1,-1,0
9.742961,-1,-1,-1,-1,-1,0,-1,-1,0
9.744179,-2,-1,-2,0,0,0,-1,0,0
9.744194,-3,-1,-1,-1,1,-1,-1,1,0
9.757641,4,1,0,-1,-1,-2,0,-1,0
9.757678,-3,-1,-1,-2,-1,-1,-1,-1,0
9.759407,-1,-1,-1,-1,-1,-2,0,-3,0
9.759417,-1,-1,-2,-1,-2,-2,-1,-2,0
9.779969,-2,-3,-3,-2,-1,-3,-2,-2,0
9.780000,-2,-1,1,-2,0,-2,-1,-3,0
9.781521,-2,-2,-1,0,-1,-1,-1,0,0
9.781527,1,-1,-2,-1,-1,-2,-2,-1,0
9.794084,-1,-2,-1,-2,1,-1,-1,0,0
9.794105,-1,0,0,-1,-1,1,0,0,0
9.802447,-4,-1,-1,-1,1,0,-2,0,0
9.802476,1,0,0,-1,-2,-2,0,0,0
9.817146,-1,-2,-1,1,-2,-2,-1,-2,0
9.817166,-2,-1,-2,-1,0,0,-1,-1,0
9.819214,0,-2,0,0,0,-1,-1,-3,0
9.819221,-2,-1,-2,-1,1,0,-2,1,0
9.839684,-1,1,-1,0,0,-1,0,-2,0
9.839702,-1,-1,-1,-2,-2,-1,-2,0,0
9.840588,1,0,-1,0,-2,-1,0,-1,0
9.840610,1,-1,-1,1,-2,-1,-1,-1,0
9.855586,-1,0,-2,-2,-1,-1,-1,1,0
9.855593,-3,0,-1,1,0,-1,0,1,0
9.862269,0,-1,-2,-1,0,0,-2,0,0
9.862290,-6,-1,-1,-2,-1,0,0,-2,0
9.877296,0,1,-1,-1,0,1,0,-2,0
9.877324,0,-2,-2,-1,0,0,0,-1,0
9.879623,-1,0,-2,-2,-2,-1,-1,0,0
9.879631,-1,-1,0,-2,-1,0,-1,-1,0
9.900114,-1,0,0,-2,-1,0,-2,-2,0
9.900141,-2,-1,-1,-2,-1,-2,-3,-2,0
9.902050,-2,-2,0,-2,0,-2,0,-1,0
9.902054,0,-1,-1,-2,-1,1,-1,-2,0
9.923096,-2,-2,-1,0,-2,-1,-1,1,0
9.923132,-3,0,-1,1,1,1,-1,-1,0
9.925802,2,0,-2,1,-1,-2,-1,-1,0
9.925814,3,0,-2,2,0,-2,-1,1,0
9.937617,13,1,-2,-1,0,1,-1,0,0
9.937655,-17,-3,-2,-2,0,-2,-1,-2,0
9.938275,4,2,0,0,0,-1,-1,0,0
9.938297,-17,-6,-1,-1,0,-1,-1,-2,0
9.959731,2,0,-2,0,-1,-1,0,-1,0
9.959751,5,-1,0,0,-1,-1,0,-1,0
9.961562,1,1,1,0,-1,0,-1,0,0
9.961567,2,0,-2,0,0,-1,-2,0,0
9.982888,-6,-4,-2,-2,-1,-2,-1,0,0
9.982909,5,0,-1,-1,-3,-1,-1,-2,0
9.983533,-5,-2,-1,-1,-2,-2,-2,-1,0
9.983547,3,-1,0,-1,0,-1,0,-2,0
9.997175,-6,-3,-1,1,1,-1,-1,1,0
9.997192,1,-1,0,0,1,0,0,-1,0
9.998031,-1,-1,-2,-1,-1,-1,0,1,0
9.998045,2,0,0,-2,-4,-1,-1,0,0
12.022572,82,51,-1,-1,-2,-8,-9,22,2
12.023157,-74,-81,6,-3,-5,-3,7,-5,2
12.029365,74,97,7,5,9,11,-1,21,2
12.029454,-22,-57,-12,-3,-11,-20,-5,-14,2
12.045698,15,-10,3,0,8,-5,5,-1,2
12.047926,-16,15,-5,-3,-3,18,-9,-22,2
12.047934,-26,-8,-6,0,2,-2,27,54,2
12.047936,16,1,1,0,-9,-13,-13,-19,2
12.067796,3,-32,-8,-5,2,-5,-2,-8,2
12.067818,-26,-31,-2,-1,-3,0,1,9,2
12.069317,-18,-39,5,2,-21,4,-6,-66,2
12.069333,-11,36,-2,-2,29,-19,-4,2,2
12.082759,31,6,4,2,16,7,-6,43,2
12.082779,-59,52,-4,-3,-22,-20,-5,-26,2
12.089193,70,3,-6,-5,3,4,0,-35,2
12.089226,17,-27,-2,0,-21,-6,7,-3,2
12.105348,-34,-58,-1,0,2,-7,-7,-6,2
12.105368,16,3,-3,1,9,6,0,19,2
12.106961,-43,111,2,-1,-10,-4,-16,-48,2
12.106972,6,-36,-4,-1,-1,-10,-5,4,2
12.127790,40,66,8,0,0,0,-1,20,2
12.127799,11,-32,-8,1,7,58,23,36,2
12.129353,20,-56,-10,-9,-14,-45,-8,-2,2
12.129369,5,65,8,3,0,1,7,-11,2
12.142973,-40,12,0,1,-18,-7,-16,24,2
12.142983,53,11,3,-2,17,10,10,41,2
12.149168,-24,20,-7,2,8,10,-4,-30,2
12.149190,0,15,4,2,-2,-6,-1,19,2
12.165361,18,26,-2,-4,-14,3,-5,-41,2
12.165385,4,-88,-7,-1,-7,-11,1,-15,2
12.166858,4,2,-5,-3,5,11,-11,22,2
12.166865,37,-20,1,-1,-21,-8,9,25,2
12.189224,-29,1,2,-1,23,-1,-11,-25,2
12.189233,-2,27,4,3,-7,-5,-4,-4,2
12.189341,-15,-31,-2,-3,6,7,-6,-13,2
12.189403,2,60,6,2,1,3,15,45,2
12.202238,-10,-35,-1,-3,0,-4,-11,-17,2
12.202260,18,-25,7,3,-3,-8,-1,-2,2
12.209050,-20,-32,-2,-2,-5,5,12,35,2
12.209074,25,24,-10,-5,1,-10,-17,19,2
12.225409,-22,-23,-1,2,3,2,2,10,2
12.225451,-37,2,0,-2,-36,-11,-3,-4,2
12.226902,3,12,7,2,31,12,1,2,2
12.226918,7,27,3,1,-1,-3,6,-13,2
12.247824,7,-1,-2,0,7,-3,-5,-21,2
12.247847,-24,49,5,1,15,11,0,-8,2
12.249384,44,-52,10,3,-29,-13,1,38,2
12.249516,-68,-28,-14,-10,-6,8,4,-29,2
12.262972,9,-34,-18,-6,-8,-5,-1,-4,2
12.262994,-26,34,-3,-4,6,-5,-1,3,2
12.269390,-69,-4,1,1,-1,-10,-1,-21,2
12.269547,61,-38,1,-2,16,40,19,-2,2
12.286000,-39,-1,1,1,-20,-8,-5,-30,2
12.288009,-37,38,1,0,5,-4,0,25,2
12.288018,37,1,-3,-2,6,10,7,14,2
12.288020,-35,0,-4,-4,-17,-29,-24,-44,2
12.308054,-20,4,0,5,6,13,0,-2,2
12.308070,62,-34,4,0,28,5,13,3,2
12.309370,106,112,9,2,-8,-13,-6,43,2
12.309383,-91,-82,-24,-11,-5,-4,-23,-76,2
12.321672,61,-19,-4,4,29,7,2,-3,2
12.321691,51,39,8,-1,-34,1,-2,19,2
12.332437,35,-26,-9,-2,1,12,-2,-23,2
12.332443,-25,53,11,5,5,-4,5,29,2
12.345326,-7,22,7,1,2,-1,-3,-34,2
12.345339,-8,-24,-6,-3,-2,-8,-2,24,2
12.346825,-43,32,1,-1,3,8,-5,-71,2
12.346844,9,-48,4,3,4,1,0,13,2
12.367838,-14,-20,-9,-6,-6,-9,-11,42,2
12.368146,22,38,2,3,1,5,18,-33,2
12.369894,23,-19,4,-1,0,-1,3,13,2
12.369903,4,44,-1,0,-21,-8,-1,21,2
12.381745,-65,-54,-6,0,21,-14,-5,-36,2
12.381768,13,-39,-18,-9,1,55,-7,-14,2
12.391444,-33,-23,0,1,-4,-28,-2,16,2
12.391451,68,66,1,-1,-11,-6,-2,36,2
12.405926,-12,-17,12,3,3,6,8,-5,2
12.405931,-28,-19,-2,2,4,-7,-8,-6,2
12.407120,-36,-9,-8,-3,-5,8,0,-23,2
12.407140,-12,9,10,4,12,5,-3,7,2
12.427917,52,51,0,-5,-12,-8,11,65,2
12.427936,9,53,8,3,17,-22,-26,-93,2
12.430114,20,-32,5,-1,-14,21,10,50,2
12.430118,-14,-95,-23,-6,-6,-15,-8,-31,2
12.441564,57,21,0,0,14,8,-5,-13,2
12.441587,38,15,-1,-3,-43,-13,7,61,2
12.453228,-40,39,8,4,47,7,-7,-22,2
12.453238,58,18,3,3,26,-15,-12,-12,2
12.465757,-53,-6,-9,-5,-23,36,8,-9,2
12.465788,24,-46,0,-1,0,-10,3,33,2
12.467810,-29,-42,-6,-3,-7,-5,-6,-33,2
12.467819,6,18,5,2,-1,2,11,15,2
12.488034,9,0,-2,-2,-1,-17,-9,-4,2
12.488061,64,37,3,-2,1,-11,-6,6,2
12.489906,2,-6,-6,-1,-5,8,5,42,2
12.489922,-117,-32,-8,-4,0,0,-9,-93,2
12.501696,108,-9,0,-2,-13,-7,1,37,2
12.501712,-50,-6,-5,-6,-10,-47,-10,-52,2
12.512032,64,0,-2,-4,-24,-21,5,91,2
12.512041,4,15,4,2,-35,7,-5,18,2
12.525482,-33,17,2,0,41,8,2,0,2
12.525498,-8,-25,-2,1,4,-11,-8,-3,2
12.527652,5,-11,-10,-3,3,16,-3,-18,2
12.527700,-10,33,7,3,26,4,12,38,2
12.547809,67,13,4,-5,-63,-5,-4,41,2
12.547826,-18,-5,-3,4,23,11,13,0,2
12.549556,17,20,-1,-1,0,-4,-2,-20,2
12.549571,18,20,-1,-3,6,8,-6,29,2
12.561427,21,0,4,0,3,0,1,4,2
12.561436,-54,-46,-5,-2,1,9,-1,9,2
12.572877,-12,20,-6,-2,-7,-3,-4,-40,2
12.572886,16,-7,-3,-3,5,15,-3,45,2
12.585590,-58,22,4,2,-29,-11,6,-6,2
12.585620,-33,3,0,0,21,1,-6,-2,2
12.588013,-33,10,-6,-3,8,8,7,21,2
12.588018,6,-30,1,-1,0,-17,-6,-15,2
12.607914,13,9,-2,0,0,-2,1,-15,2
12.607930,3,42,14,5,-3,8,-8,-12,2
12.609298,-33,-42,-5,-1,-3,-43,2,-18,2
12.609308,70,20,-1,-4,-4,59,15,35,2
12.622915,-31,-29,-7,-2,4,-1,-3,-73,2
12.622920,-12,-7,-2,-2,-19,15,3,-1,2
12.632567,1,31,4,-3,12,2,-22,-9,2
12.632572,42,-18,-6,0,-15,-30,11,-10,2
12.645438,-53,-1,7,3,11,0,-6,31,2
12.647783,28,-1,-6,-4,0,4,15,16,2
12.647791,21,31,7,0,-23,0,-7,-6,2
12.647793,70,-70,-16,-6,18,-8,-7,-49,2
12.669830,4,0,1,1,5,17,6,10,2
12.669837,98,6,-1,-1,-7,-6,-1,30,2
12.669840,-108,-52,0,0,1,2,-1,-7,2
12.669842,15,45,3,-2,-4,-6,-6,-2,2
12.681962,-7,17,1,1,5,-7,0,-7,2
12.681996,26,-15,-4,-3,6,-2,-4,6,2
12.692683,7,-26,4,1,-17,12,3,-15,2
12.692690,-100,26,11,3,-8,-6,4,12,2
12.705393,47,-14,-9,-1,9,-7,-11,-29,2
12.705416,-10,32,-1,-2,-11,1,-18,-37,2
12.707710,-28,2,0,2,6,-1,0,-6,2
12.707719,54,-45,-3,-1,5,-7,-3,13,2
12.727912,-50,17,8,2,-4,3,4,19,2
12.727934,-14,-13,-3,-3,-34,-12,-2,-20,2
12.730236,64,18,-5,-3,36,6,2,18,2
12.730244,-45,4,2,0,-5,-9,-5,-15,2
12.750792,9,5,-1,-4,2,-4,2,-8,2
12.750820,-40,-44,-8,-2,1,-1,-8,-1,2
12.753882,28,34,2,-1,-20,1,0,20,2
12.753894,-39,46,11,3,5,-34,3,13,2
12.765338,5,-68,-15,-9,-18,42,2,-13,2
12.765391,30,8,-2,-1,16,-4,9,35,2
12.766772,24,-3,4,0,-11,4,3,-1,2
12.766786,-14,18,2,2,3,4,-3,8,2
12.787974,-54,-20,-5,-2,14,-19,-11,-31,2
12.787993,-21,35,0,-1,11,8,7,42,2
12.789622,76,-52,-8,0,-12,3,-4,-55,2
12.789652,14,34,2,2,5,2,2,1,2
12.810598,-80,3,2,0,7,-8,-3,-18,2
12.810615,19,-29,-7,-3,1,7,0,-11,2
12.812011,56,23,-1,-2,2,-9,-7,32,2
12.812100,-57,-21,-6,-3,-14,-3,-3,-16,2
12.825351,39,22,3,2,-1,-8,2,4,2
12.825368,-39,1,2,-1,-4,-2,0,-1,2
12.826897,-12,15,2,1,2,0,-5,-10,2
12.826914,21,6,3,0,-10,-10,2,-14,2
12.847964,-45,-75,-20,-7,3,14,1,15,2
12.847982,27,42,7,0,2,7,8,21,2
12.849299,34,-42,-2,1,-14,-6,2,-14,2
12.849321,-68,-8,-7,-3,2,2,-6,-51,2
12.872119,52,35,6,1,-6,-23,-15,10,2
12.872132,2,18,-1,-3,-40,23,17,35,2
12.872135,-35,48,2,1,48,1,-5,-102,2
12.872137,44,-20,-10,-5,-4,23,3,21,2
12.888145,42,33,-1,-4,-3,-12,-2,2,2
12.888153,-75,-48,-1,2,-8,-12,-9,-9,2
12.888156,3,41,3,-2,-5,2,4,15,2
12.888158,13,-14,5,1,-14,1,3,13,2
12.907845,0,18,5,4,24,5,0,2,2
12.907860,9,11,-1,-3,5,-20,7,-26,2
12.910261,-9,-32,-11,-5,-7,-1,0,16,2
12.910270,62,-4,-1,-2,5,-15,-12,3,2
12.930455,21,1,8,0,-10,20,15,24,2
12.932559,3,-58,-7,-2,10,3,-12,-36,2
12.932565,20,9,2,1,3,2,3,-9,2
12.932567,-79,-30,-8,-4,-3,-3,-9,-30,2
12.945113,44,-1,-5,1,1,-7,1,-56,2
12.946803,-59,58,3,1,10,-2,-15,-19,2
12.951458,-18,-76,-9,-4,-21,-3,7,9,2
12.951480,30,10,4,2,61,1,2,4,2
12.967809,33,20,3,-1,-18,-1,-7,8,2
12.967820,-3,-41,-3,0,-12,-3,-4,-2,2
12.969814,-42,22,3,0,0,-4,-3,29,2
12.969844,80,-1,-2,-1,-10,8,3,-2,2
12.990614,-94,-42,-15,-8,-10,-7,9,34,2
12.990662,49,28,4,1,33,-1,-5,26,2
12.992260,-43,-23,-2,-1,-4,-2,0,-56,2
12.992264,27,32,5,2,-22,2,5,45,2
13.004746,-41,-3,4,4,3,3,3,10,2
13.004763,71,-19,-9,-4,-6,-8,-9,-40,2
13.011889,-5,-3,-6,-2,6,-7,-1,8,2
13.011919,-28,57,5,1,-2,6,-2,-32,2
13.028199,52,-50,-5,-4,-30,-15,-8,15,2
13.028205,5,25,3,2,57,2,8,11,2
13.029350,-44,13,-3,-1,-20,2,-4,25,2
13.029399,-43,-18,-6,-3,-5,0,-4,-5,2
13.050560,28,37,4,1,-8,2,-11,39,2
13.050582,49,18,6,2,-3,10,12,35,2
13.053516,-5,-8,-5,-3,8,-9,-13,-72,2
13.053530,-14,2,0,-1,-30,-1,1,59,2
13.065417,-11,-58,-8,-3,17,-5,-9,-80,2
13.065447,20,17,6,1,-10,6,5,7,2
13.071550,-2,30,-3,-2,7,0,-5,37,2
13.071569,33,-54,-1,0,-38,-4,3,3,2
13.088490,22,49,9,3,37,11,3,-8,2
13.088520,-21,-35,-7,-1,5,-6,-3,7,2
13.090296,18,-17,0,0,6,1,-1,15,2
13.090309,-93,-21,-6,-5,8,-2,-3,-33,2
13.110711,33,44,3,-1,-22,-5,0,17,2
13.110830,9,7,3,-1,-11,-4,-9,-6,2
13.112990,-16,-8,-10,-6,-10,-1,-2,6,2
13.112994,-8,8,-2,-1,12,3,0,8,2
13.124996,-28,3,0,2,16,-6,-2,-37,2
13.125039,-39,-9,-5,-2,-10,-2,1,43,2
13.131853,-35,13,4,0,-3,-2,-5,-3,2
13.131882,52,14,-5,-3,9,-2,-3,-13,2
13.148210,6,-22,-4,-5,-1,-6,1,19,2
13.148245,-29,12,1,-2,-14,2,-10,-43,2
13.151591,87,22,7,2,19,2,6,41,2
13.151597,-85,10,2,6,42,-9,-9,-14,2
13.170427,-71,-36,-8,-6,-58,23,8,15,2
13.170460,33,-7,-15,-5,7,-2,-13,-15,2
13.172082,19,8,-3,-3,-9,-2,18,17,2
13.172101,63,11,4,2,-2,2,-1,-9,2
13.189413,19,15,2,1,3,-11,1,22,2
13.189449,-24,-18,3,1,-8,-4,4,-21,2
13.191668,-26,28,6,2,-2,6,-1,14,2
13.191707,16,-7,-5,-4,-2,-6,-7,-14,2
13.207909,39,-10,-1,1,11,-4,3,10,2
13.208877,-28,46,-5,-4,-11,-5,0,25,2
13.209331,-12,-48,2,1,-11,1,-4,-31,2
13.209339,54,9,2,0,15,-1,8,61,2
13.230517,-54,-20,-7,-3,1,-3,-15,-49,2
13.230538,40,30,6,6,13,-2,9,0,2
13.232222,-58,-20,-5,-4,-8,2,5,36,2
13.232288,10,-42,2,0,-12,2,2,-35,2
13.244620,68,30,2,0,5,-1,2,19,2
13.244630,-53,-29,-3,-1,-10,5,-2,7,2
13.253717,33,7,1,1,9,-15,-12,-1,2
13.253732,22,42,4,1,-4,26,20,-11,2
13.267971,-67,-27,-6,-2,11,-9,-13,-32,2
13.267994,-31,-30,-4,-3,-16,3,3,-21,2
13.269674,45,13,-3,1,-23,0,-7,19,2
13.269691,-52,0,6,-3,-1,-9,-14,-2,2
13.290554,-24,-16,1,3,6,-2,12,23,2
13.290575,83,26,-3,-2,5,-4,-8,-35,2
13.291970,-6,-57,-9,-3,-2,-5,-4,-28,2
13.292025,1,25,-1,0,-18,3,-2,25,2
13.304168,16,15,3,0,8,2,0,5,2
13.304194,-21,6,5,0,9,-5,0,1,2
13.313986,48,33,8,2,7,8,0,11,2
13.313992,-56,-28,-10,-2,-7,-15,-3,-27,2
13.327816,-6,-3,-4,-4,-4,-1,-6,93,2
13.327835,9,-27,-8,-4,1,-6,-13,-83,2
13.329308,-98,-6,0,-1,5,2,-5,28,2
13.329318,39,22,7,0,-1,-4,5,17,2
13.350421,31,-33,-5,-1,5,14,-2,-14,2
13.350437,4,-22,-1,-2,-16,-8,1,12,2
13.352234,63,36,-2,-3,3,3,4,-7,2
13.352245,-7,-17,-7,-2,-2,-2,-1,-20,2
13.364082,7,21,-1,0,2,-8,2,-2,2
13.364104,-24,1,5,-1,-4,1,1,16,2
13.372904,55,9,5,1,14,4,3,-19,2
13.372924,-14,-2,-9,-1,3,0,-3,23,2
13.388313,17,22,1,1,7,-1,0,-7,2
13.388322,-66,-43,-7,-5,-19,0,-5,-9,2
13.389435,-28,18,-3,-2,3,-3,1,20,2
13.389447,27,8,-1,0,3,0,-10,-55,2
13.410437,-57,18,8,2,-17,-3,1,-18,2
13.410460,117,31,8,4,13,-2,2,41,2
13.412395,-128,-78,-20,-7,-5,-1,11,-9,2
13.412399,32,-37,-9,-4,-5,2,-2,32,2
13.424589,37,12,0,-2,-1,-2,-4,-29,2
13.424619,-56,8,2,3,-40,-5,8,15,2
13.434450,67,42,8,1,48,-1,0,19,2
13.434459,-14,-11,0,-1,-8,0,-5,-33,2
13.448288,-5,19,2,2,6,-2,4,-5,2
13.448321,-27,51,7,1,9,-3,-5,29,2
13.450701,72,-80,-10,-6,-31,-3,-3,-3,2
13.450710,-103,-26,-1,2,-10,0,5,-6,2
13.470792,43,17,2,-1,18,-4,-4,-12,2
13.470828,-10,34,-2,-3,5,-1,-4,-15,2
13.473286,-2,-26,2,-1,-9,-2,-5,9,2
13.473295,3,7,4,-1,9,-1,-4,-24,2
13.484219,43,2,-4,-1,-10,-2,1,4,2
13.484239,13,-16,-5,-2,6,0,2,9,2
13.493232,-90,44,13,5,3,2,0,-9,2
13.493239,17,31,5,-2,-27,-29,-5,63,2
13.509440,-102,-95,-22,-7,29,24,-20,-72,2
13.509463,1,-2,-2,-1,3,-12,1,-38,2
13.511393,63,20,0,3,1,7,11,21,2
13.511397,38,37,3,0,7,-4,-6,16,2
13.530432,25,36,5,1,-16,-5,-3,16,2
13.530450,22,-17,1,0,3,4,-1,19,2
13.532010,-66,9,2,1,7,-1,-6,-40,2
13.532117,5,-35,-10,-4,-1,3,-2,18,2
13.543980,45,2,-1,-2,-12,-4,9,-16,2
13.543993,-68,-58,-9,-5,6,5,-1,7,2
13.554751,43,22,1,0,-11,-7,1,3,2
13.554757,42,9,2,-1,11,7,0,-15,2
13.568545,-50,-2,2,-1,-52,-11,0,31,2
13.568577,52,0,0,3,33,0,0,-6,2
13.570970,3,9,-3,-4,-9,1,-3,-15,2
13.570980,-50,-31,-8,-5,14,6,2,1,2
13.592601,49,36,4,4,-3,-5,4,17,2
13.592608,34,22,2,1,-10,3,4,-2,2
13.592610,16,-21,-6,-6,0,-33,-11,5,2
13.592612,-62,-53,-5,-2,5,42,-11,-15,2
13.604278,61,37,-2,-3,-7,-4,2,-29,2
13.604311,-9,12,-1,-1,3,2,9,34,2
13.614865,23,2,-2,-2,-1,-2,1,-19,2
13.614871,4,32,9,4,-7,-9,3,4,2
13.627913,-1,-4,3,-2,-26,-1,-4,3,2
13.627933,-42,6,0,4,35,6,-8,18,2
13.629264,13,-40,-1,2,-13,5,1,-1,2
13.629289,-2,-2,-3,-1,7,-8,-2,-8,2
13.650256,17,-14,-2,-4,7,1,4,20,2
13.650272,-36,0,-4,-3,-18,-6,-1,9,2
13.651742,-25,39,4,1,-10,1,-5,-15,2
13.651753,92,1,-4,-2,1,1,5,9,2
13.664296,-70,-1,1,0,15,-7,-2,3,2
13.664318,-22,-10,7,1,-4,-17,-6,-6,2
13.673824,-73,-15,-20,-7,0,29,6,9,2
13.673828,95,15,-5,-3,-17,-10,2,13,2
13.687970,-89,-34,2,-1,7,-5,-1,-26,2
13.687994,2,7,-4,1,-6,3,-5,-22,2
13.689616,-1,5,6,1,-2,-4,-1,-5,2
13.689641,3,19,2,1,-5,-6,3,-2,2
13.711025,-6,1,-1,-2,42,5,2,35,2
13.711054,-10,16,-2,-1,-11,3,2,-5,2
13.712738,-22,1,2,-1,-1,-6,-9,-2,2
13.712742,13,54,8,3,9,3,15,14,2
13.732811,-65,-49,-5,-1,-3,-5,-6,-9,2
13.732826,86,-9,-4,-1,-1,6,-6,15,2
13.734242,27,-1,-1,-2,-7,0,5,30,2
13.734253,6,15,3,-2,1,-4,-2,-21,2
13.747781,42,6,4,1,-25,2,1,-16,2
13.747795,57,-4,-4,-2,2,0,0,-2,2
13.749254,-24,-3,-5,-1,4,-2,-7,-10,2
13.749270,-11,-17,-1,0,1,-1,1,11,2
13.770810,36,9,-4,-1,3,-3,0,-3,2
13.770848,-22,-6,-1,-3,-5,2,3,7,2
13.773168,39,19,5,2,4,-3,0,-10,2
13.773179,-16,10,3,2,0,0,-1,26,2
13.792915,3,13,-5,-1,-14,-4,-9,-55,2
13.792922,25,-6,-2,0,5,0,1,-14,2
13.794305,20,-3,-1,-2,-1,-3,-4,-6,2
13.794319,-56,-5,-5,-2,6,-14,-10,-8,2
13.808781,-17,-39,-2,0,0,30,14,25,2
13.808789,-14,27,2,-1,4,-3,-4,-20,2
13.809389,19,17,7,0,1,-3,0,30,2
13.809396,53,-3,-8,-4,-36,-9,20,-22,2
13.830794,6,-27,-2,1,9,-11,-10,-24,2
13.832925,-54,-32,-3,-2,-2,2,-4,-12,2
13.832932,34,81,10,0,15,6,2,13,2
13.832934,-106,-104,-7,-1,-3,2,-4,-10,2
13.854659,14,29,-2,-4,0,-7,-2,42,2
13.854670,-10,-13,-4,-1,-3,-1,-2,-68,2
13.854672,-31,-26,-3,-1,-9,-5,-3,-3,2
13.854674,11,43,6,0,9,1,-6,7,2
13.867239,65,21,-1,0,4,-2,-2,-8,2
13.867261,-58,-47,-5,-5,-12,-3,-3,-13,2
13.874022,33,53,4,0,28,-2,0,8,2
13.874039,25,-96,-8,-4,-3,-7,-4,-61,2
13.890694,27,8,1,0,6,8,1,49,2
13.892318,-8,20,0,-3,-9,-6,-3,8,2
13.892323,-4,-15,-7,-4,5,-4,-5,-48,2
13.892325,-25,-17,0,-1,-7,-2,-7,20,2
13.920525,9,39,3,-1,-11,0,15,-25,2
13.920544,-38,-11,-2,-1,8,-11,-18,-50,2
13.922246,-20,-54,-1,-1,-3,6,3,-3,2
13.922251,43,-3,-7,-4,9,0,-11,-8,2
13.927246,-29,19,1,-1,-9,-2,4,7,2
13.927263,7,0,5,2,-2,4,3,18,2
13.934021,-11,4,-2,3,-4,0,-2,1,2
13.934041,-34,-2,5,2,-15,2,2,5,2
13.951426,34,22,2,-1,39,-2,-6,-6,2
13.951549,20,-32,-2,-2,-4,-2,6,34,2
13.952153,-54,-5,-2,-1,-6,-3,2,15,2
13.952256,21,42,4,0,-2,5,0,-13,2
13.972886,12,-13,-1,-2,-16,-26,-9,7,2
13.972910,-5,49,3,0,11,27,7,16,2
13.974464,34,-8,-1,-2,10,-2,12,8,2
13.974472,20,17,0,0,-13,13,-14,-9,2
13.987630,-52,-37,-3,-1,14,2,3,-2,2
13.989287,-13,-22,-3,-1,-5,-8,0,40,2
13.994033,-46,12,-2,-1,-15,-4,-11,-28,2
13.994050,-25,20,-1,0,13,-1,-1,20,2
14.011055,76,-4,1,2,7,9,0,40,2
14.011060,28,18,1,0,-7,-8,4,-33,2
14.011841,-6,-42,-4,-1,0,5,0,22,2
14.011886,-60,28,4,1,-26,-9,0,2,2
14.032982,-8,-4,-2,1,18,9,5,-1,2
14.033005,14,-10,1,-1,-6,-2,-2,40,2
14.034667,-24,40,-2,-3,-2,-4,-6,-46,2
14.034713,48,-77,-8,-4,3,-13,3,-1,2
14.047910,-121,8,2,-1,-17,7,3,30,2
14.047932,1,52,2,-1,1,-3,-16,-23,2
14.054096,68,-58,-4,-2,-6,0,9,14,2
14.054181,-20,41,-1,-2,-7,-6,-9,21,2
14.070902,86,29,3,0,3,3,3,-25,2
14.070953,-78,-65,-5,-4,1,-4,1,-16,2
14.073338,21,9,-2,-1,-11,0,1,26,2
14.073345,9,69,4,-3,-24,-3,0,-2,2
14.092972,15,-70,-6,2,24,-2,-3,10,2
14.092993,21,13,4,3,1,8,7,-36,2
14.094553,-27,0,-7,-5,6,-11,-16,-30,2
14.094569,50,-41,-11,-4,13,2,16,-1,2
14.107392,-115,-7,-5,-5,-44,-20,-15,-28,2
14.107450,76,24,-2,0,0,6,4,35,2
14.114303,-11,-11,4,2,-7,1,-2,-39,2
14.114325,0,-8,2,-1,20,5,2,39,2
14.130843,24,40,2,-1,-8,-10,-8,-52,2
14.130866,10,-89,-6,-3,4,-2,2,11,2
14.133248,-5,-3,1,-1,-9,1,-1,10,2
14.133253,12,35,7,4,11,2,0,-14,2
14.153071,-5,14,-1,-2,2,3,-3,2,2
14.153086,-32,-39,-5,-3,-15,-1,-16,-7,2
14.154564,35,10,2,0,15,-7,3,14,2
14.154591,-33,0,-4,-2,-6,13,0,14,2
14.167517,-22,5,-3,0,-7,0,1,29,2
14.167533,48,46,5,-3,2,-2,4,21,2
14.174090,79,-12,0,3,-3,-8,1,6,2
14.174107,-97,11,-16,-8,-3,5,-22,-53,2
14.190765,62,-41,1,1,29,5,11,7,2
14.190793,-3,16,-5,-3,-9,-5,4,0,2
14.193271,-5,0,5,1,1,2,-7,-8,2
14.193277,55,43,9,1,7,-5,13,21,2
14.213035,6,6,-3,-6,-16,-1,-3,13,2
14.213041,-50,-47,-1,3,3,-2,-2,-5,2
14.214319,5,11,-1,-3,1,1,1,1,2
14.214335,6,-9,4,-1,-6,-2,-4,-14,2
14.227009,-40,-37,-2,-1,9,-2,-6,1,2
14.227013,37,59,8,-1,0,3,4,30,2
14.236064,-41,-69,-7,-4,-17,1,16,0,2
14.236089,31,15,2,1,-12,-2,1,-13,2
14.250656,-31,-26,-7,-3,-4,-4,-4,4,2
14.250679,83,18,1,-1,1,3,2,0,2
14.251914,-8,46,1,-2,-6,0,-6,-14,2
14.252047,4,-14,6,4,14,-1,1,8,2
14.273107,-31,22,8,2,-10,-10,1,-17,2
14.273131,22,-69,-20,-8,16,18,-4,-7,2
14.274660,12,19,1,-1,-4,-12,-7,10,2
14.274665,12,-39,-6,-2,5,-4,-3,6,2
14.286628,19,64,6,2,-2,4,-4,11,2
14.286660,-51,-10,-2,-4,-17,-10,3,-3,2
14.297880,8,-10,-5,1,2,4,-3,18,2
14.297886,23,34,8,3,15,4,1,17,2
14.310863,-73,5,-4,-1,1,-6,-6,-30,2
14.310893,56,-77,-12,-7,-32,-6,7,-6,2
14.313880,-11,-49,-7,-5,20,1,-14,-13,2
14.313887,-38,8,-1,-4,-6,-2,4,0,2
14.332925,37,-8,-5,-2,-7,1,-1,8,2
14.333943,3,50,10,5,17,-6,-4,0,2
14.334333,-39,17,1,0,-3,4,3,-10,2
14.334369,6,-28,-3,-1,-2,-5,-5,-18,2
14.346822,40,2,0,-1,-1,1,0,4,2
14.346839,-21,40,9,6,-13,2,1,16,2
14.356404,23,10,8,2,27,-8,2,-16,2
14.356424,-73,-90,-19,-6,2,0,-10,-48,2
14.370410,127,61,-3,-5,-11,5,-1,36,2
14.370421,-121,-86,-9,0,0,-7,5,-13,2
14.371961,3,11,1,1,-11,-4,-1,38,2
14.371977,4,24,4,2,1,-4,-1,-4,2
14.392898,-13,21,5,3,9,9,7,-2,2
14.392913,12,69,7,0,-5,-12,-11,-27,2
14.395437,54,-44,-7,1,-4,0,3,24,2
14.395444,-68,-34,1,-1,8,1,1,-4,2
14.406698,2,-11,-3,-1,-13,-7,-1,-12,2
14.406723,62,73,8,0,12,3,-2,8,2
14.416923,-80,-14,-1,0,-13,4,5,13,2
14.416930,51,22,-6,-3,11,-1,-7,-42,2
14.432483,-4,-7,4,0,-25,-24,-5,48,2
14.432489,30,6,-9,-5,31,27,2,-68,2
14.432491,-57,-48,-8,-4,-7,3,1,-32,2
14.432493,56,-36,4,2,-12,-1,2,-7,2
14.453245,-46,-22,-5,-2,2,-12,-11,28,2
14.453271,7,-14,2,0,-8,-6,5,17,2
14.455310,33,36,1,-2,-8,0,-4,7,2
14.455317,-22,30,4,3,8,1,3,13,2
14.466872,9,-15,1,-2,-5,6,1,2,2
14.466893,3,76,7,3,-4,-8,-8,43,2
14.475662,56,-24,-13,-7,-3,-2,0,-40,2
14.475666,-60,-7,-6,-3,-7,-2,-8,19,2
14.490710,-41,-110,-12,-4,4,10,12,-49,2
14.490728,-32,12,0,0,-3,-15,-5,-49,2
14.492374,-15,55,7,2,0,-7,1,12,2
14.492380,52,44,8,1,-1,10,4,43,2
14.514544,79,30,2,2,0,3,2,-41,2
14.514670,-122,-40,-3,0,19,-3,1,34,2
14.515716,53,12,4,0,-39,3,-3,29,2
14.517117,-67,2,-5,-4,36,-6,-5,-12,2
14.526494,-32,-35,-3,1,22,6,-14,-25,2
14.526511,78,-16,-1,-2,-17,-1,19,36,2
14.536787,-52,74,-1,-4,15,-7,-19,2,2
14.536881,-2,-53,-5,-3,-24,-2,11,9,2
14.551478,-45,19,-2,-3,-6,0,-10,-13,2
14.551508,1,-18,-7,-2,2,-5,-6,-1,2
14.554453,19,-16,1,-1,-6,1,4,1,2
14.554459,31,10,-1,-3,-6,-1,-6,-16,2
14.572824,10,19,1,-1,0,-3,2,1,2
14.572845,15,-54,3,0,-10,0,-2,12,2
14.574378,27,55,2,-2,3,-1,0,-16,2
14.574397,-27,-87,-21,-5,-1,1,1,-16,2
14.588666,4,18,4,2,3,-2,0,2,2
14.588674,-36,3,0,-1,-35,-3,-5,-30,2
14.597298,24,31,12,6,35,-6,-2,73,2
14.597309,58,70,3,-2,-8,12,-2,49,2
14.610620,86,-58,-18,-7,-13,-8,11,17,2
14.610643,-67,10,-7,-2,-5,0,-6,-12,2
14.613376,-24,-11,0,3,4,-2,-1,-31,2
14.613381,19,25,2,-1,-4,-3,8,45,2
14.632887,3,35,6,1,-5,3,-2,-2,2
14.632909,23,8,-1,-2,3,-3,-7,-10,2
14.635347,-36,-42,-4,-3,-2,4,3,-11,2
14.635354,2,26,11,1,-2,-8,-6,18,2
14.655460,19,-82,-8,-4,-2,2,-4,-29,2
14.655487,-41,-42,-7,-5,7,-8,0,-1,2
14.658186,18,50,2,0,-35,-3,-5,-25,2
14.658191,-59,1,-6,-2,29,3,-3,-15,2
14.670431,16,49,6,3,2,-5,2,5,2
14.670461,14,-19,-2,-3,-2,5,3,6,2
14.673290,-2,-24,-2,-3,-1,-5,-2,-9,2
14.673299,38,30,4,1,-10,-6,0,0,2
14.692830,-22,14,8,3,1,5,3,-1,2
14.692847,24,72,-3,0,13,-5,-4,53,2
14.694450,-6,-44,-6,-6,0,6,-15,-47,2
14.694462,27,-44,-5,0,-10,-2,12,-14,2
14.715661,-7,21,0,-1,16,3,2,8,2
14.715683,36,46,10,3,-8,2,-1,11,2
14.717056,-51,54,5,-1,7,7,6,-3,2
14.717073,-56,-105,-14,1,-1,-1,-13,-28,2
14.730562,-9,22,3,0,-9,-5,-5,-8,2
14.730579,32,15,0,-1,0,2,-1,-5,2
14.732658,4,-9,-1,-1,3,-1,9,-4,2
14.732663,24,35,4,-2,-6,-9,-10,-20,2
14.753258,-23,4,-1,-2,-41,-1,-2,61,2
14.753281,0,-33,-1,2,64,-26,-8,-8,2
14.754857,17,29,3,-3,-31,34,24,24,2
14.754869,-80,-58,-13,-4,-6,-6,-15,1,2
14.775474,30,-2,-5,-4,-4,1,5,25,2
14.775499,-23,-5,-3,-2,-11,-3,-4,-26,2
14.776927,24,-20,-5,-5,0,-15,-8,-37,2
14.777010,46,79,12,5,4,4,3,-5,2
14.790009,16,-11,1,-1,5,-1,-1,10,2
14.790041,6,-58,-6,-7,-13,1,0,12,2
14.796638,-45,15,-4,1,13,-5,-5,-7,2
14.796656,16,-31,1,-2,-10,3,3,-2,2
14.813171,-7,11,-2,-3,-5,-21,-9,-21,2
14.813190,-4,53,-2,-2,0,4,5,-24,2
14.815160,52,-51,-3,0,2,-12,-10,23,2
14.815167,-62,21,-2,-4,2,16,17,-29,2
14.835549,4,21,5,1,-1,4,2,5,2
14.835557,10,12,-1,0,-18,-1,-8,-3,2
14.837060,62,-83,-13,-3,12,-5,2,48,2
14.837085,-37,8,5,2,-4,-8,-2,-29,2
14.851017,12,31,2,0,15,3,-1,-8,2
14.851023,-5,-29,-3,-3,-15,5,4,-11,2
14.857031,-56,-4,2,-1,2,-1,1,36,2
14.857066,21,10,-2,1,0,-8,-8,18,2
14.873036,14,5,-2,-3,-1,7,1,-1,2
14.873053,30,-18,2,1,-10,-3,3,19,2
14.875253,-34,8,-6,-4,-2,1,-4,1,2
14.875260,55,6,-2,-3,1,-6,0,15,2
14.897533,-67,33,7,3,13,-13,-9,-1,2
14.897540,25,-21,-4,-5,-34,21,0,-16,2
14.897543,-5,28,2,3,15,2,-1,-9,2
14.897545,7,24,7,3,-12,4,4,35,2
14.910295,-32,-44,-7,-3,0,0,-5,-79,2
14.910325,-57,-14,-2,-4,8,-7,-5,4,2
14.916920,9,11,0,-4,-20,-1,-5,-2,2
14.916947,3,45,3,-1,4,-4,1,-5,2
14.932879,4,-35,-5,0,1,2,3,5,2
14.932901,-24,0,1,2,0,-1,-5,-50,2
14.934476,-85,-14,-8,-2,3,0,4,-23,2
14.934481,81,69,5,0,5,0,-6,17,2
14.955692,-79,-101,-10,-4,-1,-6,6,-9,2
14.958355,17,52,7,2,7,4,0,11,2
14.958372,38,-2,2,-2,-2,-12,-7,-25,2
14.958376,33,-2,-9,-2,-23,7,0,-4,2
14.970150,20,11,-3,0,52,13,14,40,2
14.970182,75,-35,-2,0,20,-2,0,-5,2
14.976509,-31,-4,1,0,-20,3,-2,11,2
14.976525,-38,-46,-1,0,-4,-13,-5,-9,2
14.992843,-46,39,3,-2,-13,1,-7,10,2
14.992918,10,21,3,3,5,1,10,18,2
14.994385,17,16,3,1,14,-3,-1,25,2
14.994397,21,7,1,1,-1,-3,0,2,2
15.015326,-3,-61,-8,-3,-9,-1,-7,-46,2
15.015349,-73,-19,-2,-2,3,-1,-4,31,2
15.016801,37,-7,-6,-1,-9,2,-6,-39,2
15.016809,31,8,-5,-4,3,-3,1,-25,2
17.039846,-1,8,4,1,-1,-2,1,0,0
17.040197,-1,0,0,0,-2,0,0,0,0
17.041320,2,-2,-2,-7,-1,-1,-2,-1,0
17.041368,1,17,1,1,-1,-1,-1,0,0
17.054067,-2,-24,-12,-1,1,-1,-2,-1,0
17.054087,-2,7,12,1,0,0,-1,-1,0
17.061645,0,1,-2,1,-1,-2,0,-2,0
17.061668,0,1,-1,-4,-3,0,-1,2,0
17.077147,-3,-2,3,2,0,-3,0,-2,0
17.077170,2,3,-6,-1,-1,-1,-1,-1,0
17.077951,1,-11,-3,-2,-1,0,-2,-1,0
17.077967,0,2,6,-2,-2,-1,0,-1,0
17.099642,2,-3,-6,-1,0,1,-1,0,0
17.099653,-3,-3,-4,-3,0,0,1,-2,0
17.100197,0,-2,0,3,-2,-1,-1,-2,0
17.100211,0,7,-3,-2,-1,0,-1,-1,0
17.122291,-1,-4,9,-2,-1,-1,-1,-2,0
17.122330,-1,-2,-1,-1,0,-1,1,0,0
17.124589,0,1,0,-2,0,-2,0,-1,0
17.124599,-2,-2,-4,-1,-2,0,-1,-3,0
17.137288,-3,10,-2,-3,0,0,-3,-2,0
17.137309,-2,-2,-8,3,-1,-1,-1,0,0
17.138447,-4,-3,6,2,0,1,0,1,0
17.138452,2,17,-3,-1,0,0,-1,-1,0
17.159617,-2,-20,-1,-5,-4,0,-1,-2,0
17.159625,0,-5,-3,-5,-2,-1,-2,-1,0
17.160228,-1,5,-1,4,-1,-1,-2,-1,0
17.160235,-1,-12,-3,-2,-2,0,-1,-1,0
17.182190,-1,0,5,1,-1,0,0,-1,0
17.182212,0,5,5,-3,-1,-2,-1,-2,0
17.183493,0,-6,-3,-1,-1,0,0,-1,0
17.183505,-2,-1,-5,0,-1,-2,-1,-1,0
17.197497,1,2,-1,-1,-2,-2,-3,-1,0
17.197521,-3,0,-1,0,-1,-2,-1,-2,0
17.198380,1,10,-4,-2,-1,-2,-2,-4,0
17.198384,-4,-22,2,2,0,0,-1,-1,0
17.222337,2,4,-3,-2,0,0,0,-1,0
17.222344,-2,-1,1,1,1,1,-2,-1,0
17.222345,-4,-6,0,-2,0,0,-1,0,0
17.222347,-4,-4,-5,0,0,0,-2,-2,0
17.252335,0,-13,-2,-1,-2,-2,0,-1,0
17.252354,1,19,-5,-2,-1,0,0,0,0
17.252358,-3,-10,1,-3,-3,0,-1,-2,0
17.252362,-1,1,3,0,-1,0,-2,-1,0
17.257362,-4,3,-4,-2,-1,-1,0,-1,0
17.257379,4,-2,-2,-3,-3,-2,-2,-1,0
17.258940,-9,-6,-2,-1,-2,-1,0,0,0
17.258945,1,3,2,1,0,-1,0,-2,0
17.280127,0,8,0,1,1,-1,-1,0,0
17.280157,-3,-6,0,3,0,0,0,0,0
17.281204,2,-2,0,-2,1,-2,-2,-2,0
17.281208,2,3,0,-4,-1,-3,-2,-2,0
17.302034,-4,3,-4,-1,-2,0,0,0,0
17.302045,-2,-4,2,0,-1,0,-1,-1,0
17.303081,7,0,-2,1,-2,-3,-2,0,0
17.303101,-4,0,-4,-2,-1,0,1,-2,0
17.317750,0,3,-5,-3,-2,-2,-1,-2,0
17.317779,0,-2,3,1,-1,0,1,0,0
17.320534,0,-1,-3,0,-2,-1,0,-1,0
17.320545,-2,-3,0,-3,0,0,-2,-1,0
17.339944,-1,1,4,1,0,-1,0,-1,0
17.339971,-2,-2,-3,-2,0,0,0,-1,0
17.341124,-3,-5,-3,-1,-1,1,-1,-1,0
17.341128,2,-1,-4,-2,-1,-3,-1,0,0
17.362152,0,3,1,0,-1,-3,-2,-1,0
17.362169,-3,-18,0,-1,-2,-2,-2,-1,0
17.362921,2,3,-3,1,0,1,-2,0,0
17.362945,1,18,3,-1,-1,0,-1,-1,0
17.377104,29,17,-1,-1,1,-1,0,-1,0
17.377119,-84,-15,-4,-2,-1,-2,-3,-4,0
17.378599,8,-26,2,-3,-1,-1,-1,-2,0
17.378603,-1,-12,-4,1,-2,0,0,0,0
17.399626,-1,0,0,0,-1,-1,-1,0,0
17.399642,18,7,2,-1,0,-1,1,-1,0
17.400522,-4,13,2,-1,0,-2,-1,0,0
17.400526,-4,-1,-3,-1,-1,0,-2,-1,0
17.423245,-1,-6,-5,-1,0,-2,0,0,0
17.423256,16,6,3,-1,-1,-2,-2,0,0
17.423259,-7,-2,0,0,-1,0,-2,-1,0
17.423262,11,0,-1,1,-1,-3,-1,-1,0
17.439294,-11,-4,-1,-1,-1,-2,-1,-2,0
17.439306,10,2,0,2,1,-1,-1,0,0
17.439311,3,4,-1,0,0,-1,-1,-1,0
17.439314,-6,-5,-1,-2,-1,-1,-1,0,0
17.459790,-10,-4,0,-4,-2,-1,0,0,0
17.459806,6,1,-3,-1,-1,-1,0,0,0
17.460273,2,-3,-6,-3,-1,-2,-2,0,0
17.460288,-4,4,11,1,-1,0,-1,-2,0
17.482673,7,-2,-1,-1,0,0,-2,-2,0
17.482703,49,11,2,-1,-1,0,0,2,0
17.484682,-48,-21,-10,-3,-1,-1,-1,-3,0
17.484685,-5,2,-2,0,0,-2,-2,-3,0
17.497621,-10,-2,2,-1,1,0,-1,0,0
17.497650,18,3,-3,-1,-3,-1,1,-1,0
17.498958,17,2,-2,0,1,0,0,2,0
17.498967,-2,14,-1,-4,-1,-2,-2,1,0
17.519971,-2,-9,5,2,-2,0,0,-2,0
17.519990,-10,-1,-6,-2,-1,0,-1,-2,0
17.520639,0,1,0,0,-1,-2,1,-1,0
17.520659,-2,-10,-4,-2,-2,0,0,0,0
17.542201,1,1,-3,-1,-1,-2,0,-1,0
17.542217,-10,-1,-2,-2,-3,-3,-3,-2,0
17.543322,-3,0,1,0,-1,-2,-2,-4,0
17.543415,8,-1,-2,0,-1,-2,-1,-1,0
17.557520,-3,-3,-7,-3,-2,0,-1,1,0
17.559482,-10,-5,4,1,0,0,0,-3,0
17.559486,7,4,2,-1,-1,-1,0,-1,0
17.559488,-4,-8,-5,0,0,0,-1,0,0
17.582227,-5,-5,-6,-2,-1,-1,-3,-1,0
17.582233,8,23,6,-1,0,-1,-1,-1,0
17.582235,-21,-19,1,-2,0,-1,-3,-2,0
17.582237,1,-3,-2,0,-2,-1,1,0,0
17.602937,-5,-16,-5,-1,0,0,0,-2,0
17.602967,3,21,1,-3,-1,-1,-2,0,0
17.603857,11,9,1,1,-1,0,-1,1,0
17.603884,-2,-5,-2,0,-2,0,-2,0,0
17.617508,-3,-3,1,1,-2,-1,0,-1,0
17.617539,-3,1,-2,-1,-1,-1,-1,0,0
17.620229,1,8,0,-1,0,-1,-1,-1,0
17.620237,-1,-14,-3,-2,0,-1,-2,-1,0
17.639868,9,2,0,-3,-1,-1,-1,0,0
17.641719,29,-10,-1,0,-1,0,-2,0,0
17.641726,-57,-5,-2,-2,-3,-1,-1,-1,0
17.641729,9,1,0,-1,-2,-3,-1,-2,0
17.663298,-7,3,1,2,-1,-2,-1,-2,0
17.663320,6,-8,-4,-1,-1,0,-1,-1,0
17.665401,21,8,-2,-1,-2,-1,-2,-2,0
17.665406,-5,-5,-3,-3,-2,0,-2,-1,0
17.677242,-3,9,7,0,1,0,-2,0,0
17.677264,-17,-7,-2,-1,0,0,0,0,0
17.677839,13,0,0,1,0,-1,0,-1,0
17.677864,-10,0,-1,-4,0,-2,0,-1,0
17.699621,10,-8,-9,0,-2,-2,-1,-2,0
17.699643,-16,6,4,0,0,-2,0,-1,0
17.700496,8,-6,1,0,0,0,-2,0,0
17.700500,4,-1,-3,-2,0,-2,-1,-4,0
17.723212,-18,-2,-1,0,-1,0,0,-1,0
17.723323,-4,-5,-5,-3,-2,0,-2,-2,0
17.723950,8,3,1,-1,0,-2,-1,-2,0
17.723966,7,2,3,2,0,-1,-1,0,0
17.737288,0,5,-2,-2,-1,-1,-4,0,0
17.737321,-13,-9,-3,-1,0,-1,0,-2,0
17.737883,11,1,-2,-2,-2,-2,0,1,0
17.737901,-4,-2,-5,-1,-2,-2,0,-2,0
17.759654,-3,-6,2,-1,-1,0,-2,-2,0
17.759672,0,5,0,0,-3,-1,-1,0,0
17.760698,2,0,3,2,0,0,-2,-1,0
17.760701,-4,1,-2,1,-1,-1,-1,-3,0
17.782411,0,1,0,-2,0,1,-1,1,0
17.782428,-2,-12,-9,-2,-1,-1,-1,0,0
17.782753,-1,-2,-5,-2,-1,0,0,0,0
17.782767,-6,1,3,0,0,0,-1,-1,0
17.797455,7,2,0,-2,0,0,0,-3,0
17.797483,-3,-5,-4,0,0,-1,-1,-1,0
17.799470,2,10,0,-1,-1,-2,-2,-3,0
17.799475,6,-14,-2,-1,-1,-1,-1,1,0
17.819986,-14,-2,1,0,-1,0,0,-1,0
17.820018,-4,-1,1,-3,-1,-1,-2,-3,0
17.822510,1,1,1,-1,0,-2,-1,-1,0
17.822526,3,7,-1,-1,-1,-1,-1,1,0
17.843041,3,0,-7,0,-1,-1,0,-1,0
17.843047,-7,-13,0,0,0,-1,-2,-1,0
17.843548,1,2,1,-1,-2,-1,-2,0,0
17.843555,-2,4,1,-3,-3,-1,0,-2,0
17.859178,0,-1,2,-1,-1,-2,-1,-2,0
17.859185,-2,4,1,0,-1,1,0,0,0
17.859187,2,-9,-7,-3,-1,-1,0,0,0
17.859189,-2,1,1,-2,-1,-1,-2,-1,0
17.880132,-3,1,-2,-4,-1,-1,-1,0,0
17.882031,0,-1,-2,0,-1,0,-3,-2,0
17.882036,1,-6,1,1,-1,1,-1,0,0
17.882038,-3,-3,-2,-2,0,1,-2,0,0
17.903532,4,-1,-3,-2,-1,-1,-2,0,0
17.903564,-2,16,0,-2,1,-3,0,-2,0
17.906086,-4,-18,-1,-1,0,-1,-1,-2,0
17.906093,-1,15,4,1,-1,-1,0,-1,0
17.917789,-1,-13,-7,-1,0,-3,-1,-2,0
17.917825,1,16,-1,0,-2,0,-2,-1,0
17.921382,-6,-16,-4,-1,-1,-2,-1,-2,0
17.921398,-3,-2,-2,-3,-1,-1,-1,-1,0
17.939885,1,9,3,1,-1,-1,-1,2,0
17.939907,-2,-12,-4,-1,0,-2,-2,-4,0
17.940527,1,4,-8,-3,-1,0,-1,-1,0
17.940538,0,6,10,0,0,-2,-1,-2,0
17.963065,3,3,-3,-2,-1,-1,-1,-1,0
17.963087,1,-7,0,-2,-2,-2,0,0,0
17.965011,-3,3,0,3,-1,-2,-1,-1,0
17.965018,-3,-7,-4,-1,-1,-1,-1,-1,0
17.977125,-2,2,0,-1,0,-1,0,-3,0
17.977146,4,-9,-6,-3,-1,0,1,0,0
17.979894,2,2,-1,-1,-1,-1,-1,0,0
17.979898,-2,-2,-3,3,-2,-1,0,0,0
18.000229,0,0,1,-1,-3,-2,0,-1,0
18.000236,-2,-4,0,-2,-2,1,0,-1,0
18.000310,-1,3,0,0,0,0,-1,-2,0
18.000329,1,-3,-3,-2,0,-1,-2,-1,0
18.022981,0,10,1,-1,1,0,-2,-1,0
18.023020,-6,-10,0,-2,-1,-2,-1,0,0
18.025308,-1,6,2,-1,-2,-1,0,0,0
18.025319,-1,-7,-4,-2,-1,-1,0,-1,0
18.037591,-5,-5,-10,-1,-2,-1,0,-1,0
18.037619,0,12,6,2,0,0,-1,-2,0
18.039403,0,-12,2,0,0,0,0,-1,0
18.039482,-1,-2,-3,-2,-3,-2,-2,-2,0
18.061716,-3,-6,0,-4,-1,-1,-1,-1,0
18.061722,-3,1,-3,0,1,0,1,-2,0
18.061725,0,-1,-5,-3,-3,-2,0,-1,0
18.061726,2,11,4,1,0,2,0,-1,0
18.083273,0,0,0,-1,-1,1,-2,-1,0
18.083302,3,-3,-2,-1,0,0,0,1,0
18.084851,1,1,0,-4,0,-2,-1,-3,0
18.084856,-6,-7,-3,-1,-1,-1,-1,-1,0
18.096457,1,2,2,-1,-2,-2,-1,0,0
18.096475,-1,2,4,-1,0,2,-2,-1,0
18.104761,2,2,2,-1,-1,-1,0,0,0
18.104790,0,-3,-6,-1,0,0,-1,1,0
18.119943,-1,-4,-1,-1,0,0,-1,-2,0
18.119965,-3,-6,-2,-2,-1,-2,0,-1,0
18.122323,-3,3,-3,0,0,-1,0,-1,0
18.122340,-2,1,1,-1,1,-2,-1,0,0
18.142796,1,-3,-3,-1,-2,-1,-2,-1,0
18.142813,0,-6,0,-1,-3,-1,-1,0,0
18.143542,-2,3,2,1,-2,-1,-2,0,0
18.143560,0,-3,-3,-3,-1,0,0,-1,0
18.156809,3,-2,-1,0,-2,0,-1,-1,0
18.156927,2,-2,-4,2,-4,-3,-1,-2,0
18.164787,-2,2,2,2,2,0,0,-1,0
18.166511,0,-2,0,-2,-3,-3,-2,-2,0
18.180434,-2,-2,-3,0,0,0,0,-1,0
18.180463,-3,-3,-3,-2,-1,0,-1,0,0
18.182640,0,-1,-4,-3,-1,-1,1,-1,0
18.182647,-1,-1,-2,-1,0,-1,-1,0,0
18.203003,-3,3,6,-2,-1,-3,0,-2,0
18.203034,-2,-6,-8,-1,1,-1,0,-1,0
18.204073,0,-2,-8,-1,-2,-1,-1,-1,0
18.204100,1,9,-2,0,0,0,0,-2,0
18.216385,-3,-30,1,0,-2,-1,-2,-1,0
18.216393,0,18,6,-1,-2,-1,-1,0,0
18.224994,0,-5,-5,-3,0,-1,-1,-1,0
18.225012,-1,7,0,0,-3,-1,-1,-3,0
18.239864,0,6,0,-1,-1,0,-2,1,0
18.241083,-3,-9,-2,-2,-1,0,-1,-1,0
18.241087,0,4,-1,0,-1,-1,-1,-2,0
18.241090,-1,-5,-3,-3,-2,-2,-1,1,0
18.262635,1,4,-2,0,-2,-2,0,0,0
18.262641,-1,-3,1,1,1,-1,-2,0,0
18.262850,0,6,1,-1,-3,-2,-2,0,0
18.262857,-1,-6,-1,-2,-2,-1,0,-2,0
18.276594,-2,-6,-5,0,-1,-1,-1,-1,0
18.276618,-2,-14,-6,-6,-1,-1,-1,0,0
18.285184,-5,4,-1,0,1,-2,-1,0,0
18.285213,-4,2,5,1,2,0,0,0,0
18.299753,5,8,1,-1,-1,-2,0,-1,0
18.299769,3,1,-2,0,-1,-1,-1,-1,0
18.301838,0,-8,-4,-1,-2,-1,0,0,0
18.301849,-2,-5,1,-3,-4,-1,-2,-1,0
18.323829,-5,5,0,0,-1,-2,0,-1,0
18.323840,0,-3,-3,0,-1,-1,-2,0,0
18.323842,-1,-3,-1,-1,-1,-2,-1,0,0
18.323845,-1,2,-3,0,-2,0,-1,0,0
18.336948,-3,0,4,0,-2,-1,0,-2,0
18.336984,-6,1,-1,-1,-1,0,1,-1,0
18.345062,7,1,1,-3,-2,0,-2,-1,0
18.345093,2,-4,0,0,0,0,-1,-1,0
18.359757,2,5,-8,-1,-2,-1,-2,-2,0
18.359780,-5,-12,6,-2,-1,-2,-1,-2,0
18.360479,-2,-4,-3,1,-1,1,1,0,0
18.360498,-1,-7,-3,-5,-1,0,-2,-1,0
18.382196,-2,0,0,0,0,-1,-2,0,0
18.382212,-1,11,-1,0,-1,-1,-1,-1,0
18.383574,-5,1,4,-1,-1,-1,-1,-2,0
18.383578,3,-17,-7,0,0,-2,0,1,0
18.396962,0,7,-2,-3,-1,0,-1,-1,0
18.396984,-2,2,-6,-2,-3,-2,-2,-1,0
18.404759,-1,-3,10,1,-1,0,-2,0,0
18.404779,0,16,-1,-2,-2,-2,-1,-2,0
18.419776,-4,-13,-4,-1,-1,0,1,0,0
18.419795,2,0,2,2,0,1,-2,-1,0
18.420510,-3,-4,-4,-1,-1,0,-2,-2,0
18.420531,-3,4,2,-1,-2,-1,-1,-2,0
18.442212,0,1,1,-2,-1,-1,-1,-4,0
18.442234,-1,-3,-3,-2,-1,-1,1,0,0
18.444456,1,1,-4,0,-1,-1,1,0,0
18.444461,-1,-4,-1,0,0,-1,-1,0,0
18.465477,0,0,-1,-3,-1,-2,-2,-1,0
18.465498,-1,-1,2,-1,-1,0,0,0,0
18.466025,0,2,0,0,0,-1,-1,-2,0
18.466039,-2,-8,-2,-2,0,0,-1,-3,0
18.479641,-3,5,2,0,0,0,-1,0,0
18.479648,2,7,2,-3,0,-1,0,1,0
18.480240,-1,-6,-4,2,0,1,-1,-1,0
18.480247,-2,3,2,2,-1,0,-1,0,0
18.502607,-2,-16,1,-1,0,-1,-1,-1,0
18.502641,-2,-2,0,0,0,-1,-2,-3,0
18.504950,1,1,-7,-5,-3,-1,0,-2,0
18.504963,0,0,0,0,-1,-2,-2,-2,0
18.525642,0,2,-1,1,0,0,0,-1,0
18.525647,0,1,-4,-2,-3,-1,-2,-1,0
18.526028,-2,-4,0,-2,0,-2,-1,0,0
18.526035,2,5,-1,0,-2,0,0,0,0
18.540897,1,4,0,-2,-1,-1,-2,0,0
18.540902,-2,-9,-4,1,-1,-1,-3,-1,0
18.540904,-1,3,-6,-4,-2,-1,-1,-1,0
18.540942,-3,-4,4,3,-1,-2,-2,-1,0
18.562163,0,3,0,-1,-1,-1,0,1,0
18.562185,-1,-2,-3,0,-1,-1,-1,0,0
18.564567,-1,4,5,0,-1,-2,-1,-1,0
18.564575,0,-3,-6,-2,-1,-1,-1,0,0
18.587790,-4,-8,-4,0,1,-2,-1,-1,0
18.587795,1,1,0,1,-1,-2,-1,0,0
18.587796,0,3,3,-1,-2,-2,-2,-1,0
18.587798,-1,5,-10,-4,-2,-1,-1,-1,0
18.599705,-1,-22,1,1,0,0,-1,-2,0
18.601294,-1,3,3,2,2,1,0,0,0
18.601298,0,2,0,-1,0,-1,-1,-2,0
18.601300,-3,-6,1,1,0,1,1,-1,0
18.622345,-1,8,-3,-4,-1,-1,-2,-1,0
18.622374,-2,-2,0,-3,-1,-1,0,-2,0
18.623253,-2,-9,-1,0,-1,-2,-2,-2,0
18.623283,-5,0,-5,-4,0,-1,-2,-2,0
18.645685,4,6,7,0,-1,0,-2,0,0
18.645716,-2,-3,0,-2,-2,-3,-1,-1,0
18.647796,0,4,-1,0,0,-3,-1,-1,0
18.647804,-1,-5,-3,0,-1,-1,-1,0,0
18.659619,-1,3,-3,0,-1,-2,-1,-2,0
18.659636,-1,0,-1,0,-2,0,-2,-2,0
18.661748,-2,-2,0,0,-2,0,-1,-1,0
18.661754,0,-5,2,1,-2,-2,-1,0,0
18.682085,0,-4,-3,0,-3,-1,1,0,0
18.682096,-1,8,1,-2,-1,-2,-1,0,0
18.682734,-3,-2,4,1,0,-2,0,1,0
18.682749,1,-4,-3,-2,-2,-2,-2,-2,0
18.705468,-3,11,5,-1,0,0,1,-1,0
18.705492,0,-5,-2,1,-2,-2,-2,0,0
18.707009,0,6,-6,-2,-2,0,0,0,0
18.707022,-1,-11,6,-4,-1,-2,-1,0,0
18.719990,-2,-2,-5,1,-1,0,-3,-1,0
18.720025,-1,-4,-1,-2,1,-2,-1,-1,0
18.721675,1,4,-1,-1,0,0,-1,-2,0
18.721684,-1,4,-1,0,-3,-1,-1,0,0
18.742121,-2,-3,-6,-3,-1,-1,-2,-1,0
18.742130,-2,0,0,-1,0,0,-1,-2,0
18.742812,0,-5,-1,-2,-1,0,-1,0,0
18.742845,-2,4,3,-2,0,-1,0,-1,0
18.765258,2,-11,-1,0,-3,0,0,0,0
18.765279,0,-7,-8,-1,-2,-1,0,0,0
18.766511,-3,-4,-2,-1,-1,-1,0,-1,0
18.766514,-1,3,-8,-3,0,1,-1,-2,0
18.780166,-1,8,5,0,-1,-2,0,0,0
18.780196,-1,-11,0,0,-1,-1,-1,0,0
18.782237,-1,-5,-4,-1,-1,-1,0,-1,0
18.782241,-2,-1,-2,1,1,0,-2,-1,0
18.802607,0,-2,-5,-3,-2,0,-1,-1,0
18.802637,-1,0,-2,-2,0,0,-1,-1,0
18.805198,-2,-2,-1,-1,-1,-1,-1,-1,0
18.805207,-1,-1,0,0,-2,-2,0,-1,0
18.825633,-1,-2,1,-1,-2,-3,0,-1,0
18.825651,0,2,-2,-1,-1,-1,-1,-1,0
18.826166,-2,0,0,0,-1,-1,-1,-1,0
18.826182,0,1,2,0,0,-2,-1,-1,0
18.839778,0,1,-1,-1,-2,-2,-1,0,0
18.839795,-2,0,-2,-1,-2,-1,0,-2,0
18.840325,0,0,0,-4,-2,0,-2,-2,0
18.840339,0,-1,2,1,-2,0,0,0,0
18.862302,-2,-1,-1,0,-1,-1,-1,-2,0
18.862330,-2,-1,-1,-3,0,-1,-2,-1,0
18.864412,-1,-3,-2,-3,-1,0,-2,0,0
18.864418,0,1,-1,0,-1,-1,-1,0,0
18.885298,0,1,-1,-1,0,0,0,0,0
18.885315,-1,3,1,-2,-1,-1,-1,-1,0
18.886150,-2,-1,-1,2,-1,-1,-1,0,0
18.886173,-2,-3,-3,-1,-1,-1,-1,-1,0
18.899642,-2,-1,-1,-2,-1,-2,-2,-1,0
18.899664,0,1,-2,-2,-3,-2,0,-2,0
18.900266,-1,-1,-1,0,-1,0,-1,0,0
18.900280,-1,4,3,-2,-2,1,0,0,0
18.922711,-2,0,-1,-3,1,-1,-2,-2,0
18.922751,0,-5,-3,0,-1,-1,-2,-1,0
18.925072,1,-2,-2,0,0,-2,-1,0,0
18.925086,0,-1,0,0,-1,-1,-1,-1,0
18.945316,-1,2,-1,-1,-1,-1,-1,-1,0
18.945334,-3,2,3,0,-2,-1,-2,-2,0
18.946371,0,-1,-2,0,-1,-3,-2,-3,0
18.946382,-1,0,-2,-3,0,-2,-2,-2,0
18.959618,0,-2,-4,-2,0,-2,0,1,0
18.959624,-1,1,1,0,-1,-2,-1,-1,0
18.960285,0,-2,0,1,-2,-1,0,2,0
18.960293,-1,-1,-4,-1,1,1,0,-1,0
18.982058,-2,0,3,2,0,0,0,-1,0
18.982080,-2,2,1,-1,1,-3,0,0,0
18.983369,0,19,5,-1,0,-1,-2,-2,0
18.983377,-2,-41,-19,-2,0,-2,-3,-2,0
19.005926,0,15,7,-1,1,-2,0,-1,0
19.005933,1,2,0,0,-1,-1,-1,-1,0
19.006225,-3,0,-2,-3,0,0,0,-1,0
19.006235,-1,7,0,-2,-2,-1,-1,0,0
19.020190,-2,-3,-6,-1,-2,-1,-1,-1,0
19.022727,-2,-7,-2,-3,-2,-1,-2,0,0
19.022736,-2,0,3,2,1,-1,0,-1,0
19.022738,-1,4,2,-1,-1,0,-2,-1,0
19.042271,0,-10,-1,-1,-3,0,-2,-2,0
19.042287,0,7,0,0,-2,-2,0,-1,0
19.042879,-2,-8,-1,-1,-1,-2,-1,-1,0
19.042963,2,4,4,-2,0,-1,0,-1,0
19.065903,-1,0,-4,1,-2,0,-1,-1,0
19.065920,0,-4,-3,-1,-1,-2,-1,1,0
19.068785,0,-4,0,-2,-3,-1,0,-2,0
19.068791,-1,6,7,1,-1,-3,-2,-2,0
19.079448,0,-1,-5,-3,-1,-2,-1,-2,0
19.079481,0,3,-5,0,0,1,-1,0,0
19.087641,-1,-4,4,-3,-3,1,-1,-1,0
19.088961,0,3,3,-2,-2,0,-1,2,0
19.102258,-2,-13,-2,2,1,-1,0,-1,0
19.102277,0,-2,0,-1,-1,-1,1,0,0
19.102874,0,-4,-6,-1,-1,-1,-1,1,0
19.102891,-2,5,0,-1,-1,-1,-1,-2,0
19.125663,-1,-1,2,-1,0,-1,0,-1,0
19.125680,0,-6,-4,-1,0,0,1,0,0
19.126702,-2,2,-3,-1,-2,-1,0,1,0
19.126710,-2,0,1,0,-1,-2,-1,0,0
19.139312,-1,1,-3,-1,2,-1,-1,1,0
19.139335,-2,1,1,-2,-1,-2,-3,-2,0
19.147250,-1,-1,-1,-1,0,-2,-2,-2,0
19.147272,-2,0,-5,-1,-1,-1,-2,-2,0
19.162249,0,3,7,0,-2,-1,-3,-2,0
19.162266,1,-4,-4,-4,-2,0,-1,-1,0
19.162750,0,3,8,5,2,-1,-2,-1,0
19.162765,0,-6,-9,0,-3,-1,0,-1,0
19.185905,-2,2,-4,-2,-3,0,0,-2,0
19.185935,-2,-1,2,-2,-1,-1,-1,-2,0
19.188982,-2,-4,-6,-4,-1,-2,-1,-1,0
19.188989,-2,1,1,-1,1,-1,0,0,0
19.198997,0,0,0,-1,-2,-3,0,-1,0
19.199020,-1,0,-2,0,-1,-1,0,-1,0
19.207403,0,0,2,-1,-1,-1,0,-2,0
19.207420,1,0,-1,1,0,0,-2,-1,0
19.224257,0,1,-3,-3,-1,-3,-1,0,0
19.224270,-1,-4,1,-1,-1,-1,0,0,0
19.224272,0,3,-4,0,0,0,0,-1,0
19.224274,1,-1,-1,-1,0,-1,0,-2,0
19.245628,-3,-7,-2,-2,-1,-2,-1,0,0
19.245651,0,7,-6,-2,-2,-2,-2,0,0
19.247425,-3,-21,-4,2,-1,1,1,-2,0
19.247429,-2,4,5,1,-1,1,-2,0,0
19.259112,-2,-3,-3,0,-2,1,-1,-1,0
19.259135,0,1,-2,-3,-1,-1,-2,-2,0
19.267233,-2,-2,-7,-2,-1,-2,-1,1,0
19.267547,-1,-4,-1,-1,0,-1,0,-1,0
19.282729,-2,2,-1,0,0,-2,-2,-1,0
19.282758,-2,-1,3,-1,0,0,0,-1,0
19.285173,-1,-2,-4,-2,-2,-1,-2,-1,0
19.285177,-1,0,0,-1,0,-2,-1,-1,0
19.305666,0,4,1,-3,-2,0,1,0,0
19.305687,0,-4,1,1,0,0,0,-1,0
19.306342,0,1,-1,0,0,-1,-1,0,0
19.306455,-2,4,0,-2,-2,-1,-1,-1,0
19.319425,-2,-6,0,-1,-1,0,-2,-1,0
19.319479,0,-4,-3,1,-1,-1,0,0,0
19.327120,0,5,-3,-1,0,-1,-1,-1,0
19.327138,-1,-1,-1,-3,-2,0,0,-1,0
19.342502,-1,-1,-2,-1,1,-1,-1,-1,0
19.342523,-2,-1,4,2,-2,0,0,-1,0
19.344361,-1,3,0,-1,1,-2,-3,-1,0
19.344365,-1,-3,-3,-1,0,-3,-1,-1,0
19.365506,-2,-4,-2,0,-1,-1,0,0,0
19.365521,-1,0,2,-1,0,-1,-2,0,0
19.366198,1,0,2,-1,-3,-1,-1,-1,0
19.366213,0,-2,-2,0,1,-1,-1,-1,0
19.388016,-1,1,-1,-1,-2,-1,-2,0,0
19.388036,-1,-1,-1,-1,-1,-2,-2,-3,0
19.390256,-1,-4,-4,-1,-1,1,-1,0,0
19.390266,0,-1,-1,-1,-2,-2,-2,-1,0
19.402103,-1,-1,-2,1,1,0,1,-1,0
19.402135,-1,0,1,-2,-1,-1,-1,0,0
19.404640,-2,2,0,-2,0,0,-2,-1,0
19.404647,-1,-10,-6,-2,-1,0,0,1,0
19.426218,0,21,5,-1,-2,-1,-1,-3,0
19.426222,-2,-9,-2,-2,-1,-1,-1,-3,0
19.426224,0,-6,-4,-1,-1,-2,1,0,0
19.426226,0,2,3,1,0,-2,-2,-2,0
19.447800,2,-6,-3,0,-3,-2,0,-1,0
19.447822,0,3,-1,0,-1,0,-1,1,0
19.448721,-1,3,-1,-4,-2,-2,-1,-2,0
19.448725,-2,-3,3,1,-1,0,1,-1,0
19.462639,-1,-4,-5,0,1,-1,0,1,0
19.462662,-2,7,6,-2,-1,-1,-1,-1,0
19.465020,-1,-3,-3,0,0,-1,-1,1,0
19.465025,-1,2,-1,-2,-1,0,-2,-1,0
19.485858,-1,-1,1,-2,0,-2,-1,-2,0
19.485891,-1,-9,-8,-1,0,-2,-1,0,0
19.488474,0,5,7,-1,0,0,0,0,0
19.488482,0,2,4,1,-1,0,0,-1,0
19.507853,-1,-4,-6,-1,-3,-1,0,-1,0
19.507875,-1,-1,-1,-1,0,-1,-1,-1,0
19.508547,-2,-3,-5,-2,-2,-2,-2,-1,0
19.508567,-1,1,4,0,-1,-2,0,0,0
19.522564,-1,-8,2,0,-2,0,-3,0,0
19.522609,0,29,1,0,-1,-2,-1,-1,0
19.523166,-3,-19,-1,-1,0,-1,-3,-2,0
19.523305,1,1,-6,-1,-2,0,-1,0,0
19.545613,-3,-11,-3,-1,1,-1,-2,-1,0
19.545650,-3,-4,-3,1,-2,-1,-1,-1,0
19.547880,1,5,-2,0,-1,0,-1,-1,0
19.547929,0,-4,-1,-2,-3,-3,0,-2,0
19.568234,0,2,3,-1,-2,0,-1,0,0
19.568263,-2,-8,-2,0,1,0,-1,-1,0
19.568685,-1,5,3,-1,-1,-1,0,-3,0
19.568703,-2,0,-1,-2,-1,-1,-3,-1,0
19.582062,0,5,-2,-2,0,-1,-1,-2,0
19.582076,-2,-7,0,1,1,-1,0,0,0
19.582822,-1,-2,-3,0,-3,0,0,-1,0
19.582841,-3,0,-2,-1,0,-2,-2,-1,0
19.605435,-2,0,-3,-3,-2,-2,-3,-1,0
19.605459,1,-4,-3,-1,0,0,-1,-2,0
19.606971,-2,3,3,-1,0,-2,-2,-1,0
19.606977,0,-4,-5,-1,0,-1,0,0,0
19.628442,-1,-1,-1,0,-1,0,-2,-1,0
19.628446,0,-4,0,0,0,0,0,-1,0
19.628668,-1,2,-3,-3,-2,0,-1,-1,0
19.628681,-2,-4,-5,0,-3,0,0,-2,0
19.643946,0,8,5,1,-1,-2,-2,-1,0
19.643951,0,-10,6,-2,-1,-2,0,0,0
19.643953,-1,-9,-5,1,0,-1,-1,-1,0
19.643954,-2,8,-4,-3,0,0,-1,-2,0
19.665397,0,3,-4,-2,-1,-1,1,-1,0
19.665418,0,13,-2,0,-1,-1,-2,1,0
19.666797,0,-9,8,0,-2,-1,0,-2,0
19.666805,-1,-3,-1,-2,0,0,-1,-1,0
19.689360,-2,-2,-1,2,1,-2,-2,-1,0
19.689373,-1,-3,-4,-2,-2,-2,-1,-3,0
19.689375,-2,6,-3,-5,-1,-1,-1,0,0
19.689377,3,-1,-2,0,-2,0,0,0,0
19.701950,0,4,12,5,1,-1,0,-2,0
19.701983,-1,-2,0,0,-1,-2,-1,-2,0
19.710842,-2,2,-5,1,0,-1,0,-2,0
19.710871,-1,-2,0,-4,0,-1,-1,-1,0
19.725369,0,-6,-5,-2,-1,1,1,-1,0
19.725388,0,-3,-2,1,0,1,0,-1,0
19.726855,1,3,-2,-1,-1,0,-1,0,0
19.726872,-3,-2,2,0,-1,-2,-3,-3,0
19.748306,-3,-5,-3,-3,-3,-1,0,0,0
19.748327,-1,2,0,-2,-2,-1,-1,-3,0
19.749999,-1,4,9,3,1,0,0,0,0
19.750151,1,-8,-8,-1,0,0,0,1,0
19.761779,0,-1,-3,-2,-2,-1,-2,-3,0
19.763007,-1,-3,-1,-5,-2,-1,-2,0,0
19.773125,-2,1,-3,0,-1,-1,-1,-1,0
19.773136,-1,2,4,-2,1,-1,-2,0,0
19.785265,-1,-1,-2,1,-2,0,-1,-1,0
19.785282,-1,-4,-4,-3,-1,-1,-1,0,0
19.787007,1,0,-1,0,-2,-1,-3,-2,0
19.787036,0,-1,-2,-1,-3,-1,0,-1,0
19.807950,-1,-3,-4,-3,1,-2,0,1,0
19.807966,-1,-1,-1,0,-1,-1,-1,-1,0
19.809796,0,-1,-6,-2,-1,0,0,0,0
19.809807,-2,-1,2,0,-2,-2,-2,-1,0
19.821584,-1,-1,-1,0,-2,-1,-3,-3,0
19.821606,-1,-1,2,0,-3,-2,-2,0,0
19.831958,0,0,-1,-3,1,0,-1,-1,0
19.831968,0,1,-1,0,1,0,-2,0,0
19.845007,-1,-4,-2,0,0,-3,-1,0,0
19.845025,-1,0,-2,0,-1,-2,-1,-1,0
19.852203,-2,-4,-2,-1,-3,-2,-2,-1,0
19.852236,-1,1,-1,-2,-4,-2,-2,-2,0
19.868093,0,-3,-1,-4,-1,-1,-1,-1,0
19.868115,0,0,3,1,0,-1,-1,-1,0
19.870809,-1,2,0,0,-2,-2,-1,0,0
19.870816,-3,-2,1,-2,-1,-1,0,0,0
19.881709,0,0,-2,-7,-4,-2,-3,-2,0
19.881724,0,-10,-6,2,-1,1,1,1,0
19.891182,2,13,0,0,1,0,0,-1,0
19.891189,-3,-15,2,1,0,-1,-1,-1,0
19.905437,-2,1,-3,-2,-1,-1,-1,-2,0
19.905453,-1,1,1,-4,-1,-1,-1,-1,0
19.907319,-1,-4,-5,-2,-2,-2,-2,-1,0
19.907324,1,3,-3,-1,0,-1,-3,-2,0
19.927844,0,10,2,-1,0,-1,-1,-1,0
19.927866,1,-3,1,1,-2,-1,-1,-2,0
19.929515,-1,-2,-3,-1,-1,-2,-2,-1,0
19.929591,-1,-2,-1,-1,-2,-2,0,-2,0
19.941483,-1,-7,0,1,-1,-2,-2,-1,0
19.941499,-1,3,-3,-2,0,0,-1,-2,0
19.950975,-1,-5,-1,-3,-1,0,0,-1,0
19.950981,1,0,1,0,-1,-1,1,-1,0
19.965321,-1,-1,1,0,-1,-1,-2,-1,0
19.965337,-2,0,-3,0,0,-1,-2,-1,0
19.966760,0,-6,-3,0,-1,-1,-1,-2,0
19.966767,-2,0,-2,-2,0,1,-1,-1,0
19.987937,-1,-9,-2,-1,-2,0,0,-2,0
19.987955,1,2,2,1,0,-2,-1,0,0
19.989899,2,21,-1,-1,-1,0,-2,0,0
19.989939,-3,-16,-2,-2,-1,-2,-2,-1,0
20.001500,-2,-3,-3,-4,-2,-1,-1,0,0
20.001514,-2,-6,-3,-3,-1,-2,-2,-1,0
20.011918,-2,-10,-3,0,-1,-1,-1,0,0
20.011925,-1,11,0,0,-2,-1,2,1,0
20.025807,-1,-4,-6,2,0,-1,-1,-1,0
20.025826,-1,0,6,-3,-1,-2,0,-1,0
20.027289,0,3,0,-2,-1,0,0,-1,0
20.027321,-1,3,-3,0,0,-2,-1,-1,0
22.050805,-29,70,12,0,2,13,1,-71,2
22.051501,-75,-58,-24,-8,-7,6,-9,-7,2
22.053838,95,78,10,0,6,-15,-2,64,2
22.053902,75,-37,-3,3,-7,15,8,-17,2
22.073076,-46,11,1,1,-7,3,-7,12,2
22.073131,37,20,14,5,7,3,15,-8,2
22.074662,-40,-36,-14,-14,-2,-8,-3,-15,2
22.074668,5,-13,-8,-9,-23,-44,-18,-2,2
22.086866,97,-73,-2,-1,-10,11,15,15,2
22.086902,-58,-44,-5,-5,-45,-4,-13,-43,2
22.097027,-27,11,-13,-3,41,3,-5,-7,2
22.097042,-31,103,20,-2,-12,-2,18,14,2
22.111164,-56,-74,13,5,26,8,1,73,2
22.111204,-4,53,-7,0,4,-21,-23,-98,2
22.112916,26,-37,-3,-5,-39,-15,17,19,2
22.112925,14,-2,1,2,13,-3,-2,23,2
22.132800,-47,79,-1,-3,-5,-6,-1,-1,2
22.132815,51,-83,-11,-3,6,-1,5,-16,2
22.134521,-25,44,13,6,10,8,-2,33,2
22.134533,38,25,0,4,2,-3,-8,-28,2
22.146425,13,-39,-13,-4,-4,2,5,-18,2
22.146435,81,83,10,5,8,6,-9,80,2
22.157192,-6,-45,-11,-4,-10,7,7,-1,2
22.157199,-60,-99,-8,-3,-13,2,0,5,2
22.170465,64,106,3,-1,-35,2,-1,4,2
22.170490,-69,-72,-11,-5,46,7,3,54,2
22.172024,29,39,-2,0,-1,4,6,0,2
22.172030,-4,-7,14,4,14,-5,-10,-17,2
22.192791,23,-38,-12,-5,1,2,-6,-3,2
22.192807,102,3,-1,-2,-32,-67,7,16,2
22.194245,-104,46,5,1,4,48,-2,27,2
22.194264,15,-70,-9,4,-1,5,3,-49,2
22.207550,26,35,5,-1,3,-4,6,45,2
22.207554,-31,13,4,0,-3,12,-16,-48,2
22.217461,-7,52,17,2,0,-13,-5,-39,2
22.217466,67,-63,-19,-2,-5,-17,-15,17,2
22.230737,-121,72,3,3,7,23,5,-7,2
22.230753,29,2,-1,-10,-24,-29,-2,-20,2
22.244179,-57,-20,-11,2,31,4,-4,-37,2
22.244202,39,31,7,0,16,-4,3,-5,2
22.253051,-44,66,11,1,2,-34,-7,-31,2
22.254359,54,-52,-14,-4,-34,18,9,45,2
22.254565,8,74,14,-1,-10,-31,-11,31,2
22.254571,-4,-49,-14,-2,-2,31,3,-19,2
22.275242,-28,-15,-24,-14,20,59,8,-19,2
22.275259,30,0,9,6,-10,7,12,38,2
22.276796,-49,-52,-12,-7,-10,-13,-16,-40,2
22.276813,-7,22,11,1,3,6,12,69,2
22.290634,-31,-113,-8,-3,-8,-18,-14,-41,2
22.290654,-35,106,9,3,28,18,2,-10,2
22.291903,63,-59,2,3,-9,22,4,59,2
22.291920,-52,-18,-9,-3,6,-9,-1,-61,2
22.313002,26,9,5,-1,-28,-12,-1,14,2
22.313026,-84,8,16,7,36,11,-9,-32,2
22.314744,74,-128,-1,3,8,-5,12,69,2
22.314748,-63,95,7,-2,-23,-8,-2,22,2
22.335210,30,73,-3,-6,-26,-20,-6,-13,2
22.335226,-46,-122,-28,-12,12,21,-1,-23,2
22.337004,33,110,14,8,-19,19,4,2,2
22.337026,-24,-59,5,1,13,8,-20,-14,2
22.350258,71,-30,-18,-5,1,65,23,-14,2
22.350267,-2,-3,10,-3,-30,-12,-2,3,2
22.351865,35,-5,-12,-6,30,48,19,25,2
22.351913,-7,62,14,2,-52,-77,-35,-3,2
22.373051,56,46,7,7,55,-15,7,50,2
22.374170,-25,31,-2,-5,-10,-13,-17,8,2
22.374317,-8,-62,-2,-4,-3,10,8,-46,2
22.374387,41,83,9,3,5,3,4,3,2
22.396363,-69,-61,7,5,0,-7,-8,-49,2
22.396370,123,-11,5,0,-5,6,17,17,2
22.396770,-13,-94,-28,-11,0,-36,-19,-43,2
22.396832,-101,24,-12,-2,0,43,11,-39,2
22.412076,47,-35,-2,0,2,-27,-13,-10,2
22.412082,34,127,26,7,10,25,5,19,2
22.416721,-11,-59,-27,-8,-35,-16,-8,-26,2
22.416743,36,-56,9,-4,44,-3,20,19,2
22.432821,-67,55,-21,-6,-1,-1,-11,16,2
22.432843,-56,-40,3,5,8,4,0,1,2
22.434245,3,67,11,4,-23,-13,9,48,2
22.434332,92,30,-1,-2,10,-23,-5,32,2
22.455723,-38,-24,2,-1,0,69,-16,-21,2
22.455763,-50,65,-8,-3,12,-20,7,15,2
22.457979,-70,-22,1,2,2,-27,-7,-82,2
22.457990,99,-48,-8,-4,-48,27,10,43,2
22.470435,17,-33,4,1,21,3,-12,-74,2
22.470479,65,-62,-8,-2,-20,0,-1,27,2
22.476505,-37,66,7,1,22,3,-12,-34,2
22.476528,-60,99,13,4,7,2,1,-36,2
22.492814,29,-93,-3,-3,-10,-24,4,33,2
22.492837,-9,-80,-12,-6,6,12,-3,37,2
22.494325,83,-4,-3,-1,-12,-5,-5,16,2
22.495168,-76,30,8,1,7,-4,-3,-65,2
22.515276,4,-57,-2,1,-14,-15,2,57,2
22.515299,-85,-39,-3,-2,18,4,4,-26,2
22.516749,-7,108,13,1,-38,3,-6,4,2
22.516764,13,-128,-32,-6,46,6,2,23,2
22.537850,-51,110,3,0,-14,-18,-8,-44,2
22.537864,42,-56,-7,-4,-20,-32,-10,-46,2
22.539558,21,26,4,3,14,28,-6,5,2
22.539582,102,61,2,1,-6,-65,6,27,2
22.554530,-81,-27,-5,-7,-15,20,8,-18,2
22.554539,57,0,-6,-4,1,5,-4,39,2
22.554542,-58,13,10,5,11,-13,-8,-40,2
22.554596,-5,-56,-12,-3,-11,13,-8,2,2
22.575400,18,86,5,2,32,-12,-1,50,2
22.575423,-19,-7,-4,-1,-26,-6,8,-27,2
22.578085,-101,-128,-20,-12,-12,16,10,50,2
22.578093,48,27,9,0,33,12,-7,-9,2
22.589919,76,73,11,0,-33,-24,8,46,2
22.589950,-33,-3,-12,2,28,23,-6,-85,2
22.596628,-20,6,3,-8,-16,-20,-6,4,2
22.596649,-48,-60,-6,-1,-4,28,6,-28,2
22.612732,-37,-25,3,-2,-8,-18,-12,35,2
22.612757,52,127,25,5,-2,13,10,-5,2
22.614904,22,-71,-16,3,15,-14,-4,-41,2
22.614911,-100,-69,-8,-11,-25,6,-5,78,2
22.635624,97,-7,11,10,16,20,4,-46,2
22.635666,7,72,4,2,-4,-5,-3,67,2
22.638146,21,4,-3,-5,-1,2,2,-84,2
22.638153,68,67,-6,0,19,58,3,95,2
22.649916,23,-22,3,0,-11,-49,-13,-20,2
22.649946,25,-21,-8,-3,5,5,-2,-12,2
22.656897,8,20,2,0,-6,-1,14,79,2
22.656990,-26,-5,-6,-7,-24,-4,-12,-113,2
22.672929,7,-2,-5,-2,11,4,-5,46,2
22.672949,49,32,6,1,-16,8,2,-29,2
22.674665,-9,94,8,2,4,16,2,22,2
22.674671,19,-21,3,2,-13,-15,3,27,2
22.695361,92,-47,-12,-3,16,13,2,40,2
22.695379,-62,-32,-7,-2,-3,5,-7,-12,2
22.697222,7,2,6,2,10,-9,4,-8,2
22.697247,32,33,5,4,5,-17,-1,14,2
22.709748,54,47,0,-1,10,-1,3,-24,2
22.709766,6,-97,-10,-7,-33,13,-6,31,2
22.716621,-5,95,2,1,56,-2,-4,-61,2
22.716649,-79,-29,-2,-3,-22,-36,-8,10,2
22.732782,43,-45,-2,4,15,22,23,62,2
22.732805,-18,3,10,4,1,-12,-16,-89,2
22.734337,49,10,-5,-5,-11,-14,-6,50,2
22.734352,37,-58,-20,-4,-3,1,-6,-13,2
22.755410,-65,0,-5,-3,-2,10,8,-27,2
22.755454,4,74,1,-4,-4,-20,-12,17,2
22.757019,-4,-9,14,10,2,-10,0,4,2
22.757052,-7,-38,-15,-5,15,47,16,2,2
22.769115,41,31,2,-5,-47,-44,-3,39,2
22.769134,16,46,-5,0,32,1,7,59,2
22.779770,20,24,9,0,-16,7,4,-2,2
22.779776,71,34,18,6,11,-13,2,44,2
22.792831,37,-62,-11,-1,-8,-8,-13,14,2
22.792849,-40,-39,-6,-5,8,-13,12,-6,2
22.794371,-72,-25,-3,-9,2,47,4,2,2
22.794386,10,24,9,8,-19,-11,-4,-6,2
22.815745,32,45,5,-1,-5,11,12,14,2
22.815749,8,-49,-5,4,6,-6,-7,-74,2
22.816787,37,-46,11,2,4,6,-4,64,2
22.816802,-81,-13,-17,-7,-9,4,8,-33,2
22.829393,-67,-53,4,3,1,2,2,-35,2
22.832421,-28,2,-8,-3,2,-8,-21,-56,2
22.840245,43,41,2,-2,-8,-8,0,-5,2
22.840252,-32,20,10,3,1,-9,1,-17,2
22.853160,4,85,6,-1,6,9,-2,-14,2
22.853188,-52,-47,-2,-4,10,13,6,5,2
22.854618,7,-64,-15,2,-3,-16,-1,-26,2
22.854669,46,-10,-8,-3,-5,1,-7,42,2
22.875376,1,25,0,-2,16,5,4,-35,2
22.875400,9,81,17,7,-28,-5,4,67,2
22.877582,55,-122,-19,-7,-7,-13,-11,-37,2
22.877592,-31,21,-1,2,26,64,1,-21,2
22.889303,-62,23,-1,-1,-6,-2,1,14,2
22.889336,-5,56,4,-2,2,5,16,-34,2
22.900230,69,13,-5,-1,-3,-18,0,19,2
22.900235,-73,17,0,-8,-4,-4,-4,-1,2
22.912876,58,-4,1,0,14,-16,-17,-19,2
22.912896,-76,43,-9,-2,-7,18,3,-15,2
22.915254,-6,-51,-18,-1,11,17,10,51,2
22.915259,101,122,16,0,-18,-29,-7,-26,2
22.935648,-92,-23,-9,-4,4,-2,-12,9,2
22.935675,52,18,1,0,0,-34,-2,23,2
22.938264,46,60,10,3,-1,-2,3,35,2
22.938276,-65,10,-2,-3,-12,-12,-1,-33,2
22.948976,53,-59,-8,-2,-9,-5,9,6,2
22.948998,-34,59,3,0,-10,6,-15,26,2
22.958513,-84,-56,-5,-3,-9,-7,3,-15,2
22.958518,71,82,3,-3,0,-12,-6,32,2
22.972880,22,27,-3,-6,2,1,-1,-32,2
22.972899,-15,-47,-17,-8,-12,0,7,43,2
22.974484,-10,113,7,4,1,0,-8,-24,2
22.974509,-6,-125,-8,5,5,-4,-2,-22,2
22.995399,-41,37,6,1,-6,4,-7,15,2
22.995421,41,-69,-4,-1,2,2,2,0,2
22.997285,6,57,10,-4,3,-7,-6,7,2
22.997289,-10,-56,-9,-1,-1,-1,9,15,2
23.008976,-93,3,3,3,-32,-16,-7,-9,2
23.008994,49,21,10,2,43,26,-1,-15,2
23.019145,-16,-78,-4,-6,-21,-7,-2,24,2
23.019151,29,13,-2,1,18,0,5,3,2
23.032749,86,29,-2,-1,-7,-7,0,19,2
23.032757,-87,112,14,3,-3,-11,-7,4,2
23.034427,24,-37,-17,-5,16,8,0,-11,2
23.034453,79,63,10,2,-14,-2,-9,10,2
23.055377,-108,-128,-22,-9,3,10,-4,-41,2
23.055400,127,75,8,4,-19,-9,12,59,2
23.057613,-18,41,1,-5,-4,-5,-15,-87,2
23.057735,-9,-44,0,2,-11,-7,0,-7,2
23.069080,22,-4,-11,-4,5,-45,-6,-13,2
23.069105,-52,-91,-13,-6,13,46,0,31,2
23.079426,-69,54,6,1,5,4,7,-19,2
23.079430,40,114,10,4,-2,9,0,16,2
23.092843,36,-97,0,1,4,13,-5,20,2
23.092859,89,-47,-17,-2,-11,-31,-7,-58,2
23.095275,44,41,-3,-3,-22,-10,10,70,2
23.095281,-68,9,-10,-13,9,-16,-23,-102,2
23.115709,-30,60,10,1,-19,23,17,4,2
23.115731,-61,24,4,0,-5,-15,-13,2,2
23.118225,53,-56,-3,-1,10,17,-4,1,2
23.118231,-5,9,6,1,-14,-11,2,24,2
23.129426,89,50,1,2,8,-2,2,40,2
23.129505,-61,-50,-10,-3,5,4,-2,-60,2
23.138398,13,-21,0,-2,-2,-20,-3,-11,2
23.138402,-60,59,6,1,-14,5,7,12,2
23.152987,-111,-75,-3,-3,29,10,3,-18,2
23.153004,84,19,-7,-6,-4,-28,-11,63,2
23.155226,-12,-17,-4,3,3,26,10,24,2
23.155239,-13,-49,-8,-7,-8,-1,-4,-66,2
23.175332,44,32,5,-1,-3,9,4,24,2
23.175349,13,18,21,7,4,-3,-2,-27,2
23.176798,-37,-70,-10,-4,14,-10,0,31,2
23.176816,49,40,2,3,-21,32,-11,-46,2
23.197853,4,42,3,2,9,-61,9,73,2
23.197877,-72,26,-8,-10,-9,-6,-14,-25,2
23.199795,25,-30,-12,-10,-8,-7,-14,-18,2
23.199800,-31,-57,2,3,23,31,15,34,2
23.212882,52,51,1,-1,-35,8,-10,5,2
23.212905,25,-26,-1,1,31,10,8,34,2
23.215823,54,12,8,6,-4,-11,-5,-10,2
23.215828,-42,65,-1,-3,7,-18,18,22,2
23.235573,67,5,8,0,1,1,-15,2,2
23.235592,13,-48,-5,-2,-7,33,21,21,2
23.237153,-37,-18,-5,-7,-20,-34,-20,-120,2
23.237178,-4,-6,-4,0,-8,-11,-1,32,2
23.257859,-16,42,5,-1,22,12,-6,-55,2
23.257879,95,35,11,3,0,-12,-5,27,2
23.259395,-20,44,-7,-1,3,8,4,40,2
23.259404,24,21,-1,-2,8,-3,-1,-30,2
23.272989,-10,-116,-13,0,-9,-2,-7,-57,2
23.273008,-1,-4,7,3,9,-4,-8,-5,2
23.274431,-57,78,9,4,9,20,15,33,2
23.274440,-39,-3,0,0,5,-13,-10,17,2
23.297198,-52,-46,-13,-6,-1,13,4,6,2
23.297205,74,0,-2,0,2,-2,-1,-36,2
23.297208,-42,123,21,8,-2,-31,-2,4,2
23.297210,48,-128,-11,-6,13,16,-4,-65,2
23.318108,-62,-62,-20,-2,-7,11,7,62,2
23.318132,-23,-35,-4,-4,-20,-19,-7,46,2
23.320838,7,93,10,3,8,18,0,-40,2
23.320846,109,-6,10,6,3,-9,10,97,2
23.332526,-77,32,1,-1,-1,2,-10,-95,2
23.332555,-88,-101,-17,-7,-10,-1,1,10,2
23.339191,1,8,1,0,-26,3,-3,16,2
23.339234,-13,31,4,2,20,-3,-2,-2,2
23.355692,46,13,5,5,-3,2,7,4,2
23.355728,-22,71,-9,-8,-4,-9,-6,-29,2
23.357942,-46,-128,-16,-7,-7,7,0,-10,2
23.357948,59,49,2,2,-6,-19,0,-25,2
23.377794,-86,62,6,0,-4,-1,3,32,2
23.377816,-43,-38,-9,2,1,1,-5,-16,2
23.379365,53,39,8,1,30,3,1,-14,2
23.379387,-2,-9,-3,-2,-26,-1,-7,-2,2
23.392166,67,-19,0,-3,5,10,1,-18,2
23.392186,-60,87,1,3,-8,-4,0,28,2
23.399053,22,11,-22,-4,11,-1,0,27,2
23.399070,-48,30,-10,-6,-12,-18,-13,9,2
23.415276,-17,38,6,0,-1,-17,-4,6,2
23.415299,-17,-28,-1,0,-1,17,13,3,2
23.416853,89,32,3,1,-23,-4,-6,56,2
23.416873,-53,-11,-7,-4,2,-10,-7,-31,2
23.437815,39,1,1,-4,-17,7,-5,-39,2
23.437832,73,0,6,4,15,4,4,18,2
23.439616,-43,6,7,4,6,0,4,14,2
23.439645,62,88,23,5,21,12,0,-9,2
23.453972,-43,-72,-32,-3,-27,-4,7,52,2
23.453985,-29,115,10,5,37,44,5,-58,2
23.459037,3,2,-6,-6,-21,-2,-11,-63,2
23.459055,3,-71,-1,0,-14,4,7,45,2
23.475391,5,102,7,-2,12,-11,-1,11,2
23.475413,3,-117,-9,-3,-18,-24,-9,29,2
23.477544,36,-12,6,2,11,10,2,-35,2
23.477553,-53,-26,-4,1,-8,-6,6,75,2
23.499310,-39,42,10,6,-3,2,-12,-81,2
23.499318,-114,-93,-9,-6,-5,-7,-4,-15,2
23.499320,40,37,4,2,16,34,8,13,2
23.499322,85,-32,-13,-3,-25,-76,0,11,2
23.515350,7,0,-8,-9,-4,8,-16,-33,2
23.515355,34,-7,2,2,0,7,10,-31,2
23.519449,-12,23,4,2,1,-14,1,16,2
23.519474,6,-5,1,2,3,11,2,16,2
23.535613,28,59,13,6,1,6,3,25,2
23.535642,35,40,-1,-3,-9,-18,-9,-3,2
23.538212,-12,-48,-4,-5,-4,-6,1,-9,2
23.538217,9,16,5,-2,19,21,2,-3,2
23.557994,21,29,7,7,10,-20,4,40,2
23.559621,-26,-98,-8,-6,2,31,-14,-26,2
23.559628,-29,21,-1,3,-13,-22,3,33,2
23.559679,47,74,-7,-8,-10,-5,-15,-14,2
23.572160,-62,-128,-19,-9,7,6,0,-16,2
23.572181,12,105,9,3,-3,-14,-1,13,2
23.579140,-17,-109,-10,-3,-7,-5,-1,13,2
23.579163,-12,62,10,3,4,5,-1,6,2
23.595315,51,23,1,-3,-1,0,5,31,2
23.595338,29,26,-1,-1,3,-10,2,-2,2
23.597838,-14,26,1,1,-17,-17,-13,-27,2
23.597845,44,-67,-4,-5,26,41,1,-16,2
23.617827,-39,12,-10,-3,-3,-19,1,-15,2
23.617850,79,85,23,7,-25,12,2,39,2
23.620164,-85,-82,-31,-15,15,-66,-8,-74,2
23.620179,-128,-33,-17,-2,0,-10,6,-17,2
23.632134,94,69,13,6,8,10,6,41,2
23.632151,11,-15,-13,-1,-11,-8,-12,30,2
23.639233,-8,119,14,0,3,10,-6,22,2
23.639260,-3,-88,-5,-4,-16,9,4,11,2
23.655652,-24,69,11,3,0,0,-5,-85,2
23.655694,71,68,-4,-7,-2,-32,2,8,2
23.658323,6,-49,-6,1,13,25,-1,15,2
23.658334,-2,19,-2,0,3,21,14,43,2
23.678320,23,37,7,2,2,11,-12,-36,2
23.678350,-10,-4,-3,-3,4,-20,-3,3,2
23.679760,-37,15,4,0,10,25,10,-1,2
23.679764,29,-8,6,0,3,-5,5,11,2
23.691637,39,35,-1,-3,-11,-17,-15,-52,2
23.691654,-82,-126,-25,-9,2,3,-1,-3,2
23.701022,68,55,12,6,-12,2,-2,8,2
23.701031,-30,112,8,1,-3,-8,-1,-8,2
23.715678,-29,-55,-4,-3,7,18,1,17,2
23.715695,42,-13,-6,-2,-6,-7,0,-33,2
23.717112,-81,33,4,1,7,31,1,23,2
23.717133,64,63,1,2,-16,3,-3,11,2
23.737943,-70,-67,-13,-7,8,-2,-6,-26,2
23.737971,-70,-30,0,1,2,-3,5,-26,2
23.739693,92,-39,4,3,-10,-2,5,74,2
23.739698,-65,-42,-6,-8,-1,-3,-18,-47,2
23.751454,67,94,4,3,-9,17,24,-9,2
23.751476,-64,-56,-9,-1,1,16,-4,20,2
23.760782,63,55,8,4,17,-13,-7,-17,2
23.760786,6,-75,-5,1,6,-4,-3,-15,2
23.777128,-48,-27,0,-2,1,-2,1,40,2
23.777135,50,127,14,-3,-13,-6,-5,-2,2
23.777137,-75,-112,-14,-7,-5,1,2,-25,2
23.777139,31,-14,-12,2,-6,-8,0,-29,2
23.798012,64,-16,-6,-6,-8,-5,-4,39,2
23.798035,-6,19,3,3,0,-4,-1,31,2
23.800559,-1,-4,3,-6,-3,-4,-7,-31,2
23.800566,-28,39,0,2,3,3,-3,0,2
23.811950,43,-65,12,4,6,-3,4,28,2
23.811981,3,-4,-3,0,14,3,7,37,2
23.822858,-17,63,-7,-5,-3,-1,-8,-103,2
23.822865,-30,-54,-10,-3,-18,-8,-3,21,2
23.835285,35,-34,5,5,10,3,5,54,2
23.835303,-46,27,17,4,1,-16,-7,-1,2
23.837787,7,-19,-11,-5,-5,21,-1,32,2
23.837795,17,88,14,2,0,-15,-11,-8,2
23.857912,-32,-87,-26,-9,7,-6,4,2,2
23.857931,106,69,4,4,-3,7,5,-3,2
23.859418,-46,23,-1,5,-1,-7,4,23,2
23.859436,24,17,5,-1,3,-7,-5,-19,2
23.871545,-47,-59,-12,-9,-15,-4,-7,2,2
23.871568,-25,-10,3,0,13,1,0,15,2
23.881179,57,26,13,7,23,12,4,-35,2
23.881184,-29,-11,2,-1,-5,1,-2,5,2
23.895631,30,63,4,0,-1,-3,-5,-4,2
23.895651,12,-56,-3,-2,-18,7,6,-40,2
23.897106,-2,14,-5,-3,0,2,-9,25,2
23.897114,-19,3,-5,-2,16,-31,-7,13,2
23.917888,23,50,11,2,-2,28,0,-44,2
23.917892,-79,-73,-17,-4,1,4,8,-29,2
23.919564,47,9,-2,-3,-10,-13,2,33,2
23.919583,-104,-11,0,-2,1,3,4,12,2
23.933113,65,57,6,2,-1,-7,-9,-3,2
23.933118,46,9,-7,-1,-4,-4,-3,-28,2
23.941301,-12,19,6,-2,-6,-14,-4,2,2
23.941305,6,31,1,2,9,16,13,18,2
23.955394,73,7,6,-1,-12,9,-5,1,2
23.955413,-17,-25,-6,2,26,13,-8,6,2
23.957367,-82,-53,-17,-9,-62,-76,-8,-12,2
23.957392,37,17,-1,-4,-1,15,-4,-38,2
23.980519,-77,-14,-8,-4,-7,-12,2,18,2
23.980526,-4,59,15,1,-6,-1,1,-1,2
23.980529,37,0,1,5,10,13,-6,14,2
23.980531,12,-53,1,1,-3,0,0,-7,2
23.991534,26,96,28,10,-4,-27,1,-4,2
23.991571,-89,-84,-28,-12,20,23,-4,31,2
24.000920,-69,-18,-20,-8,-10,-10,-1,-86,2
24.000925,19,-51,-4,-2,-5,-10,-2,3,2
24.015676,-16,-2,-11,-6,5,10,-1,2,2
24.015698,55,64,21,9,-8,-4,0,18,2
24.017119,49,16,6,3,2,11,5,41,2
24.017128,-27,-21,-9,-1,7,7,-5,-17,2
24.037845,-24,1,-3,-2,-1,-15,-6,-8,2
24.037865,15,-16,-6,-5,-5,-12,0,0,2
24.039968,0,7,2,-3,-3,5,0,34,2
24.039978,35,-4,6,4,-6,1,5,-16,2
24.051713,-59,14,9,5,24,16,-5,-33,2
24.051736,-59,71,-12,-8,-23,10,-15,-79,2
24.060375,-35,-75,-16,-9,3,-56,-9,23,2
24.060459,13,63,-1,-8,-2,0,8,18,2
24.075243,-25,0,-10,1,12,11,-1,-24,2
24.075260,26,-20,0,1,-16,3,4,18,2
24.076803,35,45,13,3,8,12,-4,-2,2
24.076824,2,0,-1,-1,-11,5,-4,1,2
24.097914,-13,-7,-3,-4,-9,-28,0,1,2
24.097930,22,-1,7,-2,2,-15,0,20,2
24.099295,7,-46,-11,-1,5,35,5,-13,2
24.099319,2,10,12,2,1,-8,-3,37,2
24.121880,-15,35,0,2,4,14,7,12,2
24.121889,30,-84,13,7,-16,-9,-4,-40,2
24.121891,-71,-4,-13,-5,32,12,-2,-19,2
24.121893,3,-11,-9,-2,-3,-2,3,26,2
24.136055,-27,-77,-15,-8,-7,-7,-11,-14,2
24.136073,13,43,-1,-3,-1,-3,-2,-4,2
24.136965,41,62,11,4,3,4,3,28,2
24.136983,38,1,3,2,-6,-1,14,37,2
24.157771,-21,6,-1,-5,-6,-3,-3,-35,2
24.157790,6,13,3,5,5,-2,8,77,2
24.159311,92,123,29,7,-34,-12,-4,-35,2
24.159320,0,-84,-34,-15,28,62,-20,-83,2
24.180619,-4,16,-3,4,-9,-49,-2,49,2
24.180648,-47,4,-9,-8,-15,-18,11,-27,2
24.187000,12,14,7,7,6,7,-2,-7,2
24.189810,7,2,4,4,-12,-7,-4,-13,2
24.195610,13,14,3,-6,1,7,0,-2,2
24.195631,8,6,-5,-1,2,3,-4,9,2
24.198175,8,-59,12,4,-3,1,11,47,2
24.198183,-20,-81,-19,-4,-8,-19,-9,-25,2
24.218429,-12,-10,28,3,17,19,8,26,2
24.218459,12,14,-2,0,6,-14,-7,-5,2
24.221589,16,-3,-13,-8,-3,15,-2,1,2
24.221599,-24,22,10,0,2,-7,-3,-22,2
24.240407,38,6,11,2,-6,-15,8,5,2
24.241609,4,-38,-3,-1,3,33,9,18,2
24.241810,59,49,-4,-6,-36,-21,-16,-27,2
24.241834,-119,-11,-6,0,36,7,-5,-47,2
24.255600,114,-38,-28,-6,-5,-7,-4,24,2
24.255636,27,56,6,-4,-1,-11,-4,21,2
24.257404,-25,-83,-10,-5,1,9,3,9,2
24.257410,38,102,8,3,-4,-14,1,24,2
24.277768,-12,-110,5,1,-16,13,-1,-3,2
24.277782,-30,25,-3,1,13,0,-5,-31,2
24.279645,-21,40,5,-4,11,5,5,20,2
24.279934,89,-43,-10,-1,-18,32,-19,-27,2
24.300306,-74,-19,-14,-3,1,-3,11,12,2
24.300328,45,52,6,1,-2,2,1,32,2
24.303249,-16,-75,1,-3,9,-24,-8,-18,2
24.303262,11,-13,5,-2,-15,31,8,-7,2
24.314698,18,2,-12,-3,1,-6,3,55,2
24.314720,-50,-74,-12,-7,-8,-6,-15,-60,2
24.324136,16,65,3,1,2,11,6,39,2
24.324143,25,83,17,4,-8,-30,-1,-19,2
24.338638,28,-40,-8,1,12,23,-2,17,2
24.338650,-37,8,-8,-2,-4,-9,-1,24,2
24.339488,-83,7,2,2,7,1,0,-36,2
24.339498,31,-16,4,-4,-4,-18,-1,21,2
24.360499,-7,58,7,5,-3,0,-6,-28,2
24.360523,7,-23,2,2,7,3,1,6,2
24.362305,35,-48,-2,1,2,10,0,-11,2
24.362310,-81,92,2,-1,2,-14,6,49,2
24.374751,1,-45,-4,-1,-3,7,-4,-27,2
24.374776,51,-15,-7,-3,-37,-4,-4,-24,2
24.381865,-57,62,6,0,35,-3,-2,94,2
24.381881,5,-90,-21,-5,3,39,17,1,2
24.397806,10,-37,-8,-1,-7,-59,-8,-72,2
24.397828,-12,18,5,-2,-14,-34,-9,-52,2
24.399762,57,39,3,-1,-9,2,6,-10,2
24.399769,-16,-11,0,-4,-6,-13,-2,37,2
24.420711,-37,37,-2,-6,7,13,-6,-12,2
24.420737,92,34,5,8,16,-1,4,16,2
24.421800,-83,-73,-10,0,3,-14,1,9,2
24.421824,-19,20,-1,-5,-1,12,-7,22,2
24.434599,-81,-93,-6,-1,-6,18,-8,-67,2
24.434621,-4,11,-6,-4,12,1,2,37,2
24.441467,34,71,7,2,-2,18,-1,-9,2
24.441490,3,-28,-5,0,-3,-19,-4,-23,2
24.465508,8,72,5,-2,-3,-2,5,64,2
24.465527,-49,66,22,12,17,2,9,-16,2
24.466909,-50,-126,-32,-18,-9,18,-18,-49,2
24.466929,-28,-76,-7,1,-8,-31,10,23,2
24.480227,80,80,8,0,-4,4,1,5,2
24.480236,-48,-99,-12,-8,6,5,-2,11,2
24.481769,24,25,9,7,-12,1,8,20,2
24.481784,14,59,11,5,7,-9,-10,-37,2
24.494596,-1,30,-12,-9,1,10,-1,30,2
24.494616,-21,-44,21,11,9,42,-7,20,2
24.502248,-74,-69,-24,-13,-23,-63,-7,-59,2
24.502277,25,-11,0,0,1,6,2,-12,2
24.517803,71,9,-4,-3,-4,-9,-3,38,2
24.517819,-2,50,-2,-1,-7,5,1,-36,2
24.520038,-6,19,10,6,12,17,5,33,2
24.520045,-35,-18,-10,-3,0,-8,0,22,2
24.542269,-18,23,4,-1,-7,-1,3,12,2
24.542276,18,19,2,1,16,-11,-9,-39,2
24.542278,-7,-24,1,1,2,19,11,-28,2
24.542280,31,36,5,0,2,2,0,12,2
24.554689,61,-27,-5,5,1,-10,8,-14,2
24.554712,54,-27,-23,-21,-26,-14,-4,6,2
24.561860,38,-13,-4,1,6,-8,-9,34,2
24.561941,45,24,2,1,-2,4,6,48,2
24.578038,-67,-42,3,0,5,10,-3,-55,2
24.578063,-16,23,12,2,2,-10,-2,30,2
24.580006,47,36,-1,-3,3,-6,-3,-12,2
24.580013,0,-28,-4,0,-11,-4,-5,8,2
24.600242,-34,-1,-9,-3,-5,-1,-7,6,2
24.600265,18,7,12,6,2,0,3,6,2
24.601783,26,58,16,0,-11,11,0,21,2
24.601798,-17,-43,-1,0,13,-15,-6,-10,2
24.613993,25,40,1,-1,-5,14,4,0,2
24.614015,-85,-34,-13,-8,-6,4,3,9,2
24.625060,46,20,2,6,3,10,4,-17,2
24.625072,7,-21,0,-1,-7,-19,-22,-14,2
24.637908,-76,-28,-12,-4,0,8,4,-26,2
24.637930,45,70,2,0,0,7,2,23,2
24.639538,18,-89,-22,-10,-12,-12,-1,-42,2
24.639558,6,70,5,0,13,14,8,-2,2
24.660302,59,-4,0,-1,-12,-63,-5,41,2
24.660325,-3,0,-2,-2,7,12,1,-29,2
24.662744,-19,-1,4,0,-1,-2,-5,7,2
24.662750,-36,-4,3,7,-1,-1,6,1,2
24.674037,-50,-12,11,2,24,12,-7,-34,2
24.674054,38,41,2,-1,-9,-9,-7,-44,2
24.685066,8,60,-3,-5,-2,-3,9,6,2
24.685075,70,-43,-17,-5,-12,-18,-10,-31,2
24.697715,-5,29,10,3,34,39,10,26,2
24.697731,52,-7,-8,0,-5,-5,-1,25,2
24.699173,-116,6,4,2,15,21,-13,-34,2
24.699191,27,10,2,-5,-10,-12,8,-18,2
24.720489,59,51,0,-2,-3,6,5,12,2
24.720511,-43,-17,-1,-1,-6,-9,4,-4,2
24.722216,68,-55,1,3,-1,2,5,32,2
24.722231,-9,43,-4,-2,0,6,-3,-4,2
24.734341,-34,4,-1,-1,-18,-9,-7,-11,2
24.734363,2,-4,4,-2,7,9,-2,-1,2
24.743486,1,-5,7,2,1,-4,-9,18,2
24.743496,-16,65,4,-2,-5,-5,-5,-13,2
24.758942,-42,-34,-8,-5,-3,9,2,-16,2
24.758948,4,-68,-7,-1,6,-1,-1,24,2
24.759322,57,25,-2,-2,19,34,-4,23,2
24.759333,-70,31,3,1,-40,-62,-10,-46,2
24.780327,15,-18,3,1,28,-10,-9,24,2
24.780356,-103,-40,0,-1,5,14,2,16,2
24.782065,75,-17,-2,-2,-15,-17,3,-9,2
24.782070,38,-60,-5,0,16,59,6,24,2
24.802318,3,2,1,-3,-14,-10,1,-3,2
24.802353,-29,24,6,2,2,-15,-4,-16,2
24.805238,4,22,0,-1,4,4,0,35,2
24.805245,27,73,1,1,1,-1,6,47,2
24.817205,0,-14,-3,1,-6,-3,-9,-66,2
24.817227,-32,-9,-19,-7,0,7,-9,-16,2
24.821037,-22,-46,-20,-7,-17,-13,0,-1,2
24.821049,-60,-4,23,7,10,5,1,21,2
24.839791,43,21,-4,-1,-23,8,8,25,2
24.839809,85,9,1,-3,18,-9,-1,-27,2
24.840473,-63,39,-6,5,-24,-1,5,-25,2
24.840561,-8,-54,4,-7,33,1,-5,-20,2
24.862328,76,9,0,3,-4,-1,-9,8,2
24.862354,-5,-26,-8,-3,-9,2,4,38,2
24.865060,-30,51,6,1,1,-6,-1,7,2
24.865067,37,-86,-8,-2,-4,13,0,-37,2
24.877654,10,57,-4,-7,8,-9,-8,8,2
24.877684,-63,-49,-7,1,-21,2,2,8,2
24.879203,9,32,4,-6,5,-1,5,-5,2
24.879207,-45,14,5,2,-5,-6,-1,-9,2
24.899857,25,-27,-5,-1,2,-3,-7,-25,2
24.899867,8,91,12,8,1,-1,4,54,2
24.900460,98,-37,-12,-6,3,-1,-5,-45,2
24.900501,-39,-27,-9,-2,-16,9,-3,-8,2
24.922649,-62,21,1,-2,-1,-55,-4,-1,2
24.925070,81,-88,-11,-2,-21,2,9,30,2
24.925078,-37,56,10,4,46,7,-13,-58,2
24.925080,26,1,-11,-4,-2,-14,11,35,2
24.937194,-45,18,6,-1,-11,1,-3,0,2
24.937216,31,20,2,-6,10,7,-2,28,2
24.939438,-102,-66,-5,5,-14,-11,3,-18,2
24.939442,58,-32,-10,-5,-3,12,-5,-33,2
24.961065,-17,7,4,0,6,10,3,45,2
24.961071,-23,31,14,-1,-4,-11,-5,-44,2
24.961073,64,11,-4,0,-5,9,3,-3,2
24.961075,12,18,0,-3,3,-2,2,9,2
24.982520,15,-34,4,4,0,4,-3,23,2
24.982548,-22,16,-4,-1,4,-5,-1,-19,2
24.983903,64,-16,10,2,-47,-20,0,58,2
24.983907,-93,-42,-7,-4,-11,21,-8,-88,2
24.997265,40,14,-6,-1,35,17,1,25,2
24.998860,60,10,0,-1,-7,-3,-7,-34,2
24.998864,-72,-19,-3,-2,15,0,6,30,2
24.998867,-21,24,6,3,-7,-11,-3,24,2
25.020028,1,-22,-2,-2,-17,12,8,-13,2
25.020063,16,48,6,7,13,-15,-2,-7,2
25.021642,-7,-58,-11,-9,-10,14,-8,29,2
25.021658,-29,-16,5,2,8,20,5,23,2
25.042106,-49,-38,-9,-5,-9,13,-1,15,2
25.042125,28,-50,-5,-2,-6,-24,0,-40,2
25.042801,-89,32,10,5,15,-1,-7,-11,2
25.042819,14,17,-4,1,-10,8,1,7,2
27.067835,0,-2,0,3,0,0,-1,-1,0
27.068087,0,0,4,1,2,-1,-1,-2,0
27.069834,-14,-2,-1,-3,-3,-1,-2,-1,0
27.069907,8,17,-3,-2,-2,-2,-1,-1,0
27.082044,-3,-14,19,2,0,-1,-1,-2,0
27.082066,4,2,-4,-1,-1,-3,-2,-2,0
27.082854,-13,-6,-7,-4,-2,0,0,-1,0
27.082858,10,0,-4,-4,1,0,-1,1,0
27.105573,0,0,-6,0,-2,-2,-1,-1,0
27.105604,-5,2,1,-1,0,1,-1,-1,0
27.106240,4,0,5,-1,-2,-2,-2,-2,0
27.107690,4,-9,-5,-1,-1,0,1,0,0
27.127795,-6,-7,-6,0,0,-1,0,-1,0
27.127818,-2,2,-7,-2,-2,1,-1,-1,0
27.130966,-2,4,1,-2,-1,-3,-1,-1,0
27.130972,0,3,3,3,-1,-1,0,-1,0
27.142265,-1,-1,2,1,0,1,0,-2,0
27.142286,0,-2,-1,-5,-1,-2,-1,0,0
27.143700,-6,-4,-2,2,-1,1,-2,-1,0
27.143711,-1,-2,0,-2,-2,-2,0,-1,0
27.165289,1,13,-4,-3,-1,0,-1,0,0
27.165305,-4,-15,2,-1,-3,-2,0,-2,0
27.166000,-2,-2,-4,-6,1,-3,0,-1,0
27.166012,0,-2,7,6,-1,-1,0,1,0
27.187819,4,15,-4,-1,-2,0,-2,-1,0
27.187841,0,-8,1,0,1,-1,0,0,0
27.188777,7,-6,-7,-1,-2,0,-1,1,0
27.188785,-14,-1,2,-2,-1,-1,-1,-2,0
27.202749,-2,0,-1,-3,-2,0,-1,0,0
27.202797,0,3,-1,0,0,-1,-1,-2,0
27.205574,-3,-10,-5,1,0,-2,0,-1,0
27.205579,8,10,7,5,2,0,-1,0,0
27.225832,-3,-1,-2,0,-1,-1,-1,0,0
27.225837,-4,1,-2,-3,-2,-2,0,-2,0
27.225999,-5,-2,-2,-3,-3,0,-1,-1,0
27.226007,6,-6,-3,0,0,0,-1,1,0
27.248044,-3,-5,-3,-2,1,-2,-1,-1,0
27.248068,1,3,0,-4,-1,0,1,-1,0
27.250529,-3,-1,1,3,0,0,1,0,0
27.250535,-2,9,-3,-3,-2,-2,-1,-1,0
27.262164,1,-22,1,-1,-1,-3,0,-1,0
27.262245,-1,1,-9,0,-1,-1,0,0,0
27.264304,-4,3,6,-1,-1,0,-1,-1,0
27.264310,0,-4,-1,-5,-2,-1,-2,0,0
27.285632,2,6,-1,-1,-1,0,-1,-1,0
27.285654,-3,3,5,-1,-2,-1,-2,1,0
27.287578,-4,-3,0,1,0,0,0,-1,0
27.287584,3,-2,-8,-4,-1,-3,-1,0,0
27.307919,9,-1,-2,-2,0,-2,-2,-1,0
27.307935,-14,-7,2,0,-1,0,0,0,0
27.308535,4,14,2,-2,0,-1,-1,-1,0
27.308549,-11,-9,-2,3,0,0,-1,-2,0
27.322470,0,2,2,1,-1,-1,0,-3,0
27.322513,-8,-10,-4,-1,1,0,-1,0,0
27.323076,-3,2,1,0,1,-1,0,-1,0
27.323102,5,0,-2,-4,-2,-1,0,-1,0
27.345358,3,-2,-2,-1,0,-1,-1,0,0
27.345387,-1,8,-3,-2,-2,0,0,-1,0
27.347485,3,-2,-2,-2,-1,-1,-1,-1,0
27.347489,2,-5,-1,-2,-1,-2,-1,-1,0
27.367771,-7,14,-4,-1,-1,0,0,-1,0
27.367789,3,-2,2,2,0,-1,-1,0,0
27.368714,-4,-16,4,-2,-1,-1,-2,-1,0
27.368780,0,-15,-8,-1,-1,0,-1,0,0
27.382022,-11,3,-3,0,-2,-3,-1,0,0
27.382032,7,19,3,-2,-1,0,-1,-1,0
27.382780,6,4,5,5,2,0,-1,-1,0
27.382797,-10,-1,-4,-1,-1,-2,0,-2,0
27.405356,-1,-18,-6,-2,-1,-2,-1,-1,0
27.405374,2,0,-1,-5,-1,-1,-1,-1,0
27.407635,-1,1,-3,0,0,-1,-2,-2,0
27.407645,1,-10,-5,-3,0,-1,0,-1,0
27.428712,-3,8,1,1,-1,-1,0,-1,0
27.428717,3,-4,2,2,-2,-2,-2,-2,0
27.428719,-3,0,-3,-5,-2,-1,-1,-2,0
27.428721,1,3,0,0,-2,0,1,-1,0
27.450355,-3,-10,-4,-2,1,0,-1,-1,0
27.450370,-2,-3,1,1,-1,-2,-1,-1,0
27.451098,0,1,-7,-3,-2,-2,-2,-1,0
27.452682,0,1,0,0,-1,-1,-2,-2,0
27.465409,-2,10,0,-2,-3,-2,-1,-1,0
27.465433,-3,-10,7,2,-1,-1,0,-2,0
27.466248,-2,-5,-6,-3,-2,-1,-2,-1,0
27.466252,15,21,4,0,0,-2,-3,-1,0
27.487838,-15,-17,7,4,2,1,0,0,0
27.487864,1,1,-4,1,0,-2,-1,-2,0
27.488991,-7,-4,-1,-2,-2,-1,0,-2,0
27.489001,8,3,1,-2,-2,-1,-1,1,0
27.502143,-6,2,3,0,-2,0,-1,0,0
27.502169,0,3,-4,-1,-2,-2,-1,-2,0
27.504424,-1,-3,-1,2,0,-1,-1,-1,0
27.504434,0,-3,-3,-4,-1,0,-1,-1,0
27.525544,4,-2,0,-5,-2,-3,-2,-2,0
27.525564,-2,-10,-7,-3,-1,-1,-1,0,0
27.525963,0,14,0,-1,0,-2,0,-1,0
27.525977,-5,3,2,-1,1,0,-1,0,0
27.547767,9,2,4,5,1,0,-1,0,0
27.547790,1,1,0,-2,-1,-1,-2,-1,0
27.548769,1,-6,-8,-2,0,-1,0,0,0
27.548773,-5,6,-4,-2,-2,-1,-1,-1,0
27.561423,-5,-15,1,-3,-2,-1,0,-1,0
27.561439,3,12,-2,-1,-1,-1,-1,0,0
27.569692,-2,-1,-1,-3,-2,-1,0,0,0
27.569776,-4,-3,3,1,-1,-1,-1,-1,0
27.585243,1,-3,-7,-4,0,0,-2,-1,0
27.585302,-2,-1,5,0,-1,0,-1,-1,0
27.586091,-2,-3,1,0,-1,0,0,-1,0
27.586119,-1,-5,2,2,-1,-1,1,-1,0
27.607911,3,14,-4,-1,-2,-2,-1,-2,0
27.607935,-1,-13,1,-1,0,-2,-1,0,0
27.609913,-2,3,0,-5,-1,-2,-1,-2,0
27.609917,5,-6,1,1,0,-1,0,1,0
27.621521,-12,1,-3,-1,0,-1,-2,-2,0
27.621560,-1,2,-6,1,2,0,-1,1,0
27.632343,0,-4,2,1,-1,0,0,0,0
27.632351,-1,-5,-4,-4,-1,-2,-1,-2,0
27.647460,6,1,-2,0,-1,-1,-1,1,0
27.647469,-1,0,-2,-1,-1,-2,1,-1,0
27.647473,-2,-7,2,-1,0,-2,-1,-1,0
27.647476,-3,17,-3,-1,-1,-1,-1,-1,0
27.667951,-3,-16,1,-1,-1,-1,0,-1,0
27.669450,5,0,-2,-1,0,-1,0,0,0
27.669463,0,-1,-2,0,-2,-1,-2,0,0
27.669465,-2,-6,0,0,0,1,0,-1,0
27.681370,-2,0,-7,-4,-2,-2,-1,-2,0
27.681387,-1,3,2,1,-1,-2,0,-1,0
27.689949,0,-5,1,1,1,0,-1,-1,0
27.689969,-3,-6,-5,1,-2,-1,-2,-1,0
27.705489,0,4,1,-1,0,1,0,1,0
27.705507,-1,-1,-2,-4,0,-1,-2,-1,0
27.706937,1,6,-3,-4,-1,-1,-2,-1,0
27.706965,-3,-14,-4,0,0,0,0,-2,0
27.727732,3,2,12,4,0,0,0,-1,0
27.727747,0,0,-3,-3,-1,-1,0,0,0
27.729316,-2,-13,-2,0,0,-1,0,0,0
27.729326,1,20,0,-3,1,-1,0,1,0
27.741488,1,3,4,-3,-2,0,0,-2,0
27.741498,-1,0,-4,-1,-2,-2,-2,-1,0
27.751766,-2,-5,-5,-2,0,-1,0,-1,0
27.751778,-4,-14,-6,0,-1,-1,-1,-1,0
27.765299,1,3,-3,-2,-1,-2,-2,0,0
27.765316,-1,11,-3,1,-2,1,-1,-1,0
27.766778,3,-4,6,-2,-2,-2,-2,-1,0
27.766786,-10,-11,-5,1,0,1,-1,-2,0
27.790476,-12,-6,0,0,-1,1,1,-1,0
27.790483,0,0,0,-1,-2,0,-1,-2,0
27.790486,-1,1,-3,-2,-1,0,0,1,0
27.790488,4,1,-4,-4,-3,-2,-3,-1,0
27.801542,3,0,-4,-5,0,-2,-1,1,0
27.801565,-3,-3,7,4,1,0,0,-1,0
27.812206,1,5,1,0,-1,1,-1,-2,0
27.812215,-2,-6,0,-2,-3,-2,-1,-3,0
27.824264,3,0,0,2,2,-1,-1,0,0
27.824287,-1,-8,-5,-4,-2,-1,0,1,0
27.834264,-2,3,-1,-3,-1,-1,-3,-2,0
27.834269,1,12,4,0,1,-1,0,-1,0
27.848201,-3,-20,-7,-6,0,-1,-2,-1,0
27.848233,5,2,4,-1,-1,-1,-2,-2,0
27.850775,-8,5,2,-1,-2,-1,0,0,0
27.850781,7,-11,-3,-1,0,-2,-1,-1,0
27.861507,1,-2,-2,-1,-1,-1,-1,-2,0
27.861532,-2,15,1,1,-1,-1,0,-2,0
27.872067,-5,-2,1,2,0,-2,1,0,0
27.872077,12,12,2,-1,-1,0,-1,0,0
27.886002,0,-4,-5,0,-2,0,0,-1,0
27.886044,-3,-14,-3,-4,-1,-1,-2,0,0
27.888416,-1,7,-8,-3,-3,-2,-1,0,0
27.888424,-4,-4,7,1,0,1,0,1,0
27.907832,5,6,2,0,0,0,0,-1,0
27.907855,-13,-6,1,2,0,0,-1,-3,0
27.909547,-14,-3,1,-3,-1,-1,-2,-3,0
27.909559,-5,-11,-9,0,-2,-2,0,1,0
27.930742,0,1,-2,-2,-1,-1,-1,-1,0
27.930814,5,2,-3,-4,-4,-1,-1,0,0
27.931935,6,9,0,0,0,-1,-1,-1,0
27.932965,-1,-19,-3,-4,-1,-1,-1,-2,0
27.945627,-9,-3,-3,-2,0,0,-1,-2,0
27.945693,18,1,-3,-3,-1,-2,-2,2,0
27.946874,47,7,2,0,-1,2,1,2,0
27.946890,-87,-25,-4,-1,-4,-3,-3,-7,0
27.967956,22,1,3,2,-1,-1,-1,-2,0
27.967977,-8,-12,-4,-1,-2,0,-1,-1,0
27.970480,15,6,0,-1,0,0,-1,1,0
27.970490,24,20,4,-3,0,0,-1,2,0
27.990637,-13,-4,-1,-2,-2,-1,0,-3,0
27.990660,-8,-3,1,1,0,-1,-2,-2,0
27.992014,-12,-3,-1,2,-2,-1,-2,-2,0
27.992034,5,4,-3,-4,-2,0,0,-3,0
28.005551,-11,-6,-2,-2,-3,-2,-2,-1,0
28.005564,9,3,-8,-2,-1,0,0,0,0
28.007179,-7,0,7,3,0,0,-1,-2,0
28.007261,-3,-1,1,1,0,-1,-3,-1,0
28.027885,11,2,0,-3,-2,1,-1,-1,0
28.027907,-3,-1,-5,-2,0,0,0,-2,0
28.029736,-11,-8,-6,-4,-1,-1,-1,-1,0
28.029749,13,5,2,2,0,0,-1,2,0
28.052242,-3,5,0,0,-1,-1,-2,-1,0
28.052254,-10,1,-1,0,0,-2,-1,-1,0
28.052257,-8,-25,-7,-3,-2,-2,-2,-2,0
28.052259,11,9,7,-1,-3,-2,-1,-1,0
28.073011,-4,4,-1,2,1,-1,0,0,0
28.073030,5,-8,0,0,1,0,0,-1,0
28.074521,0,5,4,0,-1,-2,-2,-3,0
28.074579,8,-5,-7,-3,-2,-1,-1,0,0
28.087923,-53,-4,-5,-3,-2,-1,-2,-4,0
28.087949,-2,-3,-2,-5,-1,-1,0,-1,0
28.089689,0,3,-1,1,-1,0,1,-1,0
28.089710,22,3,1,1,1,-1,-1,1,0
28.110692,14,4,2,1,0,-2,-1,-1,0
28.112917,-17,-7,-2,-1,1,-1,-2,-1,0
28.112923,-8,-6,-4,-3,-1,-1,-2,-1,0
28.112924,-9,1,-1,1,1,1,-1,0,0
28.124771,20,2,2,-3,0,-1,0,1,0
28.124795,3,9,7,1,0,-2,0,-1,0
28.131804,5,0,-6,-1,0,-2,-1,1,0
28.131828,-22,-2,1,-3,0,-1,0,-1,0
28.148127,5,2,-3,-2,1,-2,-2,1,0
28.148148,0,-3,-1,0,-2,-2,-1,-1,0
28.149608,-2,20,4,-2,-1,-2,0,-1,0
28.149630,4,-17,-2,-1,-1,-2,-1,-1,0
28.170527,-2,-5,-3,0,-2,0,0,-1,0
28.170552,0,0,0,0,-2,0,-2,-1,0
28.172336,0,-3,2,0,-1,0,-1,-1,0
28.172348,2,-1,-7,-3,-3,-1,-1,1,0
28.184985,-7,4,-2,-1,-2,1,-1,0,0
28.185014,4,1,4,1,1,0,-1,1,0
28.191442,-7,-3,1,1,0,-2,-1,-3,0
28.191461,2,-1,-3,-3,0,-1,0,-1,0
28.207778,2,-14,-4,-3,-2,-2,-2,-1,0
28.207785,0,16,0,0,-3,0,-2,1,0
28.209179,6,6,-5,1,-2,-1,-1,0,0
28.209188,-16,-8,7,0,-1,-1,-1,-2,0
28.230500,3,1,0,-2,-1,-1,-2,-1,0
28.230521,-55,-13,-3,-3,-1,-1,-2,-3,0
28.232191,7,-4,0,0,-1,-1,0,-1,0
28.232198,3,2,-2,0,0,0,-1,0,0
28.245143,3,4,1,-2,-2,-1,0,-1,0
28.245168,10,12,-1,0,-2,0,-1,2,0
28.251958,-4,-18,2,-3,0,-1,-1,0,0
28.251985,1,6,2,1,-1,-1,-2,-1,0
28.271366,2,-2,-2,0,0,1,-1,-1,0
28.271410,4,-1,-5,-3,0,-2,-1,-1,0
28.274961,-3,-4,-3,-3,-1,-1,-1,-2,0
28.274990,7,2,-6,-1,0,1,-1,-1,0
28.290791,-2,-3,0,-4,-3,0,-2,-3,0
28.290879,10,-4,-5,1,-1,-3,-2,-2,0
28.291925,-10,-1,0,1,0,1,-1,1,0
28.291944,1,-6,2,0,-1,-1,-1,-3,0
28.304822,0,14,3,1,-2,0,0,1,0
28.304853,10,-6,-5,-5,0,-2,-1,-2,0
28.311624,4,-4,-5,-1,-1,-1,-2,-1,0
28.311646,-1,4,2,-1,-1,-2,-1,0,0
28.328108,-4,-7,-3,-4,-1,0,-1,0,0
28.328130,7,-2,1,-3,-1,0,0,1,0
28.329406,3,-2,1,1,-1,0,0,0,0
28.329438,-2,6,0,0,-1,-2,-1,-2,0
28.350860,-1,3,-5,-2,0,-1,0,1,0
28.350880,0,0,1,-3,-2,-2,0,-1,0
28.352498,7,11,-6,-2,-3,-1,-2,-1,0
28.352527,-15,-30,-1,-4,-2,0,-2,0,0
28.364877,-4,0,4,1,2,1,-1,-1,0
28.364887,1,-3,-2,-1,0,0,-1,-2,0
28.371461,-6,1,0,-1,1,-1,0,-1,0
28.371480,4,8,-1,0,-1,-1,0,-1,0
28.388358,12,0,-4,-2,-2,-3,-1,-1,0
28.388400,1,-2,4,4,-1,0,0,0,0
28.389635,-13,-5,-2,-1,-1,0,-1,-2,0
28.389697,4,-3,-2,-1,-3,-2,1,-1,0
28.410520,-6,-2,-5,-5,-2,-2,-3,-2,0
28.410544,0,5,5,3,0,-1,-1,-1,0
28.412564,-4,0,-2,-2,0,0,-1,0,0
28.412570,8,5,-1,2,0,-1,0,0,0
28.432829,17,-3,5,2,0,-1,-1,1,0
28.432849,-47,-17,-6,-5,-2,-2,-1,-3,0
28.434346,-1,-1,-1,2,1,-1,-1,0,0
28.434398,-9,4,-3,-5,-2,1,-2,-1,0
28.447844,11,-9,-2,1,-1,0,-1,-1,0
28.447865,8,-2,-1,0,-1,0,-2,-1,0
28.449247,-8,-1,3,0,0,-2,0,-3,0
28.449262,11,3,-6,-4,0,-1,-1,-1,0
28.470348,-5,-13,0,0,0,-1,0,-1,0
28.470368,-7,11,1,0,-2,-1,-1,-3,0
28.471990,-3,-5,-3,-4,0,1,0,-2,0
28.472006,9,7,0,-2,0,-2,0,-2,0
28.484125,-6,0,2,4,2,-1,-2,1,0
28.484149,7,-7,-1,-4,-2,-1,-1,-1,0
28.493348,3,-5,-3,2,-2,0,0,-1,0
28.493352,-2,1,0,0,1,-1,0,0,0
28.507855,-1,1,-2,0,1,-1,0,-1,0
28.507878,10,-6,-3,-1,-2,0,0,0,0
28.509339,-7,22,-1,-4,-4,-2,-3,-1,0
28.509412,-13,-26,-8,-5,-2,0,0,-1,0
28.530605,-4,4,0,2,-1,0,-1,-2,0
28.530627,7,2,-1,2,0,0,-1,1,0
28.532251,0,3,-1,-4,0,-1,-1,-2,0
28.532257,-6,0,4,3,-1,-1,-2,1,0
28.543997,3,-2,-6,-3,-2,1,-1,-1,0
28.544018,-6,-4,1,-4,-1,-2,-1,-2,0
28.554315,3,-6,-6,0,0,-1,0,1,0
28.554324,12,5,-4,-2,-1,-2,0,2,0
28.569769,-28,-4,1,1,-1,-1,-2,-5,0
28.569786,40,9,-1,0,-1,0,-1,1,0
28.569789,-47,-13,-1,-3,-3,-2,0,-3,0
28.569861,9,6,3,0,0,-1,-1,-1,0
28.590709,-23,-1,2,-1,0,-3,0,0,0
28.590728,3,3,-3,-1,-2,-2,-1,0,0
28.592250,13,-5,2,3,1,0,0,-1,0
28.592254,0,-3,-3,0,-2,-2,-1,-2,0
28.604023,13,11,8,-3,-1,1,-1,-1,0
28.604043,-24,-1,-5,-1,0,-1,-2,-2,0
28.614851,22,1,-1,-4,-1,-2,-1,1,0
28.614856,-24,5,6,3,0,-1,-2,-2,0
28.627980,6,-7,-4,-4,-1,-1,-1,-1,0
28.627997,-2,11,-6,-4,-1,0,-1,-1,0
28.631012,4,-10,4,1,-1,-1,-1,-1,0
28.631017,2,-1,2,3,1,-1,0,-1,0
28.651203,2,-3,-6,-4,0,-1,-1,-1,0
28.651235,-2,-8,-3,-2,-1,-1,-1,1,0
28.653845,-3,12,0,-4,0,-1,-1,-1,0
28.653850,-3,-5,2,0,0,-1,-2,-2,0
28.664054,2,-4,2,2,-1,-2,0,-1,0
28.664072,1,-3,-1,-1,-1,0,1,1,0
28.674213,2,-3,-2,-1,-2,0,0,0,0
28.674225,-1,4,-2,0,-2,0,0,-1,0
28.687959,0,6,2,-1,-1,-2,-1,-2,0
28.687984,-1,-10,1,1,1,-1,-1,-2,0
28.689431,0,-6,-7,-2,-1,-1,1,0,0
28.689465,1,4,-1,-2,1,-1,-2,0,0
28.710415,16,-1,-5,-2,-1,-1,-2,-1,0
28.710419,6,8,8,2,1,-1,0,2,0
28.711762,9,5,-3,-1,0,0,-1,-2,0
28.711853,-29,-17,-4,-4,-3,-2,-1,-1,0
28.732919,-8,-8,-5,-2,0,0,0,0,0
28.732941,30,11,3,0,-2,-2,-1,-2,0
28.734255,-5,-2,1,-1,-1,-2,-1,-1,0
28.734269,5,5,-3,-3,0,-1,-1,0,0
28.747914,1,-16,-2,2,-1,-1,-1,-1,0
28.747936,-3,4,-3,-1,-2,0,0,-1,0
28.749246,-4,4,5,3,0,-1,0,-1,0
28.749278,5,-3,-4,-5,-2,-1,-2,-2,0
28.770483,-7,4,-2,-2,-2,-2,0,1,0
28.771821,-6,-6,1,0,1,-1,-2,-1,0
28.771827,-5,-4,3,3,-2,0,-2,0,0
28.771879,3,3,-1,-2,-1,-1,-1,0,0
28.784004,1,1,-4,-6,-2,-3,-2,0,0
28.784027,-16,-5,-1,-2,-2,-1,0,-2,0
28.793790,7,1,-2,-2,0,-1,-2,0,0
28.793798,13,-1,-2,-1,-1,1,-1,0,0
28.807779,-10,10,6,2,0,2,-2,0,0
28.807795,-11,-9,-5,0,-2,0,-1,-3,0
28.809373,-6,10,-1,-2,-1,-1,-2,-2,0
28.809395,3,-9,1,3,-1,-1,-1,0,0
28.830486,-2,2,0,-4,-1,-2,0,0,0
28.830503,2,-3,-1,0,1,-1,-1,0,0
28.832558,0,-3,-1,0,-2,-2,-1,-2,0
28.832563,-1,5,-1,0,-1,-1,-2,-2,0
28.853027,-1,2,-2,-1,0,0,0,-2,0
28.853052,-2,-3,3,0,-2,0,-1,0,0
28.854300,-1,-5,-7,-3,-2,-2,-3,0,0
28.854323,-5,-5,0,-2,-3,-2,1,-1,0
28.868067,1,13,8,5,1,1,-2,-1,0
28.868082,-7,-9,-2,-2,-1,1,0,-1,0
28.869835,-4,-11,-4,-3,-3,-1,-1,0,0
28.869867,0,14,5,-3,0,-1,-2,-1,0
28.890751,17,-19,-3,0,0,-2,-1,0,0
28.890786,-13,18,3,-2,-2,-4,-3,-5,0
28.892609,-1,-3,-2,-2,0,2,0,0,0
28.892616,0,-1,-1,3,2,0,0,-2,0
28.913623,-5,13,-7,-1,-3,-1,-1,-2,0
28.913628,-1,-17,0,-1,-1,-2,-1,1,0
28.914202,0,-4,4,-2,0,-1,0,0,0
28.914209,1,1,-2,0,0,-1,-1,-2,0
28.928038,-4,1,-3,-1,-3,-1,-1,1,0
28.928044,1,0,-1,-1,0,0,-1,-3,0
28.929230,-4,1,-2,-3,-1,-1,0,-2,0
28.929271,2,-3,0,2,-1,0,0,0,0
28.950328,6,2,1,-1,-1,-2,-1,-1,0
28.950344,-16,-7,-7,-3,-3,-1,-2,-1,0
28.953309,5,-8,-1,2,-2,-1,-1,-1,0
28.953317,2,22,6,-2,-4,-2,-3,-2,0
28.972918,-10,-10,0,0,-1,0,0,-1,0
28.972936,32,3,-4,-2,-1,-1,1,1,0
28.974544,-63,2,7,0,1,1,-1,-2,0
28.974549,9,-14,-6,-4,-1,-1,-1,1,0
28.987522,-14,-3,-1,-3,-3,-1,-1,-1,0
28.987551,2,0,3,2,0,-1,0,2,0
28.994081,18,-4,4,0,-1,-2,0,1,0
28.994104,2,9,2,1,-1,0,-2,-1,0
29.010297,-6,6,0,-1,-1,-1,-1,0,0
29.010319,0,1,-3,-1,-1,0,0,-1,0
29.013210,11,6,-7,-4,-2,-3,0,0,0
29.013216,-11,-9,-2,1,1,0,0,1,0
29.032775,6,-8,-1,-1,-1,0,-2,0,0
29.032798,-7,0,-1,-1,-1,-2,-3,0,0
29.034299,19,5,4,2,-1,0,0,-1,0
29.034305,-24,-10,-7,-2,-1,-1,-1,-1,0
29.047118,4,3,-2,0,-1,-1,0,-1,0
29.047141,-3,-1,3,0,-1,-2,-2,-2,0
29.054613,-3,-10,-2,-1,-1,-1,-1,-2,0
29.054625,11,9,-1,-2,-3,-2,-1,-1,0
29.070906,-2,-1,2,-3,-1,0,-1,-2,0
29.070919,-9,-10,-13,-1,-1,-2,-1,0,0
29.071925,12,23,8,-1,-1,0,1,1,0
29.071998,-7,-19,-2,0,-1,0,-1,-2,0
29.092858,-5,-2,0,2,0,-2,-1,-1,0
29.092876,1,-2,-1,-2,-1,0,1,-2,0
29.094381,-2,-2,-5,0,-1,0,-2,-2,0
29.094400,3,0,-3,-1,-1,-1,-1,-1,0
29.107138,-1,0,-3,-4,-1,1,1,-1,0
29.107154,0,-1,1,3,0,0,-1,1,0
29.113927,0,10,-7,-5,-1,-3,-2,-2,0
29.113947,-2,-19,1,0,0,-1,-1,-1,0
29.130671,8,4,0,2,-2,-3,-1,0,0
29.130689,-5,7,0,-2,0,0,-1,-2,0
29.132377,-20,-9,-5,-2,-2,-1,0,-1,0
29.132384,30,10,0,-3,-3,-1,-3,-2,0
29.153095,-49,-14,-2,0,1,-1,0,-3,0
29.153191,7,-1,1,0,-1,-1,-1,1,0
29.154348,-8,-4,-5,-3,-1,0,-1,-1,0
29.154367,7,3,2,1,-1,-1,0,1,0
29.167507,15,-2,-6,0,-1,-1,-1,0,0
29.167530,-7,0,1,-3,-2,-2,0,-1,0
29.181404,2,-15,-4,0,0,-1,0,-1,0
29.181426,-5,14,-4,-4,-1,-3,-2,-1,0
29.190745,7,-11,0,-3,-1,-1,-1,0,0
29.192359,-9,-7,1,0,-2,-1,-2,0,0
29.192364,13,0,2,1,-1,0,-1,0,0
29.192366,-2,-1,-5,-2,-1,-2,-1,0,0
29.212752,-4,7,2,-3,-1,0,0,-1,0
29.212768,-9,-3,-4,-1,0,-2,-2,0,0
29.214261,3,-1,0,1,-2,0,-1,-2,0
29.214277,-13,0,2,1,1,0,0,-1,0
29.227097,16,-5,-1,-2,0,-1,-3,-2,0
29.227105,4,0,0,-1,0,0,0,0,0
29.233867,1,7,-7,-1,-1,0,-1,0,0
29.233898,-6,-10,9,0,0,0,0,0,0
29.250603,2,-10,-13,-3,-1,-1,-1,-2,0
29.250624,2,4,4,1,-1,0,-1,-3,0
29.251926,-1,-4,1,0,1,-1,-3,-1,0
29.251947,-6,2,-2,-2,-2,-2,-1,-1,0
29.273071,4,3,3,-2,-2,-2,1,0,0
29.273076,3,-4,-3,0,0,-1,-1,1,0
29.274344,-7,6,-4,-2,-2,-3,-1,0,0
29.274372,-4,-10,6,0,0,1,0,-2,0
29.287226,-4,4,2,-1,0,-1,-3,0,0
29.287245,0,-4,-3,-1,-1,-1,-1,-2,0
29.294203,1,-2,1,0,-1,0,1,-2,0
29.294224,6,2,-9,-3,-3,-2,1,0,0
29.310715,-42,3,3,-2,-1,1,-1,-2,0
29.310840,44,-13,0,3,0,-1,1,2,0
29.313050,-3,14,2,-3,-1,-1,-1,-2,0
29.313055,2,-3,-7,1,0,1,-1,1,0
29.332770,3,5,3,1,-2,-2,-1,-2,0
29.332793,-8,-1,-2,-3,-1,-2,-1,0,0
29.334257,5,-20,-6,0,-1,-1,-1,-1,0
29.334265,-7,15,0,-1,0,1,-1,-2,0
29.346450,14,2,0,1,-1,-1,0,3,0
29.346473,-17,4,0,-2,-3,1,-2,-1,0
29.356608,13,-8,-1,1,0,-1,-1,-1,0
29.356620,-8,4,-1,-1,-1,-1,-2,-2,0
29.370414,-10,4,-4,0,0,0,0,-2,0
29.370438,0,-9,-2,-1,-1,-2,-1,-2,0
29.372124,-7,-4,-4,0,0,1,1,1,0
29.372147,5,1,5,-1,1,-3,-2,-2,0
29.392781,-6,2,-4,-3,-1,-1,-1,-1,0
29.392797,-6,2,3,-3,-1,-2,-2,-1,0
29.394535,-2,1,3,0,-1,0,-3,-1,0
29.394543,-2,-6,-3,-1,-1,-2,0,1,0
29.406600,17,-3,-6,-1,-2,0,-2,0,0
29.406616,-12,9,-2,-3,-2,1,1,-3,0
29.415296,-2,-27,-4,0,0,0,-1,-2,0
29.415309,-2,13,-1,-1,-3,1,-1,-3,0
29.431543,0,-13,-2,-1,0,0,-1,-3,0
29.431550,-4,12,-1,1,0,0,-1,0,0
29.432063,10,14,7,1,0,0,-1,-1,0
29.432076,-16,-12,-1,-2,-1,1,-2,-1,0
29.462307,6,-4,1,0,-1,-2,-1,0,0
29.462312,1,2,-4,-3,0,0,0,-1,0
29.462314,-4,-3,-4,-3,-2,-1,1,0,0
29.462316,6,0,1,0,-1,-2,-2,-2,0
29.466455,-10,-1,2,-2,-3,-2,0,0,0
29.466543,1,8,-4,-1,0,0,-1,-1,0
29.476445,-5,-6,6,0,0,-2,0,-1,0
29.476450,0,-13,-10,-2,-2,-1,-1,0,0
29.490631,5,-1,-1,1,2,1,-1,-2,0
29.490648,-1,0,1,0,-2,-1,1,-2,0
29.492994,3,4,0,-2,-2,-2,-2,-1,0
29.493000,-10,2,-2,-2,-2,-3,-2,0,0
29.512833,7,1,-3,1,-1,-1,-2,-2,0
29.512885,-6,-6,-3,-2,-1,-1,-2,-1,0
29.514311,4,6,3,3,0,1,0,0,0
29.514326,2,-3,4,-3,1,0,0,0,0
29.526513,-2,1,-4,0,-2,-1,-2,0,0
29.526564,3,-5,7,1,0,-3,-3,0,0
29.537816,-6,-1,-5,0,-1,-2,-1,-1,0
29.537822,1,11,-8,-4,-2,-1,0,-1,0
29.550736,-1,-14,1,-2,0,-1,0,0,0
29.550781,2,-4,-3,1,-2,0,-1,-2,0
29.553911,-14,-1,-1,3,0,-2,-1,-1,0
29.553923,0,-4,1,-1,-1,-1,-1,0,0
29.572967,5,20,-2,-3,-1,-1,-1,-3,0
29.572985,-1,-18,-3,-2,0,-2,0,-1,0
29.574595,-2,-4,0,-2,0,-1,0,0,0
29.574682,7,13,0,0,0,-2,0,2,0
29.587327,-13,1,4,1,-2,1,-1,-3,0
29.587337,-3,4,-1,-3,0,-2,-3,0,0
29.597342,0,-2,-5,-2,0,1,-1,2,0
29.597353,3,-13,1,-1,-1,0,-1,0,0
29.610392,-10,0,1,2,1,-2,0,-3,0
29.610420,-5,-2,-5,1,-1,-2,-2,3,0
29.612680,-1,0,2,-1,-2,0,-1,-7,0
29.612690,4,-6,-6,-4,-1,-1,0,1,0
29.632688,3,5,6,-1,0,0,-1,-1,0
29.632694,0,-2,0,-3,-2,0,0,-1,0
29.634148,-3,2,-4,0,-1,-2,0,2,0
29.634158,-2,0,2,1,1,-1,-1,-1,0
29.648531,3,-6,-4,-1,0,-2,-2,0,0
29.648540,-1,-5,-7,-2,-1,-1,-1,-3,0
