timestamp,emg1,emg2,emg3,emg4,emg5,emg6,emg7,emg8,label
2.016554,-10,-20,4,1,2,-4,-90,-36,1
2.016726,-8,35,-6,-3,-7,-14,47,13,1
2.016730,9,-19,-22,-7,-2,11,-42,-27,1
2.016733,-6,-80,7,-4,-8,-19,23,-9,1
2.038609,1,39,16,2,1,6,1,16,1
2.038634,1,-10,-6,-1,1,-3,-10,-9,1
2.039950,1,7,-6,1,1,-13,-27,7,1
2.039964,1,42,-16,-2,-4,15,4,-4,1
2.052812,1,-12,-3,-2,-1,-4,9,1,1
2.052836,-6,-20,-3,-1,-3,-2,-30,-1,1
2.053503,0,-32,-21,-1,0,-9,5,7,1
2.053517,-7,65,28,-1,3,7,32,0,1
2.075922,0,-22,0,-4,-3,4,1,4,1
2.075946,-1,-30,5,1,2,10,7,5,1
2.078027,-13,5,-14,-1,1,2,8,6,1
2.078041,10,34,-35,4,6,-17,-22,-19,1
2.106701,-3,-96,58,3,-6,-12,73,19,1
2.106742,-6,23,9,-7,-4,27,-16,-19,1
2.109546,6,4,4,-1,-4,-4,20,-5,1
2.109556,-4,-16,4,0,-6,3,-23,2,1
2.112868,10,31,-32,-1,4,-11,-7,15,1
2.112896,-12,-21,-12,-1,3,-6,-29,-15,1
2.113416,-1,-8,23,2,-7,1,30,6,1
2.113494,0,-7,0,-3,0,-1,-58,-7,1
2.136136,-1,11,-16,-1,6,5,7,-8,1
2.136159,-1,9,-15,-3,0,-18,0,28,1
2.137737,-2,-12,18,-5,-22,-14,48,-15,1
2.137742,-6,-22,5,0,-1,-8,-10,0,1
2.158303,7,0,-6,-2,-2,6,-12,-3,1
2.158317,-8,6,-7,1,7,2,0,-5,1
2.159111,-1,14,7,7,15,-4,-24,9,1
2.159132,12,43,17,-3,-16,5,61,15,1
2.174014,-13,-1,-23,-6,-3,0,-20,-6,1
2.174035,4,5,8,0,-3,2,-8,-9,1
2.174042,-7,-6,-1,0,6,1,-7,-7,1
2.174048,-8,30,4,-5,-5,-5,-49,-9,1
2.195936,-2,14,-5,-3,1,8,6,14,1
2.195953,10,9,7,3,1,-11,-3,1,1
2.197229,-2,18,-9,-3,-4,7,-12,14,1
2.197235,9,-45,8,2,7,4,5,-14,1
2.218566,-13,-27,-9,-1,-11,-6,-2,-3,1
2.218589,4,39,2,-2,3,-4,-41,-9,1
2.220520,-5,-53,-5,1,1,14,53,14,1
2.220531,-7,33,4,-1,3,29,5,1,1
2.241267,5,-2,1,1,-2,-46,-40,3,1
2.241301,-3,-18,-3,2,-2,9,14,-3,1
2.242743,10,19,-8,1,-1,-4,-2,-19,1
2.242749,0,42,-31,-3,8,-14,-8,10,1
2.256102,-10,17,48,-2,-20,39,53,11,1
2.256134,0,-45,0,2,4,-8,-26,-9,1
2.258815,2,7,-2,-2,-2,-2,-11,-7,1
2.258824,1,-26,-11,1,4,-6,6,0,1
2.278488,10,21,-16,4,12,-4,-36,-6,1
2.278512,-6,29,-2,-5,-9,-5,31,13,1
2.280058,-8,-57,3,-2,0,2,-26,-7,1
2.280067,1,-29,2,1,-4,-8,-2,3,1
2.292018,-4,-3,-17,-1,6,-3,-45,2,1
2.292042,0,18,25,-2,-10,4,27,-11,1
2.300366,3,13,-9,-2,1,-1,-6,-6,1
2.300390,-11,-17,6,-3,1,6,15,-9,1
2.316015,7,35,-34,-7,-6,-13,-38,3,1
2.316039,-4,-81,29,6,7,-2,5,1,1
2.316795,-6,17,8,-2,-2,5,-22,4,1
2.316896,16,-17,2,0,-6,-11,11,10,1
2.338559,-19,3,-11,-3,5,11,37,-17,1
2.338582,5,8,-18,-1,-3,-1,3,1,1
2.341453,-2,16,-3,-3,-5,-9,-35,1,1
2.341461,-1,14,2,0,4,13,46,6,1
2.352221,2,-61,8,-5,-17,-7,21,-10,1
2.352251,-4,-1,-12,-3,-2,-3,-9,13,1
2.360606,6,14,11,2,1,-2,-8,1,1
2.362625,-3,-3,-8,1,-5,1,-4,-6,1
2.376580,6,18,2,2,7,-2,-4,-4,1
2.376598,-13,-12,-8,-5,-3,-5,11,2,1
2.377184,3,14,-21,-1,-4,-1,-10,-1,1
2.377206,-4,-26,27,1,3,-5,10,2,1
2.398614,6,-44,6,-1,-1,8,11,-9,1
2.398638,-5,4,9,4,3,0,-39,7,1
2.399611,-3,12,-9,-1,1,8,24,15,1
2.399617,4,-8,-14,-1,-6,-24,-25,-35,1
2.412084,4,7,1,1,1,9,3,7,1
2.412102,-2,24,-4,0,-2,-15,-27,-7,1
2.421035,-1,-38,5,-3,0,13,72,18,1
2.421042,-1,-49,6,0,-4,-3,-39,-7,1
2.438143,-10,13,-3,-3,0,2,0,0,1
2.438148,5,13,-13,-4,-7,-2,17,-9,1
2.438151,2,45,-1,3,6,-5,0,2,1
2.438154,1,-25,2,1,0,6,16,9,1
2.458411,-6,27,15,0,4,4,-17,-12,1
2.458437,4,-8,-8,-1,4,-5,47,1,1
2.459164,3,2,6,-1,-10,-1,-29,-5,1
2.459182,4,20,-11,-1,6,-4,-20,-4,1
2.472257,-5,3,-4,1,1,-1,-15,24,1
2.472279,3,-18,-3,-2,-1,4,18,-11,1
2.480287,-2,2,-1,-1,-1,-12,-32,-11,1
2.480310,-6,-9,-4,-3,-7,7,18,2,1
2.495290,-5,2,17,1,-2,-9,3,1,1
2.495311,7,-18,-14,-1,0,-3,-8,10,1
2.496874,7,-62,8,1,-2,-4,14,-6,1
2.496880,-15,-5,23,-1,0,1,-6,17,1
2.518406,8,17,-16,-2,-3,-5,33,-10,1
2.518666,-5,-2,4,1,0,5,-54,-16,1
2.519152,-2,5,-18,-2,3,-1,40,-5,1
2.519190,5,8,-11,-2,-3,-1,-10,11,1
2.531953,-6,10,5,-1,1,-2,6,6,1
2.531966,12,21,-8,-1,3,-9,-11,-23,1
2.540789,-8,2,10,2,1,18,58,30,1
2.543102,16,-9,-3,0,-10,-7,-41,-20,1
2.555383,-19,5,-10,0,1,-4,17,14,1
2.555405,2,0,-2,-4,-6,3,-5,-4,1
2.558179,-16,4,3,-3,-5,-5,0,-5,1
2.558210,-5,-20,12,2,20,10,6,9,1
2.579972,9,-31,-21,1,-2,15,9,-6,1
2.579984,2,46,2,0,0,-2,2,3,1
2.579987,-1,-104,32,1,-4,-3,-19,-12,1
2.579990,-5,29,-15,-3,-7,2,15,6,1
2.600990,2,16,-1,0,3,-15,-34,-11,1
2.602903,-10,-16,-6,-1,1,2,-13,11,1
2.602908,6,40,-15,-3,-2,-5,-6,-6,1
2.602911,-6,6,1,-1,-4,-3,35,11,1
2.615149,11,-14,-2,-1,8,11,-40,-4,1
2.615175,-17,-9,10,-1,-10,1,23,-13,1
2.616054,0,26,-1,-2,2,-4,-16,-1,1
2.616070,-4,-3,-8,-2,-3,-5,-17,-10,1
2.638512,5,-2,-1,1,-1,-5,44,13,1
2.638529,7,7,-15,0,3,1,-38,4,1
2.639362,-9,47,23,4,7,-6,-23,-6,1
2.639367,-13,-32,8,-4,-3,11,-3,-2,1
2.661273,4,2,-9,-9,-25,-16,14,8,1
2.661299,1,-14,5,1,6,20,-12,-14,1
2.661708,4,-8,-35,-5,1,-7,55,7,1
2.661727,4,64,-2,0,-6,-11,-43,15,1
2.675104,-1,-1,12,4,8,4,8,-4,1
2.675114,-12,-19,-10,-4,-9,-6,11,-6,1
2.675957,7,7,-7,-3,0,4,-55,-8,1
2.675980,-7,21,18,0,-1,0,27,5,1
2.698951,3,26,-8,-2,-1,-1,-23,-10,1
2.698969,5,-10,15,4,4,-3,16,19,1
2.700619,2,-14,-19,-3,-1,-2,-1,-2,1
2.700625,-3,42,-1,-3,0,-4,-17,-17,1
2.721049,-13,-71,9,0,-3,-4,0,5,1
2.721069,2,8,-1,0,3,2,2,-9,1
2.721626,0,-15,-5,-6,-6,-4,5,-5,1
2.721696,-6,-4,-17,-1,-5,-1,6,0,1
2.736030,4,12,-2,1,7,0,-22,-10,1
2.736045,3,-18,-4,-2,-3,-7,18,8,1
2.736051,-9,8,4,6,6,-2,-82,-6,1
2.736057,8,-11,-5,-6,-9,15,84,7,1
2.758388,-4,12,6,-5,-9,-11,-8,-19,1
2.758408,-5,-11,2,1,2,-1,3,15,1
2.760766,0,19,-2,-1,-9,-3,-30,-8,1
2.760777,1,-6,-5,3,13,2,-31,0,1
2.781934,7,-13,6,4,3,22,66,20,1
2.781949,1,22,3,-3,-5,-3,13,1,1
2.781956,-5,-20,4,-1,0,-5,15,1,1
2.781962,4,75,-31,-3,-3,-21,2,2,1
2.794789,-8,-74,30,4,-3,15,-31,-20,1
2.794816,2,-13,-3,0,3,-6,-10,14,1
2.804322,2,29,5,2,-3,8,20,-19,1
2.804328,-18,-30,-6,-4,0,-4,5,12,1
2.818383,6,46,-18,4,5,-8,5,-11,1
2.818410,-3,-2,5,-5,-4,11,37,6,1
2.819982,-1,-18,-2,-3,-1,1,14,25,1
2.819997,7,41,-13,-3,-4,-6,-33,-35,1
2.841298,-5,-25,16,3,10,15,4,11,1
2.841333,-1,-4,4,-1,-7,-12,34,-14,1
2.843945,1,13,-5,-1,2,1,14,9,1
2.843960,-1,-15,-1,-3,-5,-5,-38,-7,1
2.855091,-1,26,-12,-2,-3,-8,-17,4,1
2.856191,-3,-6,2,-1,2,-3,-33,-5,1
2.863769,-2,-14,0,-5,-8,1,19,-1,1
2.863775,0,-30,11,4,4,4,6,-4,1
2.878457,-2,-5,-14,-6,0,-6,-9,5,1
2.878483,-2,4,0,2,-2,-2,32,2,1
2.879884,-1,16,-10,-1,5,-1,-37,-8,1
2.879904,6,-44,18,1,4,0,-29,-4,1
2.900884,-4,-2,-2,-7,-10,-2,16,-6,1
2.900909,-6,1,-15,-1,3,-2,-8,9,1
2.902469,9,52,7,0,-2,-3,-3,-12,1
2.902480,-5,-42,-7,-1,0,-1,13,-5,1
2.914650,6,-2,-8,-1,-2,-2,-7,9,1
2.914666,-3,45,8,-1,4,6,-6,5,1
2.924964,-2,-51,-5,0,0,-12,3,-9,1
2.924972,2,-17,-2,-1,7,-4,-38,-3,1
2.938320,11,33,16,0,-20,-8,44,9,1
2.938339,-6,-21,6,1,1,6,-20,10,1
2.939770,-3,4,-3,-1,0,-4,0,-12,1
2.939786,-3,12,6,2,18,6,-17,-9,1
2.961086,-5,-18,-8,-3,-15,3,12,2,1
2.961114,9,10,-7,-2,-4,-7,-20,-11,1
2.963187,-4,-1,7,0,1,4,-4,5,1
2.963195,3,-11,-3,1,-5,-13,14,15,1
2.974561,-1,19,-7,2,16,13,15,-15,1
2.974579,-8,0,3,0,1,2,0,6,1
2.983364,1,-5,-9,-2,-5,-3,0,-8,1
2.983379,-1,-13,12,1,-5,0,1,2,1
2.998369,-2,18,-21,-4,4,0,4,-2,1
2.998414,6,11,-17,-2,0,-6,-4,-6,1
2.999882,-9,-46,33,1,2,1,0,3,1
2.999897,-6,14,-6,0,-8,-5,7,8,1
3.020959,-6,-5,-6,-6,-9,-6,-51,-22,1
3.021104,6,-5,5,-1,8,-4,-11,3,1
3.022288,0,17,-11,-1,0,-3,13,9,1
3.022324,2,2,-17,-4,-6,14,45,2,1
3.034558,-7,2,18,-1,-5,-23,-49,-7,1
3.034582,-1,-8,-2,-1,-1,3,-4,13,1
3.044365,-2,5,-7,0,-1,-13,-9,-8,1
3.044383,-5,6,11,1,-3,12,4,-11,1
3.060113,1,-28,-17,-2,4,-5,-55,-18,1
3.060125,-12,31,2,0,-3,5,-6,-4,1
3.060129,-7,-7,-4,1,5,7,64,23,1
3.060131,-1,-34,-8,-5,-9,-7,-11,-1,1
3.080889,9,-4,4,1,1,-3,-8,-2,1
3.080905,4,19,13,1,-1,0,-3,3,1
3.082825,2,-47,-6,2,3,0,-14,-7,1
3.082831,-3,3,1,-2,-1,4,-16,-6,1
3.094700,2,33,-3,-2,2,-7,8,5,1
3.094742,-10,-43,-4,-4,-3,6,43,16,1
3.104455,2,22,0,1,2,7,-37,-14,1
3.104461,4,-3,-18,-1,8,-3,40,22,1
3.120856,1,-27,29,-2,-10,3,-63,-19,1
3.120862,5,-23,-10,-1,-11,-5,74,-12,1
3.120866,-13,33,2,-3,8,5,-31,-14,1
3.120869,2,-8,8,-1,-2,-1,9,5,1
3.140869,6,8,-8,0,8,-2,21,14,1
3.140897,-21,7,-12,-2,-3,-2,-14,-8,1
3.143225,5,68,-8,-2,-2,-4,-7,6,1
3.143240,-14,-48,15,3,4,2,1,0,1
3.154974,-8,6,17,-3,-10,3,33,-3,1
3.154997,14,-30,-3,-2,1,-3,-36,-14,1
3.169883,-1,24,-4,-3,-6,-7,-9,0,1
3.169906,1,-20,-22,-2,-3,-9,14,-2,1
3.178565,-9,29,10,-5,7,11,-87,-4,1
3.178587,-3,-16,4,-2,-9,-9,23,-20,1
3.180176,6,-19,-5,-3,-2,5,-4,12,1
3.180183,1,23,7,0,-3,-4,7,-8,1
3.201177,2,-19,-10,0,5,-5,39,11,1
3.202136,7,23,1,2,2,-3,-34,0,1
3.202370,-7,14,2,-4,-10,-9,-9,-3,1
3.202378,-5,-45,-18,-4,-4,0,-15,-5,1
3.214507,-3,46,20,1,-2,6,43,11,1
3.214525,5,13,-17,2,10,2,-38,1,1
3.225817,-8,-51,32,3,-1,18,99,20,1
3.225828,-2,11,-4,-4,-7,-14,-57,-14,1
3.238557,-3,-12,-17,-1,5,2,16,7,1
3.238572,-4,12,1,0,0,7,-24,-16,1
3.240932,5,-17,-8,-2,-9,-14,-6,5,1
3.240939,0,26,8,0,25,-17,-47,0,1
3.261399,-9,-31,-13,-5,-21,23,51,-8,1
3.261424,5,1,0,2,2,-2,-9,-5,1
3.262510,0,5,-13,-2,1,-1,-10,-4,1
3.262538,-3,21,17,0,-3,11,-13,5,1
3.276052,-2,-25,-20,2,6,-1,-25,-1,1
3.276059,0,8,13,-1,-16,-31,-23,7,1
3.284967,-1,-56,-20,-1,9,17,45,-5,1
3.284973,4,23,14,-4,-19,-21,2,-2,1
3.298590,-6,-49,-10,-1,6,-1,8,7,1
3.298627,-2,-35,11,-2,-9,-1,1,-2,1
3.300417,8,-13,-2,1,2,1,-34,-4,1
3.300423,2,0,-4,1,4,11,15,4,1
3.321057,-8,-1,-6,1,-2,-16,-7,0,1
3.321074,6,2,-8,-2,7,13,25,6,1
3.322625,5,34,-5,-5,-3,-3,8,-4,1
3.322630,1,-83,15,2,0,5,20,2,1
3.334495,1,83,12,2,-1,2,-16,-11,1
3.334511,-17,3,-3,1,7,11,68,8,1
3.344448,-3,-48,3,-1,-9,-4,-48,-18,1
3.344455,-1,20,-8,-1,3,-3,-8,-16,1
3.358483,13,-19,-17,2,17,4,-1,14,1
3.358510,-2,-44,4,-3,-8,-12,2,-2,1
3.360154,-4,24,4,-2,-9,1,-11,10,1
3.360190,4,23,-7,-2,-7,8,19,-8,1
3.381003,-6,26,-1,-1,0,-11,-2,-7,1
3.381018,4,-3,-7,-2,8,11,-10,3,1
3.382518,-5,17,5,1,2,14,-11,-2,1
3.382529,-4,-2,10,0,-8,-38,-52,-7,1
3.394762,4,28,-10,-4,1,8,102,9,1
3.394794,6,55,-1,-2,-4,-6,-17,12,1
3.404910,-7,-85,17,1,-1,5,-24,-11,1
3.404917,-5,39,1,-2,1,16,23,12,1
3.418413,0,-30,1,0,-1,-15,-22,-2,1
3.418448,-8,10,-7,-2,3,1,-7,-17,1
3.419781,5,11,-7,7,19,-9,-49,8,1
3.419795,10,3,4,-10,-26,-2,91,29,1
3.440032,-12,-20,15,-5,-16,8,-35,-33,1
3.440059,2,-24,-8,-4,-4,-4,-16,-21,1
3.449280,-3,34,3,2,4,2,6,0,1
3.449286,-4,-10,-8,1,7,-5,-26,1,1
3.454683,7,14,-2,1,-4,-8,-4,13,1
3.454708,-2,-9,5,1,16,9,2,0,1
3.464212,1,81,-7,-4,-4,-8,1,-2,1
3.464224,-5,-22,15,3,2,3,-2,-4,1
3.480656,3,-58,-7,-1,-3,1,-6,-3,1
3.480666,9,31,11,2,3,5,-5,4,1
3.480670,-3,19,-6,-5,-7,-13,10,-3,1
3.480673,-7,8,-10,-2,2,13,0,2,1
3.500885,4,9,1,0,1,-2,-16,-2,1
3.500901,-2,-40,-8,0,-6,-10,-6,-1,1
3.502463,3,18,-14,-2,-2,-5,-1,1,1
3.502486,-2,52,9,7,6,11,-19,-18,1
3.514562,-12,-28,11,-5,-1,-10,36,26,1
3.514729,8,13,-5,-1,-6,5,-36,-8,1
3.525276,-9,-14,-3,-7,-13,-13,8,-15,1
3.525283,4,-4,-10,1,19,16,-3,-2,1
3.538669,0,14,-6,5,5,-23,7,0,1
3.538693,-3,13,-3,-1,-10,-3,1,6,1
3.540676,1,-13,21,5,9,5,2,3,1
3.540691,0,-31,-15,-4,-10,0,4,-8,1
3.560928,2,41,20,1,2,-4,-18,9,1
3.560953,-5,-16,-2,0,1,0,23,-8,1
3.562599,11,-3,-3,1,-2,-2,61,19,1
3.562635,-16,-1,0,-3,-3,4,-25,-21,1
3.583328,3,15,-15,-2,-3,3,-2,-1,1
3.583355,3,3,1,0,-4,-5,-10,-4,1
3.584794,-5,-47,4,1,0,-1,-34,-13,1
3.584809,5,44,-3,0,-1,-1,8,25,1
3.598546,-7,-39,9,2,3,9,-12,-10,1
3.598564,0,8,-4,-2,-4,-23,-6,-13,1
3.599910,-10,-7,-4,0,1,5,21,-2,1
3.599917,9,-31,-13,-4,-5,-7,-27,-9,1
3.620797,-7,66,3,-5,-9,-11,-22,-8,1
3.620809,-5,-57,13,2,19,56,-3,11,1
3.622266,3,-66,-5,-6,-21,-33,44,1,1
3.622284,3,38,11,2,-4,-7,-18,0,1
3.643601,3,1,-17,-4,-4,-5,-27,-6,1
3.643633,-4,-5,-2,0,-2,0,12,-2,1
3.645215,0,43,-5,1,2,-19,-25,3,1
3.645236,-6,-55,20,0,6,30,29,-8,1
3.658439,1,-21,-16,-4,-9,-9,-20,5,1
3.658459,-3,35,2,-3,-3,-6,4,3,1
3.660107,-3,-63,-13,0,10,14,-13,-2,1
3.660128,-4,45,17,0,-16,-18,-27,-6,1
3.681015,1,-13,-11,0,7,7,16,17,1
3.681031,-2,32,0,-4,-5,-3,-19,-22,1
3.682437,1,-3,11,1,-1,-9,1,-13,1
3.682444,0,-61,-15,-3,2,1,11,7,1
3.703487,-2,44,6,2,5,3,-24,-16,1
3.703512,-6,-66,-11,-6,-6,-5,32,20,1
3.704804,0,16,-6,-1,1,12,-7,-2,1
3.704816,-4,16,-8,-2,4,1,10,-3,1
3.717749,3,-19,11,5,2,-9,-22,-6,1
3.717797,6,-17,3,2,1,1,28,9,1
3.724997,-6,48,-4,-5,-7,11,25,14,1
3.725064,4,1,-10,-3,-3,-26,-75,-29,1
3.741326,1,-28,-7,1,15,-5,57,10,1
3.741361,-9,20,14,0,-11,26,-12,15,1
3.743000,3,-47,10,2,1,12,-30,-2,1
3.743008,-3,13,-7,0,-1,-7,31,-14,1
3.764027,5,-17,-12,-1,-1,-2,-10,-5,1
3.764043,0,26,1,0,7,-14,-5,-10,1
3.765551,-3,-16,1,1,-1,26,-30,4,1
3.765565,3,-4,-5,-2,-12,-25,42,20,1
3.778022,-6,-2,-4,-3,-1,4,-16,-7,1
3.778036,-2,-18,-3,0,-7,-6,-12,-7,1
3.784696,8,110,-2,-1,2,-5,-5,8,1
3.786437,-5,-55,-14,-2,7,9,10,-5,1
3.800893,-8,20,17,-1,-5,9,5,-13,1
3.800910,-4,12,0,0,2,-6,7,4,1
3.802394,-9,65,-7,-1,0,-6,-22,-6,1
3.802407,4,-28,-4,-1,-1,-8,3,-5,1
3.823699,8,-11,-9,-2,-5,-11,-2,1,1
3.823712,-12,0,-4,0,6,8,-11,-11,1
3.824949,-3,-9,0,-5,-3,-7,0,-3,1
3.824973,-4,23,8,-1,3,17,6,4,1
3.839629,-3,-14,-3,-1,-3,6,-2,-6,1
3.839640,11,37,-6,2,-2,-17,-14,-4,1
3.844635,-9,-27,-1,-3,4,-8,-11,1,1
3.844655,4,39,1,0,-12,0,-3,8,1
3.861062,-2,19,8,2,-2,2,5,-1,1
3.861091,0,-15,-9,-4,-4,-6,23,16,1
3.862618,4,-37,-3,-2,-1,-2,-3,-5,1
3.862624,1,35,4,-1,7,3,5,1,1
3.883441,1,30,4,0,3,5,-23,-8,1
3.883461,0,39,-3,0,-2,-8,-9,8,1
3.884941,-1,-26,10,1,-3,0,1,-6,1
3.884957,-3,4,0,2,4,11,-5,15,1
3.897741,-7,-26,-5,-5,-1,9,15,-1,1
3.897761,3,-22,-2,0,-1,-29,-13,-18,1
3.905002,3,46,8,-3,-8,-4,2,4,1
3.905026,-2,-51,-6,1,3,-2,-17,-10,1
3.921331,-10,17,-1,1,-5,-5,28,9,1
3.921362,5,-52,-15,-1,4,9,-15,-3,1
3.923113,1,-10,12,-1,0,11,32,7,1
3.923119,-3,-4,0,0,-11,-12,10,9,1
3.943681,9,2,3,-2,-1,-1,-15,-10,1
3.943701,-5,25,-16,-5,-6,-10,-16,-11,1
3.944983,0,-39,4,4,6,-10,53,12,1
3.945008,-2,21,5,1,3,9,-22,-10,1
3.958287,10,-55,0,2,3,2,26,1,1
3.958313,-9,19,-3,-8,-8,3,19,12,1
3.964568,2,3,-3,1,0,1,-6,-5,1
3.964587,-1,7,0,-2,-3,-8,-1,11,1
3.980879,-4,12,-6,0,-4,-12,4,-9,1
3.980896,1,-69,-9,2,9,8,-8,11,1
3.982317,-2,40,26,0,-8,12,-1,-8,1
3.982332,-8,-13,0,-2,-1,-6,2,-10,1
4.003559,0,-18,-8,-6,-4,-1,-20,14,1
4.003577,5,13,5,0,-1,-1,4,-11,1
4.004883,3,-20,-27,0,3,-11,-23,-2,1
4.004888,-8,11,4,1,3,-6,-20,1,1
4.017871,-5,10,8,-5,-10,27,-1,3,1
4.017945,-3,1,10,3,1,-18,17,7,1
4.026129,-2,-1,-8,0,-4,0,-19,-27,1
4.026141,9,-1,-6,-6,-6,-4,5,-3,1
4.041163,-10,4,-2,-1,-1,-1,-28,16,1
4.041173,1,8,13,1,7,5,-1,-10,1
4.049400,5,30,-13,-3,-5,-8,-2,13,1
4.049411,-3,21,-11,-4,0,7,-2,-8,1
4.063364,-1,-27,-14,-2,-6,-2,9,1,1
4.063381,-2,13,18,0,-5,5,-13,-1,1
4.064829,-2,4,-13,-2,3,-6,1,-7,1
4.064842,-1,14,-6,1,2,0,-52,4,1
4.077291,0,-45,2,-1,4,-10,94,7,1
4.077318,14,-33,2,0,-1,1,-21,-15,1
4.087659,-15,-2,4,-2,-1,5,2,16,1
4.087665,-4,-15,-8,-5,-3,-4,5,-23,1
4.100987,-2,22,1,0,-6,-9,-29,-10,1
4.101003,-1,7,-4,0,-1,-3,-7,4,1
4.103532,3,26,4,-1,0,7,-2,3,1
4.103537,-2,-54,2,-2,-1,10,15,22,1
4.123977,-1,3,10,2,8,-1,-1,-10,1
4.124012,1,61,-6,-5,1,23,2,-5,1
4.126553,-3,-10,-1,-2,-7,-29,28,2,1
4.126571,3,-19,2,1,-8,-1,5,-11,1
4.136844,0,-18,-2,2,1,-6,-12,5,1
4.136857,-6,13,-12,-4,7,-3,-13,-1,1
4.146477,-5,-16,26,3,-1,17,33,3,1
4.146483,0,10,4,1,1,-2,-24,-12,1
4.161080,2,6,1,0,0,-2,-1,-7,1
4.162650,13,37,-13,-3,-2,-1,25,9,1
4.162658,-7,-72,11,-3,1,7,-21,11,1
4.162662,-5,13,6,-1,-3,-15,23,-16,1
4.183361,-3,-4,-2,-1,1,14,-26,-19,1
4.183380,-4,-22,-7,-2,-5,-9,-1,6,1
4.184925,4,46,-4,-2,-1,-6,-15,-1,1
4.184942,6,23,-3,0,-1,7,26,22,1
4.197037,-10,4,-4,-1,7,-4,9,-16,1
4.197058,0,7,-1,0,-9,-12,-18,-5,1
4.206171,1,-59,-5,0,-1,8,-17,-1,1
4.206179,-2,-7,8,0,10,1,1,6,1
4.220787,6,22,-12,-3,-4,7,54,11,1
4.220804,-6,-6,4,-2,-10,-23,-47,-14,1
4.222264,5,5,-10,3,7,-4,-23,-15,1
4.222277,-1,-5,0,-1,-5,-8,-9,3,1
4.243580,0,-35,13,-4,0,16,11,10,1
4.243614,-4,-48,-8,-2,1,2,18,9,1
4.244978,-9,26,7,2,1,4,10,-9,1
4.245002,3,28,7,0,4,-3,-12,-5,1
4.257460,3,20,-5,-2,-8,-8,-26,-2,1
4.257483,-4,10,5,-2,-3,3,4,6,1
4.266196,-1,-35,-14,1,8,-3,-25,-19,1
4.266204,-5,-65,20,1,-7,2,19,13,1
4.280862,4,15,-1,0,1,-10,-27,6,1
4.280881,-6,17,-2,1,2,9,13,-11,1
4.282423,6,17,-15,-5,-1,-16,-11,13,1
4.282483,0,2,-3,1,3,3,3,-2,1
4.305108,5,22,-5,-2,-3,1,-9,-9,1
4.305131,2,-34,2,1,5,3,-45,0,1
4.305137,-14,-28,7,0,-3,-14,18,-5,1
4.308657,3,37,11,-3,-21,5,9,8,1
4.318503,-6,-5,-16,0,2,-5,-17,-20,1
4.318544,-4,-11,19,1,-2,-10,4,4,1
4.326064,-1,-25,-14,-4,-2,-5,-14,7,1
4.326088,-10,-18,-14,-1,3,2,8,-16,1
4.341076,3,16,-1,-2,-2,3,-15,8,1
4.341104,-3,-4,-5,0,-4,7,35,-2,1
4.342606,4,103,-12,0,2,12,23,1,1
4.342627,-7,-69,18,3,10,-13,-59,10,1
4.363291,-1,7,-6,-6,-11,-8,20,-4,1
4.363313,-2,12,3,-1,-5,1,49,-4,1
4.365006,-1,0,-11,-4,-3,16,1,2,1
4.365029,5,43,-19,2,7,-7,10,10,1
4.377058,5,29,21,3,5,-1,-31,-2,1
4.377085,-10,-22,2,-3,-12,-13,11,0,1
4.386160,7,0,-1,-2,-5,1,-9,4,1
4.386166,2,-3,-14,-3,-4,0,9,-16,1
4.400907,2,-2,-18,-3,8,-1,-3,5,1
4.400927,-7,-2,15,6,8,-5,30,11,1
4.402452,1,4,7,-1,-13,-2,-50,-20,1
4.402474,5,35,-10,-2,-2,7,-3,4,1
4.423393,-9,-17,-2,-4,-3,-12,21,-13,1
4.423417,5,15,-11,0,6,9,-8,10,1
4.425073,-1,-18,-8,3,7,-16,-13,-4,1
4.425092,-5,4,22,1,-7,20,40,5,1
4.437003,9,-2,1,1,0,5,4,3,1
4.437022,1,-12,-7,-2,-3,0,-17,-4,1
4.451109,0,-13,-3,2,1,-5,5,6,1
4.451134,4,2,-14,-3,1,-9,-4,-12,1
4.463237,-5,-5,5,0,1,-2,-14,4,1
4.463252,13,6,-1,4,15,5,-26,1,1
4.463257,-2,16,3,-9,-27,-6,11,15,1
4.463261,-4,11,0,0,5,2,-32,-10,1
4.483273,-8,-39,3,1,-3,-2,-3,-9,1
4.483291,-1,5,-9,-3,-6,-3,-16,-15,1
4.484948,-1,-28,19,2,10,15,17,-6,1
4.484962,-9,3,11,-2,-2,-14,9,9,1
4.505761,0,11,-5,-1,1,-4,-18,5,1
4.505777,-4,-4,-3,-1,-8,-6,-10,0,1
4.507624,1,-35,-6,1,12,9,10,-2,1
4.507645,6,61,-7,-1,-7,-10,-4,-9,1
4.520844,-4,-13,4,-1,3,8,14,2,1
4.520971,-4,-16,-9,-7,-11,9,16,11,1
4.522364,1,19,3,-3,-7,-11,-2,-2,1
4.522409,-4,-20,-10,-1,10,34,12,3,1
4.543664,1,1,-6,0,-7,-43,-35,-13,1
4.543698,-6,8,-3,-3,-3,-4,-29,-16,1
4.545102,0,36,-1,-3,-4,0,1,-8,1
4.545120,6,-31,-4,-1,-1,-7,-10,0,1
4.565947,-10,25,1,1,-2,7,-15,6,1
4.565972,10,-55,3,1,9,11,42,16,1
4.567423,-25,40,10,0,-2,1,-7,-12,1
4.567437,12,1,0,-2,-1,-7,-19,2,1
4.580860,9,-52,-9,-1,-2,5,19,-6,1
4.580878,-6,76,6,-1,-2,-9,-14,-7,1
4.582850,2,-22,-16,3,7,4,-3,11,1
4.582858,-4,-21,-14,-2,-8,1,31,2,1
4.605400,-1,52,14,0,6,-16,-60,-18,1
4.605407,-7,-31,2,-1,-2,1,19,-7,1
4.605411,-1,0,9,0,1,14,69,14,1
4.605414,-1,4,-15,-6,-2,-1,-19,12,1
4.625986,-4,-4,-5,3,0,5,11,11,1
4.626072,-1,8,3,-4,-8,-3,-16,-12,1
4.627975,3,-17,0,-1,3,-8,-18,1,1
4.627981,-1,0,2,4,5,-7,42,-1,1
4.640356,-1,-5,-1,-1,9,11,-5,12,1
4.640387,-7,-12,-2,0,-1,7,-4,6,1
4.647038,5,-45,7,0,-4,-10,-5,-32,1
4.647101,0,57,-3,-4,-5,-2,-44,-11,1
4.663433,-5,-38,17,1,-4,-3,12,0,1
4.663451,-1,6,-7,-1,-3,2,2,9,1
4.665276,2,-2,-19,-1,5,-1,-17,1,1
4.665349,-3,-19,6,-1,-6,-5,-12,-3,1
4.686087,1,22,6,-1,2,1,12,4,1
4.686114,6,-38,-10,-4,2,-7,-46,-7,1
4.687891,-9,41,6,-3,-9,10,83,17,1
4.687897,5,-88,7,2,2,-4,-11,-19,1
4.700253,-2,-6,-8,0,2,5,26,10,1
4.700275,2,94,5,-3,-14,-9,-39,-19,1
4.707172,-3,-32,5,0,-2,-8,-13,7,1
4.707199,0,-1,-16,0,8,2,6,5,1
4.723721,-3,33,18,-2,-5,8,30,-3,1
4.723752,-1,-13,-4,2,6,-15,-2,1,1
4.725201,6,24,-3,-4,1,3,-24,-21,1
4.725207,-7,-11,-1,-5,-3,-7,36,1,1
4.746762,-1,-18,-10,-2,-11,8,-30,-8,1
4.746771,-6,-21,-3,4,-9,-38,7,-11,1
4.747478,3,33,-2,-6,10,11,-24,4,1
4.747490,-3,31,2,0,2,1,-53,-7,1
4.761968,0,-76,3,-3,-5,-2,31,9,1
4.761975,-10,3,3,-2,1,18,17,2,1
4.767017,-1,-8,-9,0,-2,-9,-10,-1,1
4.767042,-2,-11,2,2,4,5,-23,4,1
4.783387,6,26,-12,-3,-2,-8,-7,-1,1
4.783404,3,-27,2,-1,3,5,13,-5,1
4.784915,-7,-12,2,3,-4,-4,-1,7,1
4.784929,-5,6,8,1,1,5,-9,-10,1
4.806094,0,7,-6,-1,-1,-11,15,4,1
4.808513,2,-21,3,-2,-1,7,9,11,1
4.808522,-4,19,9,2,0,3,-9,-17,1
4.808526,-1,-3,-16,-2,-4,-3,15,-2,1
4.820410,1,55,4,7,7,1,-10,6,1
4.820432,-7,-31,17,-3,-3,-1,-8,8,1
4.827223,5,1,-3,-4,-12,-3,-6,-20,1
4.827251,-9,-3,-6,-3,-2,-5,17,8,1
4.843653,1,8,-7,-2,-2,-1,-1,-5,1
4.843688,-1,22,-11,5,16,9,0,14,1
4.845141,0,-19,-7,-4,-15,-10,-7,0,1
4.845148,1,44,12,0,1,0,5,0,1
4.866122,-5,-24,-8,-3,-2,9,14,0,1
4.866138,-1,9,-8,1,0,-5,-5,-8,1
4.867952,-5,-40,6,-4,2,11,-2,10,1
4.867959,-2,39,7,3,-4,-3,2,-5,1
4.880637,-6,-11,-4,-2,4,3,-13,2,1
4.880654,10,14,9,-2,-2,-2,9,9,1
4.887023,3,40,-17,-1,3,-6,24,-10,1
4.887043,-5,-45,8,2,-2,-5,-53,-15,1
4.903287,-5,13,-8,-2,-1,-5,-27,7,1
4.903303,-1,14,8,-1,2,11,-42,-16,1
4.904979,6,-25,-3,1,5,-2,28,5,1
4.905027,10,0,-3,-4,-10,0,31,31,1
4.925918,-7,24,-12,-4,-5,-7,-8,-13,1
4.925942,1,-63,-4,3,3,2,2,-3,1
4.927823,1,19,4,-1,5,7,-18,3,1
4.927833,-2,0,-3,-1,-1,-15,-26,-11,1
4.940259,1,9,-8,-3,2,23,17,3,1
4.940285,1,-7,3,-4,-8,-22,24,11,1
4.946976,-3,-8,2,1,-2,-4,-15,-4,1
4.946992,-6,-54,14,2,-2,5,20,-9,1
4.963637,5,15,2,-1,2,-7,-40,-7,1
4.963659,0,14,-6,0,1,7,17,-1,1
4.964955,4,4,-8,-1,0,-7,2,8,1
4.964973,-3,-28,-2,-3,-5,-2,8,-12,1
4.986228,-3,-6,3,-1,1,8,6,-3,1
4.986251,0,3,-1,-6,-12,-18,-10,4,1
4.988516,7,2,1,1,-4,2,-61,-10,1
4.988524,-3,41,-16,-2,-1,6,50,12,1
4.999495,-4,-26,31,6,11,0,-34,-6,1
4.999511,-11,0,2,-1,-4,-4,10,-10,1
7.011140,-1,0,-1,0,-1,-2,0,0,0
7.011434,-4,-1,0,-2,0,-1,-2,0,0
7.012441,-6,0,0,0,-1,-1,-2,0,0
7.012508,3,0,-1,0,0,0,-2,-2,0
7.024832,-5,-3,-1,-3,-3,0,-1,0,0
7.024867,7,1,1,0,-2,-2,0,-2,0
7.034885,-12,-5,-2,0,-2,-2,-1,-3,0
7.034891,2,0,-2,-2,-2,-1,-2,-2,0
7.048554,0,-1,0,1,0,0,-1,2,0
7.048572,-3,1,2,0,0,-1,-1,0,0
7.050107,4,-2,0,-4,-1,-1,0,-1,0
7.050113,-7,-1,-1,-2,-1,1,-1,-1,0
7.071065,3,3,-1,-1,-1,-2,0,0,0
7.071089,-11,-9,-1,-1,-3,0,0,-1,0
7.072605,9,0,0,1,-1,0,-2,0,0
7.072617,-5,-2,0,-2,-2,-1,-2,-1,0
7.084622,5,1,-1,-1,-2,0,-1,-2,0
7.085902,4,-1,-3,-2,-1,-2,-1,-1,0
7.102192,0,-1,-1,-1,-1,0,0,0,0
7.102198,-1,-3,-1,1,-1,-1,-2,0,0
7.108366,-11,-1,0,1,-1,0,-2,0,0
7.108383,5,4,-1,-2,0,0,-1,0,0
7.110070,0,-1,-3,0,0,-1,-2,-3,0
7.110079,-4,-1,-1,0,-1,-2,-1,1,0
7.130961,12,-2,-2,-2,0,-3,-1,-1,0
7.130977,-7,-2,0,0,-1,0,-2,-1,0
7.133750,3,1,0,-1,-1,-1,0,1,0
7.133756,-3,-2,0,-2,-2,-2,0,-1,0
7.144595,-6,-4,0,0,-1,0,0,0,0
7.144621,0,-1,-2,0,0,-1,-1,0,0
7.153302,-2,0,-1,-1,-1,-1,-1,0,0
7.153320,-1,0,0,-1,0,-1,0,-1,0
7.168292,-4,-2,1,-2,0,1,0,-3,0
7.168300,3,1,-1,0,-1,1,0,-1,0
7.169827,-6,0,-1,0,-1,0,-1,-1,0
7.169843,-4,-3,-1,-2,0,1,-1,-1,0
7.191051,9,3,1,-2,-1,-2,-1,-2,0
7.191078,-7,0,0,-1,-1,-1,-2,-1,0
7.192824,1,8,-1,0,-1,-2,-1,2,0
7.192832,11,-18,-4,-2,0,-2,-2,-5,0
7.204665,-6,-3,-2,-2,-2,-1,-1,-2,0
7.204682,-1,-1,-2,0,-1,-2,0,-1,0
7.213825,0,-2,-2,-2,-2,-3,1,0,0
7.213831,-4,5,2,1,0,-1,0,0,0
7.228784,1,-1,-2,1,0,1,-1,0,0
7.228793,0,-3,0,-2,-1,-2,0,-2,0
7.229824,-2,0,-1,-1,0,0,-1,1,0
7.229862,-3,1,1,-1,0,-1,0,0,0
7.250918,-2,-5,-1,-2,0,-1,-1,-2,0
7.250935,0,2,-1,-2,-1,-1,1,-1,0
7.253567,-5,-4,-1,-2,-1,0,0,-3,0
7.253572,0,3,-1,-1,0,-1,-1,1,0
7.264664,-1,-2,0,-1,0,-2,1,0,0
7.264680,-2,-1,-2,-1,0,-2,-1,-1,0
7.275336,2,-1,1,-1,1,-2,-2,-2,0
7.275343,0,0,-1,-3,-1,-1,-1,-1,0
7.288704,-4,3,-1,0,0,-1,-2,1,0
7.288735,3,-2,-1,-1,1,-1,0,0,0
7.291709,-5,-4,0,-2,0,0,-1,-1,0
7.291717,8,3,-1,0,-3,-3,0,-1,0
7.310808,-3,0,0,0,-3,0,-2,-1,0
7.310824,-1,-2,-1,-2,-1,0,1,-3,0
7.312435,-5,-3,-3,-1,0,1,-1,-1,0
7.312460,-4,-1,1,-1,0,0,0,-1,0
7.333360,0,-3,-1,-1,-1,-2,-3,-2,0
7.333378,-1,-1,0,1,-1,-1,-1,0,0
7.334824,1,-1,0,0,-2,0,-1,1,0
7.334839,-2,0,-2,-1,-2,-1,-1,-1,0
7.349185,-3,-2,-3,0,0,-1,-1,-1,0
7.349202,-6,-1,-2,-3,-1,-1,-1,-2,0
7.351527,-1,0,-1,0,0,-1,-1,-3,0
7.351535,-2,0,0,0,-2,-1,-1,0,0
7.370521,0,-1,-1,-2,-1,-1,0,0,0
7.370537,-7,-1,0,0,-1,0,0,0,0
7.377053,5,-1,-2,-2,0,-3,0,-2,0
7.377073,-4,0,-2,-1,-1,-1,-3,-1,0
7.393637,3,2,0,0,-2,-1,0,-1,0
7.393662,-3,-2,-2,0,0,-1,-1,-2,0
7.396104,-7,-3,0,0,-2,0,-2,0,0
7.396110,-1,1,-1,0,0,-1,-2,1,0
7.408367,-2,-1,-2,-2,0,-1,-1,0,0
7.408385,1,-1,1,-2,-1,-1,-2,0,0
7.410137,0,-1,-1,-2,-1,-2,-1,-2,0
7.410150,-2,-1,-1,-2,0,0,0,-1,0
7.431753,-4,-1,0,-3,-2,0,-2,0,0
7.431759,4,0,-1,-1,-3,-1,-2,0,0
7.432362,6,-1,0,-1,-1,-2,-1,0,0
7.432372,-12,-6,-1,-1,0,-2,-2,-2,0
7.453494,1,1,0,0,0,-2,0,0,0
7.453517,-5,3,0,0,-1,0,-1,-1,0
7.454961,19,-1,-3,-3,-1,-1,-1,0,0
7.454975,1,-1,-1,-1,-1,-1,-1,-1,0
7.467876,-1,-2,-1,-1,-1,-2,-1,-1,0
7.467894,1,-1,-1,-2,1,-1,-1,0,0
7.474953,-8,2,0,-1,-1,0,-1,-1,0
7.474984,0,0,-1,-1,-1,-1,0,-1,0
7.493468,-3,-1,-2,-2,-2,0,0,-3,0
7.493482,-2,1,-2,-1,-2,-1,0,0,0
7.493486,-7,-1,-3,-2,1,0,0,-1,0
7.493489,0,-3,-2,0,-1,-1,-2,-1,0
7.513275,6,1,-2,0,-2,-1,-2,1,0
7.513293,-1,-2,-1,0,-1,-1,-2,0,0
7.515167,1,-2,0,-2,-3,-2,-1,-1,0
7.515257,-5,-2,-3,-1,-3,1,0,-1,0
7.527773,-4,-1,0,0,-1,-2,-2,0,0
7.527793,3,-1,0,-1,-1,-2,-1,-3,0
7.542048,-6,-2,-2,0,0,-1,-2,-1,0
7.542069,4,1,-1,-1,0,0,0,1,0
7.551101,-6,-2,-1,-1,-2,-1,0,-2,0
7.551124,-2,-3,-2,-1,-1,1,-1,0,0
7.552525,-4,-3,0,1,-1,0,0,-1,0
7.552536,-1,-1,-1,-2,-1,-1,0,-1,0
7.573399,-6,-2,0,-1,0,-2,0,0,0
7.573411,14,0,-1,-1,-1,-2,-1,-1,0
7.574978,-25,-4,-2,-1,-2,0,0,-1,0
7.574999,2,0,0,-1,0,0,1,-1,0
7.587562,0,-1,-3,-1,-3,-2,-1,-1,0
7.587572,-5,-2,-1,-2,0,0,0,1,0
7.594670,6,-1,0,-1,-3,-1,-1,-1,0
7.594697,-1,0,-1,-2,-1,0,-1,-1,0
7.611383,-3,-2,0,-2,0,0,-1,-1,0
7.611400,-1,-2,-1,-1,-1,-2,-1,0,0
7.612823,1,0,-1,-1,-2,-1,-1,0,0
7.612841,-1,-3,-1,1,-2,-1,0,0,0
7.634109,3,-2,-2,-1,0,-1,0,-1,0
7.634116,-14,-1,0,0,-2,-1,-3,-1,0
7.634816,12,4,-1,-1,-1,0,1,0,0
7.634824,-3,-6,-2,-1,-2,-2,-3,-3,0
7.649640,1,0,0,-1,-3,0,-2,0,0
7.649647,2,-1,-1,-3,-1,-1,-1,0,0
7.654848,-9,0,0,-3,-1,0,-1,-1,0
7.654881,1,1,0,-1,-2,-2,-2,0,0
7.670800,3,-2,-2,-1,-2,0,0,-1,0
7.671599,-8,-1,-2,1,-2,-1,0,-2,0
7.672241,4,2,-1,-1,-1,-2,-2,1,0
7.672256,0,1,-2,-1,0,-1,-2,-2,0
7.693793,-3,-1,0,-2,0,-1,-1,-2,0
7.693837,-3,-1,-1,0,0,0,0,0,0
7.695646,3,-3,0,0,-1,0,-2,-4,0
7.695653,3,0,0,-1,-3,-2,-1,-1,0
7.708080,-4,0,-1,0,-2,-1,1,-2,0
7.708117,1,0,-1,-1,0,-1,0,-1,0
7.714650,0,-3,-2,1,-1,-1,-1,0,0
7.714674,-6,0,1,-1,-1,0,0,0,0
7.730958,0,-1,-1,-2,-1,-1,-1,-3,0
7.730979,-1,-1,-2,-1,0,-1,-1,0,0
7.732444,0,-2,-2,-1,-2,-1,-2,-2,0
7.732461,1,0,0,0,-1,0,0,-1,0
7.753597,-1,-1,0,0,-2,-1,-1,-1,0
7.753613,-2,-1,-2,0,-1,-1,-1,-3,0
7.755383,-2,2,0,-3,-1,-2,1,0,0
7.755390,0,-1,-2,-1,0,-1,0,0,0
7.768059,1,1,-1,0,0,-1,-2,0,0
7.768083,-2,-3,0,-1,-2,1,-1,-3,0
7.774680,-4,1,-1,0,0,0,-1,0,0
7.774828,-4,-6,-3,-2,1,-1,-1,-3,0
7.791255,1,0,-1,-2,0,-1,0,1,0
7.791300,-2,0,-2,-2,1,-1,-2,-1,0
7.792482,-7,-3,-1,-2,0,-1,0,0,0
7.792504,-4,0,-1,1,-2,-1,-1,-2,0
7.813489,0,-2,0,-3,-1,-1,0,-1,0
7.813518,2,2,0,-2,0,0,-2,-2,0
7.815297,1,-2,-2,-1,0,-2,-1,-1,0
7.815303,-2,0,-1,0,1,-1,-1,1,0
7.827239,-4,-2,-2,0,0,-1,-1,0,0
7.827267,0,1,-1,-2,0,-2,1,0,0
7.836444,-1,0,0,0,-1,-1,-3,0,0
7.836452,1,0,0,-1,-2,0,0,1,0
7.850930,-1,-2,-1,0,-1,-1,-1,-2,0
7.850944,1,-2,-2,-2,-3,0,1,1,0
7.852286,-1,-2,-1,0,-1,1,-1,-2,0
7.852299,0,-1,-2,-1,-1,-1,-2,-1,0
7.873751,-2,-1,0,-2,-1,-1,-1,-2,0
7.873791,-1,-2,-1,0,-1,-3,-2,1,0
7.876232,-3,-4,-2,-2,-1,-2,-1,-2,0
7.876245,3,-1,0,0,-1,-1,0,-1,0
7.895861,-11,-3,-2,0,0,-1,-2,-2,0
7.895873,4,1,0,0,-2,-1,-2,-2,0
7.895876,-8,-5,-2,-3,-2,-1,-1,-2,0
7.895880,-3,-1,0,0,-2,0,-1,-2,0
7.910587,4,1,-1,-2,-1,-2,-1,-1,0
7.910593,-3,-1,-2,-1,-1,0,1,0,0
7.910877,2,0,-1,-1,-2,-1,-1,-1,0
7.910892,-4,-1,-1,-2,0,-2,-1,0,0
7.933007,5,1,0,1,-1,-2,-2,-2,0
7.934242,1,1,-1,1,0,-1,-2,0,0
7.934247,3,-1,-3,-1,-1,-2,-2,-2,0
7.934252,-3,1,-1,0,0,-1,0,0,0
7.956062,-1,-2,-2,0,-1,-1,-3,1,0
7.956068,-1,0,-1,0,-3,-3,-1,0,0
7.956071,-2,0,-1,-1,0,0,-1,-1,0
7.956074,-5,0,-1,-1,-1,-2,0,1,0
7.971718,5,-1,-2,0,0,-1,0,-1,0
7.971724,-1,-1,-1,-1,0,0,-1,-1,0
7.971727,-3,-2,0,-1,-1,-1,0,-1,0
7.971730,9,1,0,-1,-1,-2,-1,0,0
7.992895,0,-1,0,-1,-2,0,0,0,0
7.992939,-7,-1,-1,-3,-1,1,-1,-1,0
7.994942,13,3,0,1,1,0,0,1,0
7.994954,-4,-4,-4,-2,-3,-1,-1,-2,0
8.015581,-4,-3,0,-1,-1,-1,-1,-2,0
8.015611,-2,-4,-3,-1,-1,0,-1,-3,0
8.018211,0,2,1,0,-2,-1,-1,1,0
8.018258,3,0,-1,-1,0,0,-1,-1,0
8.030177,-4,0,-2,-1,-1,0,-2,-2,0
8.030196,-2,-3,0,-3,-1,-1,-2,-2,0
8.031068,0,-2,-3,-1,0,-3,-1,0,0
8.031086,1,0,-1,1,-1,-2,-1,-1,0
8.052984,-4,0,0,-2,-2,0,-1,-1,0
8.052996,-5,0,0,0,1,0,-2,-1,0
8.053491,-2,0,-1,-1,-1,-2,0,-1,0
8.053530,1,0,0,-2,-2,-2,-2,0,0
8.075342,-1,0,-2,-1,0,0,0,0,0
8.075370,0,0,-2,-1,-1,-1,2,-1,0
8.077144,0,-2,-1,-2,-2,0,-3,-3,0
8.077155,-1,-1,0,-1,-1,-1,-2,-1,0
8.090894,-2,-6,-2,-1,-1,-1,0,-3,0
8.090928,1,-2,-1,0,-2,0,-2,-1,0
8.090936,-3,-2,-1,0,-3,-1,-1,-1,0
8.090944,-1,0,0,-3,1,1,-1,0,0
8.112739,-3,1,-1,-2,-1,-2,-2,1,0
8.112752,9,-3,-2,-2,0,-2,-1,0,0
8.113361,-13,-4,-1,-1,1,-1,-1,-2,0
8.113440,-4,-2,-1,0,-1,0,0,-1,0
8.135261,9,2,-2,-1,0,-1,-1,0,0
8.135285,-4,-1,-1,0,-1,-1,-1,0,0
8.136011,1,-1,-1,0,0,0,-2,-1,0
8.136016,0,-2,-2,-1,1,-2,0,0,0
8.150196,-7,-3,-2,0,-2,0,0,2,0
8.150213,3,0,-1,-2,-2,-2,-1,-4,0
8.150951,0,0,-1,-1,0,-1,-2,0,0
8.150958,-3,-3,-1,-1,-1,0,-1,-1,0
8.174491,1,-1,-1,-1,-1,-1,0,-2,0
8.174506,-2,0,0,0,0,-2,0,-3,0
8.174513,0,1,-1,-1,-1,0,-1,-3,0
8.174520,-2,-1,-2,1,-1,-1,-3,-1,0
8.195222,0,-2,1,-1,0,0,-1,2,0
8.195241,-6,-1,0,-1,-2,0,0,0,0
8.196683,1,-2,-2,-2,-1,-2,0,0,0
8.196690,5,0,-1,-2,0,-2,-1,-1,0
8.212009,0,-1,-1,-1,-1,-1,0,-1,0
8.212015,-2,0,-1,-2,0,-1,0,-2,0
8.212352,-1,0,-2,-2,-2,0,-1,0,0
8.212366,-1,0,-1,1,-1,-1,-2,-1,0
8.232713,1,-1,-1,-2,0,-2,-2,-2,0
8.232738,-3,-2,1,0,-1,-1,-2,-1,0
8.235131,3,-1,0,-1,-1,-1,-2,-1,0
8.235138,-2,-2,0,-3,-1,0,0,-1,0
8.255399,-2,0,0,-1,0,-1,-1,-2,0
8.255422,-2,-2,-3,-1,0,0,-2,0,0
8.257501,-2,-2,-1,0,-2,-1,0,-2,0
8.257511,-1,0,-1,0,-2,-2,0,-2,0
8.270223,-1,-1,0,-3,-1,0,0,-2,0
8.270248,0,-2,-1,-2,-2,-2,-1,0,0
8.270787,-5,1,-1,-2,-2,0,-1,-1,0
8.270796,-3,-3,-2,-3,0,0,-2,-1,0
8.292780,1,0,-1,-1,-2,-1,0,-2,0
8.292800,5,-1,-1,-1,0,-1,-3,-1,0
8.294427,-5,0,0,0,0,-1,0,-1,0
8.294440,1,2,-2,0,0,0,0,-2,0
8.315289,-5,-2,-1,-2,-2,-1,-1,-1,0
8.315302,-2,-2,-1,-1,-2,-1,-1,-1,0
8.316066,5,-2,0,-1,-1,-2,-2,-2,0
8.316100,-9,1,0,0,-3,-1,-1,0,0
8.330157,5,-2,-2,-1,-1,0,-2,1,0
8.330173,-1,-2,-1,-2,-2,-2,-1,-2,0
8.331330,-3,-2,-1,-1,0,-1,-1,-1,0
8.331335,0,0,1,-1,-1,1,-1,-2,0
8.352867,-5,0,1,1,1,-1,-1,-1,0
8.352890,-7,-1,-2,-1,-2,1,0,0,0
8.354361,3,-2,-1,0,0,-1,-1,0,0
8.354368,-2,-2,0,-1,1,-1,-2,-2,0
8.376534,0,-2,-2,-1,-1,0,-2,-2,0
8.376547,3,0,1,1,0,0,-1,0,0
8.376550,-3,-1,1,1,-1,-2,-1,-2,0
8.376553,1,-1,-2,0,-2,0,-2,-1,0
8.391599,-2,-1,-1,-1,0,0,0,-1,0
8.391608,-4,-2,-2,-2,-2,0,0,0,0
8.391611,9,2,-2,-4,-2,-1,-2,0,0
8.391614,-7,-6,-2,0,-1,-2,0,-1,0
8.412792,1,-1,-1,0,-1,-1,-1,-1,0
8.412808,-3,0,-1,-2,-1,-1,0,-2,0
8.414054,-5,0,0,-3,-1,0,0,2,0
8.414066,1,-1,-1,-2,0,0,-1,-1,0
8.443507,0,-2,-1,-1,-2,-2,2,-1,0
8.443525,1,1,-1,-1,0,-1,-2,-1,0
8.445000,-4,-3,-1,-2,-1,-2,-1,-2,0
8.445006,4,1,-1,-2,-2,-2,-1,0,0
8.450144,-5,0,-2,-2,-2,-1,-1,0,0
8.450161,-1,1,-1,1,-1,-1,-1,0,0
8.451268,0,-1,-2,0,0,0,-2,0,0
8.451277,0,-1,-3,-2,-1,1,1,0,0
8.472817,-1,0,-1,-2,0,-3,-1,-1,0
8.475084,-2,0,-1,-2,-2,-1,-2,-1,0
8.475093,5,-2,-2,-1,-2,0,-1,-1,0
8.475096,-6,-2,0,-2,-1,1,-3,0,0
8.495164,2,-1,-2,1,0,0,-1,-1,0
8.495180,0,-3,-1,0,0,0,-2,-1,0
8.496135,-6,-1,-1,-1,-1,0,-1,0,0
8.496141,2,0,1,0,-1,-2,0,0,0
8.510139,-5,-2,-2,-2,-1,-1,-1,-1,0
8.510155,2,-3,-3,-2,-1,-3,-2,-1,0
8.511788,-3,-1,-2,-1,-3,-2,-3,-1,0
8.511847,3,2,-1,-1,-1,-1,0,-1,0
8.532710,-7,2,0,0,0,-1,-1,-1,0
8.532802,0,2,-2,1,0,-1,-1,-1,0
8.533501,-2,-2,-2,0,0,-1,-1,-1,0
8.533518,-2,0,-1,-2,-2,-3,-1,-1,0
8.555768,2,-1,0,-2,-2,0,-3,1,0
8.555809,-3,-1,-2,0,-1,-1,0,0,0
8.559242,-1,-2,-1,-1,0,0,0,0,0
8.559252,-1,-3,-1,0,-2,-2,-2,0,0
8.570232,1,-1,0,-1,-1,-1,0,-2,0
8.570256,-1,0,-1,-2,0,-1,0,1,0
8.572091,-8,1,-1,0,-1,-1,1,0,0
8.572097,3,-2,-1,-1,0,-1,-2,-2,0
8.593282,-2,-2,-1,-2,-1,-1,-2,0,0
8.593295,0,-2,-1,-1,-2,-3,-1,-3,0
8.593387,0,-1,-1,-3,0,-1,1,-2,0
8.593394,-1,-1,0,-1,-1,0,0,-1,0
8.615698,-1,0,-1,-1,-1,0,-1,-1,0
8.615729,0,-1,-1,-2,-2,0,-2,-1,0
8.617324,-1,-3,-1,1,-1,-2,-1,-1,0
8.617330,-4,-1,-3,-1,-2,-2,0,0,0
8.630242,14,-2,-2,-2,-2,-2,-1,-2,0
8.630259,-2,0,0,0,1,1,-1,-1,0
8.630944,-1,-2,-2,-1,-1,-1,-3,-1,0
8.630957,0,0,-1,-1,-1,-2,-1,0,0
8.655061,-5,-2,0,0,0,-2,-2,0,0
8.655067,0,-1,-3,-2,-1,-1,-1,-1,0
8.655070,2,-1,0,-2,-1,-1,-2,-1,0
8.655073,-2,1,-1,-1,-2,-1,-2,-2,0
8.675361,-2,0,0,1,-1,-1,0,0,0
8.675380,1,-2,-1,-2,-1,0,-1,-1,0
8.677013,-3,-2,-1,-1,-2,-1,-1,-1,0
8.677020,0,-2,0,-2,-1,-1,-1,-1,0
8.690747,-1,-1,-1,-1,-1,-1,-2,-1,0
8.690785,-2,1,0,-2,0,-1,0,-1,0
8.692320,0,0,0,-1,0,-3,-1,-1,0
8.692325,1,-1,-1,-1,0,0,-1,-1,0
8.712678,1,-1,-1,-2,-1,-1,-1,-1,0
8.714449,-1,-2,0,-2,0,-2,0,-1,0
8.720682,-2,-3,-1,-1,0,-1,-1,-2,0
8.720713,2,0,-1,-1,-1,-1,0,-2,0
8.735137,-2,-1,-1,0,-1,0,-1,0,0
8.735153,1,0,-2,-1,-2,-2,-1,-2,0
8.735956,-2,-1,0,-1,-1,-1,-1,0,0
8.736088,-3,-2,0,-2,-1,-1,1,-1,0
8.750122,0,-2,-2,-1,-1,0,0,-1,0
8.750146,0,-2,-1,-1,-3,-3,-1,-2,0
8.751025,1,1,-2,-1,-1,1,0,-1,0
8.751037,-1,-1,0,2,-1,-1,0,-3,0
8.772814,-3,-2,-1,-2,0,-3,-2,-1,0
8.772837,-2,-3,0,-2,-2,-2,-1,0,0
8.775672,-1,-3,-3,-1,-1,0,-1,0,0
8.775679,0,-2,-1,-2,-1,-1,-1,-1,0
8.797170,0,-1,-3,-1,-1,0,1,-2,0
8.797178,-4,-1,-2,1,-1,0,-3,0,0
8.797181,-3,-2,-1,-1,-2,-2,-1,-4,0
8.797185,-1,-2,-1,-3,-1,-2,-1,0,0
8.810226,0,-2,0,1,-1,-1,-1,-1,0
8.810262,0,0,-1,1,1,-1,-1,0,0
8.812738,-1,0,0,0,-2,-3,-1,-2,0
8.812745,0,-1,-1,0,0,0,-1,0,0
8.832785,-1,-2,0,-2,0,-2,-1,-1,0
8.832805,0,1,0,0,0,0,0,-1,0
8.833321,-2,-3,-1,0,0,-2,-1,2,0
8.833341,-2,-1,-1,-1,-1,-3,-2,-1,0
8.855225,-3,2,0,-1,-1,1,0,-1,0
8.855243,0,-3,1,-1,-1,0,-1,0,0
8.857447,1,0,0,-3,-2,-1,0,0,0
8.857460,1,-1,-1,0,0,-2,-1,1,0
8.869725,-2,-1,-3,-1,0,-3,1,-1,0
8.869750,-2,-1,-2,-2,-1,-1,-1,-2,0
8.877693,-1,-2,-2,-2,-1,-1,-1,-1,0
8.877716,-1,-1,-1,-1,0,0,-2,-1,0
8.892663,-1,-2,-1,1,-2,-1,-1,-1,0
8.892686,-5,0,-1,1,-3,-1,0,0,0
8.893411,5,1,-1,0,-1,-2,0,-2,0
8.893427,0,0,-2,-2,-2,-1,-2,-2,0
8.915571,-3,-1,-2,0,0,-1,-1,0,0
8.915601,0,1,0,-2,-2,-1,0,0,0
8.917046,-3,0,-2,0,0,0,1,0,0
8.917051,-1,0,-2,-1,0,-1,-2,-2,0
8.929572,0,0,1,-2,-1,-1,-2,-1,0
8.929589,-1,-2,1,-1,0,0,-1,0,0
8.938210,0,1,-2,-1,1,0,-1,0,0
8.938216,0,-1,-1,1,-1,0,0,1,0
8.954078,-1,-1,-1,-1,-2,0,-1,-1,0
8.954093,-1,-1,0,-3,-1,-2,-1,-1,0
8.954099,1,-1,-1,-1,-1,-1,-3,0,0
8.954105,1,-1,-1,-1,-2,-2,0,-2,0
8.975582,-4,0,0,1,-1,-1,-2,0,0
8.975627,0,-1,0,-2,0,0,-2,-1,0
8.977811,-3,-1,-1,0,-2,0,1,-2,0
8.977820,-4,-4,-1,-2,-1,-1,-1,-1,0
8.990077,-1,0,-3,-1,1,-1,-1,-2,0
8.990100,1,-1,-1,0,1,-2,1,-1,0
8.997828,-1,-1,1,0,-2,0,0,-1,0
8.997844,1,0,0,-1,-1,0,-1,-2,0
9.012718,2,0,-2,-1,-3,-1,-1,-2,0
9.014749,-5,-1,-2,-1,-3,0,0,0,0
9.014758,6,-3,-2,-1,-2,-3,-1,-1,0
9.014901,0,1,1,-1,0,-1,0,-2,0
9.035208,1,-1,-1,-2,1,-1,-1,-1,0
9.035229,-6,-3,-2,-2,-1,-1,0,-2,0
9.035779,-5,-2,0,0,0,-1,-2,0,0
9.035788,1,0,-2,-1,-1,-1,0,0,0
9.049672,1,-1,1,-2,0,-1,0,0,0
9.050530,-2,-2,-3,-1,0,-1,-2,-2,0
9.058000,-2,0,-1,-2,-2,-1,-2,0,0
9.058030,-2,-3,0,1,-1,0,-2,-1,0
9.072757,-4,-1,-1,-1,-1,-1,1,0,0
9.072782,6,1,-2,0,-1,0,-2,-2,0
9.074870,-2,0,0,0,0,-2,1,-1,0
9.074876,2,0,0,-1,-1,-3,-1,0,0
9.096558,1,-2,-2,-3,-2,-1,0,-2,0
9.096568,-2,-2,0,-2,-2,-1,-2,-1,0
9.096572,0,1,-1,0,1,-2,-1,-1,0
9.096576,-4,-1,0,-1,-2,-1,0,0,0
9.110829,0,-1,-1,0,-1,-1,0,0,0
9.110845,1,-2,0,-1,1,0,-2,0,0
9.117748,-3,-1,-4,-3,-1,0,-1,-2,0
9.117766,-3,0,-2,-1,0,0,-2,0,0
9.132770,-2,-2,-2,-1,0,-2,-3,-2,0
9.132833,-1,0,-1,0,-2,-3,0,-2,0
9.133593,1,-3,0,-3,-1,-1,-1,-2,0
9.133611,-1,-2,-2,-1,0,-1,-1,-1,0
9.155871,-1,-1,-1,0,0,2,-1,-1,0
9.155911,-1,0,-1,-2,-1,-1,0,0,0
9.158703,0,-1,-1,-3,-2,-1,-1,-3,0
9.158710,-1,-1,-2,0,0,0,-3,-2,0
9.169633,-1,0,1,-2,0,-2,0,-1,0
9.169649,-4,-1,0,0,0,-2,1,0,0
9.177661,0,1,-2,-1,-1,0,-1,0,0
9.177678,-2,-2,0,-1,-1,0,-1,-2,0
9.192887,1,0,1,-1,-2,1,-2,-2,0
9.192920,-1,-2,-2,-1,-1,0,-2,-2,0
9.193666,-1,-1,1,-1,-1,-1,0,1,0
9.193692,0,-1,-2,-2,-2,-3,0,-2,0
9.215867,-4,0,1,-1,-1,-2,0,-2,0
9.215898,0,-2,-2,-2,-2,0,-1,-3,0
9.218018,-2,0,1,0,-2,-2,-2,-1,0
9.218025,-2,-1,-1,-1,1,-1,0,-1,0
9.238408,-3,-2,-1,-1,-3,-2,-3,0,0
9.238428,3,1,-2,-1,1,-1,-2,-1,0
9.239125,2,0,-1,-1,0,-1,-2,1,0
9.239194,-7,-2,1,-2,1,-3,-3,-1,0
9.252796,0,0,-2,-1,0,0,0,1,0
9.252817,0,-2,-2,0,-2,-1,0,-1,0
9.253395,-6,-1,0,0,-1,-3,-1,-2,0
9.253487,1,-1,-1,-2,-1,-1,1,0,0
9.275087,0,-1,1,-1,0,-2,-1,0,0
9.275106,-2,0,1,-2,-2,-2,0,-1,0
9.276918,1,-1,-1,1,0,-1,-1,-1,0
9.276926,-1,-2,-3,-2,-3,-2,-2,-3,0
9.298279,0,-1,-1,-2,0,-2,-1,-1,0
9.298295,-3,-3,-2,0,-1,0,-1,0,0
9.299020,-4,0,-1,0,-1,-1,-2,-1,0
9.299033,0,1,0,0,-2,-1,-1,-3,0
9.312863,-2,-2,-2,-1,-1,0,-1,0,0
9.312891,0,1,1,-1,-1,-1,-1,0,0
9.313442,-1,-1,-1,-2,0,-1,0,1,0
9.313464,-3,-2,-2,0,-1,-1,0,-1,0
9.335226,1,-1,0,-1,-3,1,0,-2,0
9.335243,1,-1,0,-1,-1,-2,-2,-1,0
9.337510,-1,0,-1,1,2,0,-1,-1,0
9.337517,-2,0,0,-1,0,0,-1,0,0
9.360161,1,-2,-2,0,0,-1,-2,-2,0
9.360178,1,-2,-1,1,-1,0,-1,0,0
9.360182,-1,-2,-1,-3,-2,0,-1,-2,0
9.360185,-1,0,0,0,-1,-1,-1,0,0
9.375427,-2,-1,-1,-1,0,-1,0,-1,0
9.375434,-2,0,-1,-1,-1,1,0,0,0
9.375437,4,1,-1,-2,-2,-2,1,-1,0
9.375440,-1,-2,-1,0,-1,-2,-3,0,0
9.395218,-2,-1,-1,-3,0,-1,-1,-2,0
9.395239,0,-1,-1,-1,0,-2,-1,-1,0
9.395776,-1,0,-1,-2,-2,0,-2,-2,0
9.395791,0,-1,0,-2,-1,-1,0,0,0
9.421026,0,-1,-2,-1,0,-2,0,-2,0
9.421031,-1,-1,0,-1,0,-1,-1,-3,0
9.421034,0,-1,-1,0,0,-1,-1,-1,0
9.421037,-2,-1,-1,0,-1,0,-1,-1,0
9.433056,-2,-1,-1,0,1,-1,-2,1,0
9.433073,1,-1,0,-2,-1,-1,-2,0,0
9.435151,-2,-2,-1,0,0,-3,-2,-2,0
9.435162,2,1,-1,0,1,-1,-1,0,0
9.455862,0,0,-2,0,-1,0,1,0,0
9.455885,1,-2,-2,-1,-1,1,-1,-1,0
9.455892,-2,-1,2,-1,-1,-1,-1,-1,0
9.455960,2,-1,0,-2,-1,-2,-3,0,0
9.478298,0,0,-1,-1,-1,-2,-1,-1,0
9.478314,-2,-2,-3,-3,0,-1,-1,1,0
9.479255,-2,-1,-1,-1,-1,0,-1,-1,0
9.479261,-3,-2,-1,-2,0,0,0,-2,0
9.492654,-1,0,-3,-1,-1,-1,-1,0,0
9.492676,-2,-2,-2,-2,0,-3,0,0,0
9.494072,1,-1,-2,0,-1,-1,-1,-1,0
9.494079,1,-1,0,1,-2,0,1,0,0
9.515615,-2,-1,0,-1,-1,-1,-1,-1,0
9.515635,-1,0,0,-1,-1,-1,1,-1,0
9.515966,-3,1,-1,-1,-2,-1,-1,1,0
9.516035,-1,-1,0,-1,-1,-1,-1,1,0
9.538293,-1,-1,-1,-1,-1,-2,-1,-1,0
9.538310,-2,-2,-1,0,-1,1,-2,-2,0
9.539973,-2,-2,-2,-1,0,0,0,1,0
9.539984,0,0,-1,-1,-2,0,-1,0,0
9.552864,-3,-1,-2,0,0,-1,-1,0,0
9.552894,1,-1,-1,0,0,-1,-1,0,0
9.554698,0,-1,-1,-2,1,-1,-3,0,0
9.554703,-1,-1,-1,-1,-3,-2,-2,0,0
9.575389,-1,0,1,-1,-1,-3,-1,1,0
9.575397,1,-1,0,0,0,-2,0,-1,0
9.575971,-2,-2,-2,0,-2,0,-2,-2,0
9.575987,0,1,-2,-1,-2,-1,-1,-1,0
9.598941,0,-1,2,-1,-2,0,-2,-1,0
9.598967,2,0,0,0,1,-2,-1,0,0
9.600563,-2,0,0,-2,0,0,0,-2,0
9.600569,-1,-2,0,-1,-1,-3,-1,-1,0
9.612791,0,-2,-1,0,-2,-1,-1,-2,0
9.612811,-2,-2,-2,-1,-1,-1,0,0,0
9.613774,1,-1,0,0,-2,-1,1,0,0
9.613780,-5,-1,-2,0,0,0,-2,-1,0
9.637953,-2,-1,-1,-2,-2,-1,-1,0,0
9.637959,1,-2,-1,-2,-3,-2,-2,-1,0
9.637962,-2,-2,-1,0,0,-2,-2,0,0
9.637965,-1,-2,0,-1,1,-1,-1,-1,0
9.658518,0,-1,0,-1,-1,1,0,-1,0
9.658545,0,-1,-1,-1,-1,1,0,-2,0
9.659179,0,0,0,-2,-1,-1,-1,-1,0
9.659202,1,-1,-1,0,-2,-2,0,-1,0
9.672077,0,-1,-1,1,-1,1,1,0,0
9.672098,-1,-2,-1,-1,0,0,-2,0,0
9.680350,1,-1,-1,0,-1,1,-1,-1,0
9.680371,-4,-2,-1,-2,-1,0,0,-2,0
9.695327,-1,3,-2,0,1,-2,-1,-2,0
9.695355,-4,-1,-1,-2,-1,-2,-2,-2,0
9.696846,-4,0,2,0,-1,0,-1,0,0
9.696859,6,-2,-1,-1,0,0,0,-2,0
9.718286,0,0,-1,-1,-2,-1,-1,-1,0
9.718302,0,1,0,0,-1,-1,1,-1,0
9.719073,-4,0,-1,-2,-1,-2,1,0,0
9.719089,-2,-2,0,-1,-1,0,-1,-1,0
9.732647,1,-3,0,-3,0,-1,-2,-1,0
9.732663,0,-3,-1,-1,-1,0,-2,0,0
9.733392,-3,-3,-2,-1,-1,0,-1,-2,0
9.733408,0,0,-1,0,-1,-1,-1,2,0
9.755174,0,-2,0,-1,0,-1,-2,0,0
9.755198,-2,-1,-1,-1,0,1,-1,-2,0
9.757029,0,0,-3,-2,-1,-2,0,-1,0
9.757037,0,0,-1,-1,-2,-1,-1,-2,0
9.778369,-3,-1,-2,-2,0,1,-1,-1,0
9.778463,3,0,-2,-1,-2,-1,-1,-2,0
9.779115,0,0,-2,-2,0,0,-1,-3,0
9.779129,-3,-1,0,-2,1,-1,0,0,0
9.792005,0,-1,-1,-1,-1,-1,1,-1,0
9.792030,0,0,0,0,0,-1,0,1,0
9.800351,-2,-3,-1,-1,-2,0,-1,1,0
9.800368,-5,-1,0,-1,-2,-2,-2,-2,0
9.815334,0,-2,-2,-2,-2,-4,-1,-1,0
9.815433,0,1,2,0,-1,0,-1,-1,0
9.815796,1,-3,-1,1,-1,-2,0,1,0
9.815957,-2,1,-1,-1,0,-2,-2,-1,0
9.838306,2,0,-1,-1,0,-1,-2,0,0
9.838322,-1,1,-1,-2,-1,0,1,-2,0
9.839635,2,-1,-1,-1,-1,0,0,-2,0
9.839646,-3,-1,-1,-1,0,-1,-1,0,0
9.852214,-2,-2,-3,-2,-1,-2,0,-2,0
9.852240,-1,-3,-1,-1,1,-2,-2,0,0
9.860385,-2,-1,0,-2,-1,-1,-2,-1,0
9.860418,1,0,-2,-2,-2,2,0,-2,0
9.875140,-1,-1,-2,-2,0,0,-1,-1,0
9.875161,-4,-1,0,0,-1,-1,-1,0,0
9.875981,-1,0,0,-2,-1,-3,-1,0,0
9.875997,-1,-1,-3,-2,0,-3,-1,-2,0
9.898448,-2,-3,-1,-1,0,-1,-3,0,0
9.898464,-1,0,-2,-1,0,-1,-2,-1,0
9.899749,1,0,0,-1,1,-1,0,-2,0
9.899765,0,1,-1,-1,-1,0,-2,-1,0
9.912200,-5,-1,-1,0,-1,-1,-1,1,0
9.912224,-2,-1,-2,-1,-1,-3,0,-2,0
9.920483,-1,0,-2,-2,-1,1,-2,1,0
9.920508,-3,-1,-1,-2,0,0,-1,1,0
9.935075,1,0,1,-1,-1,1,-1,-2,0
9.935088,-4,-1,-1,-1,-2,-2,-1,-3,0
9.935698,2,-1,-1,0,-1,-3,0,-1,0
9.935707,0,-2,0,-2,-1,-2,-2,0,0
9.958398,0,0,0,0,-1,0,-1,-1,0
9.958422,-3,-1,-2,-1,0,-1,-1,-1,0
9.960893,-1,0,-2,-1,0,-1,0,-3,0
9.960909,1,-1,0,-1,-1,-1,-1,0,0
9.972098,-2,0,-1,-2,-1,-2,-1,-2,0
9.972115,0,0,-3,-1,-2,0,-2,0,0
9.982123,-1,-2,-1,-1,-1,0,-2,1,0
9.982131,-2,-1,-3,0,-1,-1,0,0,0
9.995255,-1,1,-2,-1,0,-1,-3,-1,0
9.995274,-4,-4,0,-2,0,0,0,0,0
9.997664,1,1,-1,-1,0,-1,0,0,0
9.997670,-2,-1,-1,-1,-3,-1,-1,-1,0
12.021235,47,2,5,1,3,12,72,24,1
12.021736,-35,39,-15,-5,-3,-2,-36,-1,1
12.023525,-33,-17,3,6,5,-15,-26,-1,1
12.023587,9,17,11,-4,-12,8,11,-8,1
12.042485,15,13,-4,-4,-6,-10,-39,-4,1
12.042511,5,10,-5,0,3,-4,6,3,1
12.051521,9,56,-4,0,4,2,6,-2,1
12.051527,-2,-19,-7,-2,-2,-12,-30,1,1
12.066009,-17,26,27,6,-14,6,46,13,1
12.066027,8,57,24,-3,5,-1,-5,6,1
12.067403,-9,-16,1,-3,0,0,30,4,1
12.067420,-31,3,-34,-3,8,-8,-38,-25,1
12.081604,23,-32,-2,-3,-3,9,8,-11,1
12.081613,-29,-29,-8,-2,-3,-6,-15,-8,1
12.082260,-10,-7,21,3,4,9,67,4,1
12.082269,-2,-7,-2,1,8,4,-64,-9,1
12.103409,8,-38,-14,-8,-8,-4,-24,6,1
12.103425,8,27,-5,5,10,2,14,4,1
12.104753,7,-26,-10,-7,-11,-7,-20,-8,1
12.104761,7,36,0,-4,-3,-11,14,-14,1
12.125906,-28,-37,5,-1,-6,-14,-24,-18,1
12.125930,7,27,-9,-3,-1,19,-26,22,1
12.128010,7,5,29,4,-3,0,13,-9,1
12.128032,-13,-40,15,0,1,4,-24,-7,1
12.141030,33,57,-8,-1,1,-3,-12,6,1
12.141060,-8,-16,-4,2,9,-11,13,6,1
12.143477,-1,-60,-9,-7,-6,11,-7,1,1
12.143487,-17,-46,7,5,11,-8,-1,3,1
12.163324,-8,-10,7,1,-5,0,19,-4,1
12.163344,15,6,-1,-3,-12,-4,-13,-4,1
12.164747,-1,18,-10,4,7,-9,-55,18,1
12.164765,20,11,-16,-8,-9,3,82,7,1
12.185936,7,-41,-24,0,7,9,-8,-39,1
12.187347,-62,68,18,-1,-10,-11,12,-8,1
12.187359,1,-24,-14,-7,-6,-7,-40,-16,1
12.187366,5,43,-5,2,-1,-5,13,43,1
12.200254,-10,-61,23,-1,0,6,-11,-1,1
12.201111,35,4,-11,-3,1,-5,-3,-16,1
12.206974,12,-3,2,3,1,-4,-7,-4,1
12.206999,-22,7,-1,-1,-4,2,7,1,1
12.224481,-5,40,-3,0,4,-1,-15,2,1
12.224495,6,-35,-7,1,-3,-5,7,12,1
12.224961,-4,10,8,-1,-3,-2,-31,-4,1
12.224986,12,-10,5,1,0,0,-3,4,1
12.246187,-10,-13,-23,1,3,-2,16,-3,1
12.246219,-2,12,7,-3,-5,9,76,8,1
12.249272,-18,-34,-4,-2,5,5,5,-20,1
12.249284,11,-5,3,2,-1,5,18,21,1
12.260703,-9,53,-28,-2,-11,-19,-46,-6,1
12.260747,11,-91,14,1,15,7,-23,-15,1
12.267446,-35,21,9,2,2,8,52,4,1
12.267483,20,48,-8,-8,-15,-13,-15,-8,1
12.285906,-12,-32,8,-1,6,6,24,11,1
12.285915,37,8,-13,3,3,3,3,27,1
12.285918,-9,7,-14,-2,-1,-1,-29,-29,1
12.285921,-9,-2,21,8,9,5,-4,3,1
12.306066,12,8,0,-1,-4,-9,0,7,1
12.306084,-35,64,-8,4,13,4,-26,-13,1
12.308907,4,-26,-3,-10,-13,-5,12,9,1
12.308919,6,-55,-4,-2,-2,-3,12,1,1
12.320696,15,21,-6,-2,-1,-2,-5,3,1
12.320727,-19,-6,32,5,-4,4,-11,-12,1
12.327426,3,2,-2,-1,1,0,-31,-2,1
12.327468,-5,-4,-24,3,11,3,-2,-6,1
12.343576,15,-28,17,-7,-16,6,4,-1,1
12.343609,25,-33,-7,-1,7,-10,-11,9,1
12.345037,15,27,1,-2,-10,-3,17,11,1
12.345051,-10,-20,11,-1,-4,4,-1,-20,1
12.364853,-6,7,-25,-1,8,-13,-37,-3,1
12.364871,-23,-27,0,3,-12,0,48,9,1
12.376544,-11,-28,8,-6,-7,13,-28,-5,1
12.376557,0,25,-14,-5,-4,-6,-9,-5,1
12.380250,1,26,7,1,-6,-1,-1,10,1
12.380277,34,1,-19,-6,-5,-12,-35,-18,1
12.387348,-32,-13,-14,9,15,-10,26,5,1
12.387380,-5,3,31,-4,-10,7,-30,-7,1
12.403454,-14,31,-2,-4,-1,4,-2,-3,1
12.403478,22,-18,4,-5,-6,-5,-11,-2,1
12.405873,13,10,-21,1,3,2,3,4,1
12.405881,-13,48,4,2,-8,-14,-14,11,1
12.425906,-3,-121,-9,2,9,7,16,-7,1
12.425926,-34,63,33,-5,-17,1,-28,-23,1
12.427506,22,1,7,2,-2,-6,-4,6,1
12.427554,-10,5,-19,-3,16,1,9,-4,1
12.440283,2,26,-3,1,-1,-6,-13,-7,1
12.440310,4,-39,-26,-3,8,3,-1,7,1
12.447139,18,52,2,-1,-15,-2,9,-3,1
12.447157,-35,-33,1,-5,-9,0,-10,-12,1
12.463324,-8,-1,6,-3,-4,-5,26,-4,1
12.463342,-1,-6,-16,0,5,-4,-8,7,1
12.465157,6,94,11,3,6,-4,39,10,1
12.465185,4,-102,10,-5,-12,16,18,-6,1
12.487688,12,8,-5,-5,0,-5,18,13,1
12.487694,-2,14,-1,6,-2,-5,6,-13,1
12.487698,0,40,6,3,13,14,-20,6,1
12.487701,-23,-52,-10,0,-3,-7,-36,-19,1
12.501756,9,9,5,6,22,3,0,30,1
12.501764,-19,-22,-1,-10,-39,-14,-27,-22,1
12.507192,8,-17,5,0,3,-6,4,-18,1
12.507215,7,56,-17,2,11,16,43,6,1
12.523324,-19,6,8,-3,-7,-1,-27,-4,1
12.523352,13,-33,-17,4,5,-6,7,27,1
12.524977,-13,50,-15,-1,5,-5,3,-6,1
12.525042,2,18,17,3,-6,3,-13,3,1
12.546594,16,-51,29,-1,-6,3,-10,-6,1
12.546611,-13,-1,-10,2,7,2,14,8,1
12.548241,-9,-21,1,-5,-8,-8,-12,-4,1
12.548247,12,-4,-13,2,10,-5,-27,15,1
12.559508,-7,66,-15,-1,-4,-1,-14,-26,1
12.559528,1,-4,8,2,4,-4,-3,-6,1
12.571174,17,-39,-7,-5,-5,3,-17,1,1
12.571187,-8,7,43,1,-8,0,65,24,1
12.583245,-6,2,-2,-3,6,1,10,-1,1
12.583295,-8,3,-6,-3,1,1,-30,-22,1
12.584723,-9,-5,-11,2,10,-4,-1,-10,1
12.584736,24,12,-8,-4,-13,-12,-16,-7,1
12.606171,-1,16,-14,0,-4,-5,7,9,1
12.606207,21,-37,34,0,0,12,-30,9,1
12.609258,-5,-26,2,-5,-17,-2,-5,4,1
12.609274,8,-5,-15,-5,-2,-8,-4,-19,1
12.619948,10,-3,-4,2,0,2,-12,-3,1
12.619973,-8,39,-32,-7,2,-3,6,-12,1
12.629257,-12,-16,27,4,1,5,20,4,1
12.629263,5,-8,-4,-1,4,1,-17,5,1
12.644134,-11,3,-8,-2,-2,-3,27,-1,1
12.644157,16,61,-2,-1,2,0,11,6,1
12.645510,12,-38,-66,9,28,-14,-72,4,1
12.645526,-41,-38,78,6,-34,15,119,35,1
12.666098,31,89,27,-8,-3,16,-22,-28,1
12.666123,-44,10,-11,-6,-15,-12,-26,-24,1
12.668611,7,-26,-8,-9,-6,0,-5,-18,1
12.668619,-1,18,-55,0,11,-5,36,20,1
12.679641,-7,-51,-8,2,2,-3,-35,-19,1
12.679658,8,-31,20,-1,-5,3,15,30,1
12.689496,-8,18,5,2,1,-8,11,-1,1
12.689504,14,9,-8,1,12,-3,-28,-10,1
12.704604,-17,-15,14,-2,-5,5,26,7,1
12.704610,6,15,-12,0,8,-4,5,-3,1
12.704817,2,-8,16,-4,-6,3,7,6,1
12.704853,11,11,-5,-1,7,0,-21,-8,1
12.725927,-14,-20,-9,-3,-5,-1,-7,1,1
12.725950,2,-2,-3,7,19,-8,-4,2,1
12.727703,7,-10,4,1,-16,-7,-28,0,1
12.727725,8,93,8,-14,-13,23,11,7,1
12.739766,-28,-37,-43,-6,0,-13,-29,9,1
12.739805,1,39,76,5,10,14,28,-49,1
12.749400,10,-14,9,-5,-9,4,14,-1,1
12.749406,2,28,-27,3,14,-10,-23,0,1
12.763472,9,-4,-5,2,-2,1,17,23,1
12.763489,4,-20,-17,-4,-5,-1,1,18,1
12.766082,0,1,5,-2,3,5,2,4,1
12.766090,-15,-24,2,3,1,-12,-26,-18,1
12.786069,20,24,-26,-3,3,0,16,2,1
12.786103,-11,-90,12,2,-8,-6,-3,0,1
12.787620,0,-5,24,-3,1,-10,50,-1,1
12.787653,-11,-27,-20,-2,3,27,17,16,1
12.799540,-18,21,22,-4,-10,-13,-42,-29,1
12.799557,18,16,-30,-3,-2,1,-7,-18,1
12.810365,-6,7,-6,4,6,4,16,10,1
12.810376,12,-14,-11,-5,-4,-12,2,-2,1
12.824264,-2,-17,5,2,-1,6,11,12,1
12.824299,6,103,-30,-2,3,0,-46,9,1
12.827246,-52,-111,37,0,-9,2,8,1,1
12.827297,27,48,18,2,7,-8,21,-11,1
12.845799,-6,20,2,-3,-9,5,11,1,1
12.845811,13,2,-8,-4,-1,-5,-8,10,1
12.847400,1,25,-18,-2,-1,5,-20,-7,1
12.847503,-27,-28,-4,-2,1,-7,-56,-17,1
12.861100,30,23,11,4,4,8,44,17,1
12.861116,-40,-73,-9,0,4,-4,-11,11,1
12.868680,0,21,-4,2,10,4,34,0,1
12.868686,16,-12,2,-2,-9,6,-17,-3,1
12.883289,1,-9,-2,4,7,-11,5,-26,1
12.883310,-2,-15,6,-4,-15,-2,9,-7,1
12.884661,-7,45,-6,-10,-5,-2,19,17,1
12.884729,-6,-37,4,1,-4,-12,-24,-5,1
12.909118,-12,-29,-10,0,9,3,-4,10,1
12.909132,25,15,-6,-1,1,-4,-13,2,1
12.909137,-25,-9,1,0,-11,-16,-1,-11,1
12.909140,8,-5,11,0,11,5,53,-4,1
12.928430,-11,1,-9,-2,-11,-3,-20,-3,1
12.928449,5,-7,2,0,1,2,30,5,1
12.929822,19,16,-7,-2,-6,-3,-46,-5,1
12.929940,-8,20,-7,5,6,-9,-27,-6,1
12.943658,-1,39,-27,-4,0,-7,-6,8,1
12.943690,-2,-52,52,0,-17,11,57,2,1
12.945260,-12,-12,12,1,13,8,-15,-1,1
12.945266,10,-5,-14,-4,-3,-6,-9,-11,1
12.966113,-12,-2,-5,2,0,-2,-12,-29,1
12.966132,4,16,-17,-6,-7,-5,-21,12,1
12.967329,-6,37,6,4,4,12,23,17,1
12.967339,-1,-19,0,-2,-3,-1,11,3,1
12.979716,-5,-21,10,0,4,-1,-14,3,1
12.979741,19,45,-8,7,13,0,42,5,1
12.991302,-10,-93,-17,2,2,3,46,9,1
12.991310,8,26,36,-10,-12,5,-8,-9,1
13.003469,-2,-13,5,-5,-7,0,-18,-19,1
13.003560,-2,-16,-12,-7,0,0,-18,-1,1
13.004919,11,25,-21,1,1,-9,-20,-5,1
13.004944,-3,14,-13,5,6,-13,-32,1,1
13.026229,7,-30,7,-1,9,15,-17,12,1
13.026273,-11,17,-3,2,0,-4,12,-4,1
13.028583,16,20,-12,-6,-9,-13,-41,6,1
13.028636,-37,18,6,-5,-11,8,44,-13,1
13.048555,11,23,12,-1,-6,-6,8,3,1
13.048562,-49,-19,-20,-3,3,-4,-20,4,1
13.049798,19,64,0,2,1,-7,-13,-8,1
13.049815,24,-51,12,2,4,-3,9,4,1
13.064344,-22,12,-6,0,4,0,-23,1,1
13.064352,-14,-1,-15,-5,-7,-2,-9,-7,1
13.064790,5,25,5,1,2,-5,-12,-23,1
13.064801,-1,-32,14,-1,-13,-8,-5,-36,1
13.086193,-3,28,0,-3,-9,-4,7,13,1
13.086226,13,2,-6,-3,-11,-1,16,16,1
13.088055,-3,-5,0,-1,-1,-1,-23,-6,1
13.088062,20,-8,-51,-8,-9,-23,-84,1,1
13.108694,-17,-29,65,7,2,12,87,2,1
13.108721,-9,1,3,-2,-1,4,-12,-4,1
13.110978,1,-29,-3,-1,0,4,6,-3,1
13.110987,16,16,-17,2,8,4,10,8,1
13.123890,-7,-36,-11,1,8,-3,17,5,1
13.123924,10,51,9,-3,-6,-8,-45,-6,1
13.126791,6,-32,3,-4,-10,6,7,-27,1
13.126800,-12,41,-11,2,12,-4,26,22,1
13.146206,9,-16,-9,-6,-15,-7,-87,-38,1
13.146232,5,44,6,1,5,0,41,-9,1
13.147483,-19,-60,1,-2,-3,-5,-22,0,1
13.148976,10,38,13,2,2,9,16,9,1
13.168942,-12,51,-31,-3,2,-4,24,12,1
13.168966,5,-37,9,4,0,-3,-26,2,1
13.171244,0,5,24,6,9,11,54,-1,1
13.171254,3,15,-13,-4,6,11,-25,3,1
13.183131,29,-55,6,4,-2,-6,-5,10,1
13.183164,-19,-16,-4,-6,-17,9,19,2,1
13.190170,-1,8,-5,-8,-7,-7,-10,-4,1
13.190204,-5,-6,-4,1,8,3,1,-1,1
13.207005,19,16,-5,-2,-9,-5,25,-17,1
13.207040,-8,2,-23,-3,-1,-9,-51,29,1
13.209325,9,51,16,1,0,0,8,-5,1
13.209333,-8,-53,-4,-3,-7,-1,-13,-10,1
13.228363,-23,2,-23,-7,-6,-4,-26,-13,1
13.228381,1,-1,29,9,5,2,12,-2,1
13.229848,-4,23,-23,-5,-1,-5,-16,29,1
13.229859,-3,-11,-2,3,5,10,19,2,1
13.242655,-22,19,15,-1,-1,4,2,9,1
13.245011,21,-19,-12,0,0,1,-1,-9,1
13.249734,-18,-17,-6,-1,-3,-2,-9,-1,1
13.249752,9,34,-4,-1,-2,-6,0,-9,1
13.266769,5,-72,-4,-1,3,4,11,9,1
13.266777,-2,30,1,3,5,-10,-7,-5,1
13.267389,-12,1,42,-1,-9,15,8,-2,1
13.267406,10,-20,-5,-5,-7,-8,6,0,1
13.288465,13,42,7,4,14,3,-13,9,1
13.288490,7,-35,-23,-6,-14,-17,-21,-23,1
13.290178,21,-18,-6,1,3,6,14,-1,1
13.290212,-29,0,6,-4,-1,-3,3,3,1
13.302719,13,4,-6,-4,-17,-5,-1,-4,1
13.302737,20,-3,10,-2,23,6,-29,-20,1
13.310988,-15,-12,-11,-1,6,-6,6,18,1
13.311001,2,21,17,0,-7,5,-5,-13,1
13.326739,4,-38,-2,-4,-6,-5,9,-2,1
13.326756,-10,-21,-17,-1,-3,-2,12,5,1
13.327423,-8,-47,12,4,9,2,0,-8,1
13.327456,-11,19,-14,-6,-8,-9,-1,16,1
13.348526,11,60,11,3,4,4,-4,7,1
13.348551,-24,-22,9,2,2,-1,17,-34,1
13.349839,17,6,-21,-4,-12,0,7,20,1
13.349852,-5,-23,-12,-1,-3,2,-10,-6,1
13.362741,3,83,-84,-2,13,-23,-27,4,1
13.362759,-12,-67,109,19,0,33,51,37,1
13.369743,19,29,-38,-13,0,1,-29,-32,1
13.369767,-20,-8,-6,2,2,-7,-7,4,1
13.388325,0,4,-6,-6,-8,7,14,-7,1
13.388333,2,32,-33,1,13,-15,-24,2,1
13.388337,-11,-2,8,3,-1,-2,-5,5,1
13.388340,-11,-22,15,0,-1,9,10,2,1
13.408581,-17,-19,14,5,10,-8,-17,-9,1
13.408607,3,10,-17,-4,-6,-3,8,-2,1
13.410791,4,81,-34,4,20,-8,-21,31,1
13.410800,12,-23,33,-13,-28,20,24,-35,1
13.422927,-24,-15,9,0,-6,-5,1,9,1
13.422956,12,4,-12,-10,-11,2,3,-17,1
13.429588,14,24,-19,-2,-5,-9,-10,-5,1
13.429606,6,4,-11,10,16,-8,-15,12,1
13.446036,8,-22,18,0,-3,9,15,9,1
13.446061,-25,12,-9,-4,-3,3,8,3,1
13.448421,0,-13,7,0,-4,-20,-29,-10,1
13.448429,-5,-9,-10,-2,0,8,64,5,1
13.468865,-5,-35,28,-1,0,6,-13,-20,1
13.468895,6,19,-25,-4,0,-9,-17,7,1
13.471532,6,6,-5,-6,-13,3,31,-5,1
13.471540,1,-61,10,3,-3,-12,-32,11,1
13.482727,11,-14,28,1,-3,-6,7,-6,1
13.482744,-28,15,-8,-6,-6,-4,10,2,1
13.489964,-4,-9,2,-3,-4,0,1,-18,1
13.489997,6,29,-19,2,7,-23,-25,-15,1
13.506185,20,-62,6,9,13,21,42,40,1
13.506205,1,1,8,-5,-9,8,14,-25,1
13.508484,-19,-18,15,0,-4,3,-1,-4,1
13.508493,8,19,-17,1,6,-1,-6,5,1
13.528499,1,12,-23,0,1,-12,10,-9,1
13.528523,8,2,-3,0,2,-2,-26,7,1
13.529826,13,5,5,-4,-4,6,15,3,1
13.529894,-14,8,-11,1,2,-7,-26,-4,1
13.542376,-6,3,-8,-5,-3,-1,5,-5,1
13.542392,-1,38,7,3,-7,3,-4,10,1
13.551062,2,-30,-9,2,3,1,24,3,1
13.551071,9,-17,21,0,2,7,-9,3,1
13.565944,-26,27,7,-3,-6,-6,-1,-35,1
13.565961,7,-18,-19,-5,1,4,-24,7,1
13.567342,9,-16,1,-3,-3,-9,5,-6,1
13.567354,-2,36,1,0,0,1,36,23,1
13.590184,-22,-7,-8,-4,-4,0,-35,2,1
13.590200,11,34,2,5,9,1,38,3,1
13.590205,-10,-46,-6,-2,8,-1,-60,-13,1
13.590211,14,32,35,1,2,10,28,9,1
13.603862,4,9,-8,-10,-21,-1,-5,6,1
13.603868,6,32,-2,1,6,-5,41,-5,1
13.612310,-18,-14,24,1,-9,3,-11,4,1
13.612317,6,3,-19,-2,-4,-7,-23,-15,1
13.625844,-2,-18,0,-1,9,-5,-19,3,1
13.625870,3,-16,-4,0,-3,-2,-4,5,1
13.627816,4,28,-4,0,8,2,29,15,1
13.627834,-5,-64,-6,-2,-10,-4,-20,-17,1
13.650813,1,15,6,-3,-8,-1,6,-4,1
13.650820,10,74,-19,-3,4,-5,-21,2,1
13.650824,-8,-76,29,5,4,-7,-29,-11,1
13.650827,-35,19,-11,-5,-15,-11,-46,-11,1
13.661979,-24,-37,8,-1,7,25,103,26,1
13.661999,13,-18,-2,-6,-5,-5,-38,1,1
13.671998,11,32,-14,-1,0,-2,1,-8,1
13.672004,17,11,-6,2,6,-6,1,5,1
13.686002,5,-35,1,3,7,10,-23,-13,1
13.686022,-19,-15,-8,-2,-2,-1,20,9,1
13.687236,-6,9,12,6,-1,4,7,4,1
13.687274,7,-5,-9,-4,0,4,1,0,1
13.708431,-11,-26,-6,-2,-5,-6,-25,9,1
13.708458,7,78,-2,2,5,-10,0,-17,1
13.711113,-6,-68,35,-1,-13,14,35,-17,1
13.711121,-4,-16,-14,-5,-9,-9,-26,-15,1
13.722149,15,6,-16,2,5,-1,8,6,1
13.722174,-4,-12,-3,0,-4,-8,-1,8,1
13.730931,-10,-10,-2,0,-2,-1,-23,3,1
13.730954,-22,4,1,-3,1,-2,35,2,1
13.745942,8,16,-4,-1,-3,-6,-21,-20,1
13.745956,20,-45,1,0,9,2,22,3,1
13.747297,5,42,22,-2,0,5,-14,-1,1
13.747312,-5,-15,-10,-1,-6,-5,-9,10,1
13.768593,8,67,-4,-1,6,-8,-4,-12,1
13.769740,-5,-38,3,-2,4,11,-25,19,1
13.769828,17,23,-24,-4,-8,-6,9,-2,1
13.769836,-14,2,7,1,3,2,5,-12,1
13.782594,-10,26,-11,-1,3,-3,-2,-3,1
13.782636,5,-52,9,2,-2,-4,-13,-4,1
13.791937,-23,49,8,-4,-4,-8,-48,-9,1
13.791945,4,-18,0,1,2,4,4,13,1
13.807890,5,17,-2,0,0,-2,10,-8,1
13.807897,4,-20,1,-2,0,1,28,6,1
13.807901,-10,12,-18,1,0,-1,1,5,1
13.807904,4,-31,1,2,19,6,4,-5,1
13.828301,10,-3,6,-2,-1,5,25,5,1
13.828318,-1,-20,5,-4,-9,2,-18,-13,1
13.829895,-10,13,-13,2,7,-4,-35,5,1
13.829976,12,-35,-16,-1,-2,-5,25,18,1
13.842009,-13,83,9,-4,-8,-1,-43,-26,1
13.842029,-15,-58,14,2,3,-3,1,-28,1
13.852074,16,6,-13,1,0,-3,24,10,1
13.852080,-4,9,-24,0,-4,-12,-20,-5,1
13.865790,28,29,29,-2,2,11,-32,14,1
13.865807,-66,8,-5,-6,-16,-9,-1,-7,1
13.868196,8,41,-2,-2,-2,-1,-12,-9,1
13.868202,28,22,1,0,4,9,42,14,1
13.888818,-31,-90,10,5,0,-6,-39,-5,1
13.888846,20,10,-6,-1,-3,5,55,15,1
13.891458,5,3,-9,-1,0,-1,-3,-2,1
13.891468,-16,-12,6,-2,3,-2,-53,-15,1
13.902115,11,3,2,0,-5,1,35,14,1
13.902130,-6,0,9,1,7,-4,-41,-2,1
13.911685,-19,-27,0,0,9,1,-4,3,1
13.911693,19,82,-4,-9,-29,-3,35,-9,1
13.926063,-23,-37,-4,-1,1,2,6,-16,1
13.926099,23,-23,-15,1,-1,0,-18,-3,1
13.928905,4,-2,5,0,1,-1,28,9,1
13.928915,-5,13,9,3,2,-2,-41,-13,1
13.948313,-5,0,-14,-1,18,9,41,16,1
13.948331,2,92,-4,-4,-9,-6,12,-2,1
13.949779,-3,-96,-21,-2,-1,-17,-31,-25,1
13.949800,-3,-21,31,-3,-9,17,18,6,1
13.970946,10,6,-12,-3,-10,-14,-30,14,1
13.970975,19,0,-1,0,3,2,5,-4,1
13.973382,-3,18,-10,-5,-2,-3,16,0,1
13.973397,-7,-7,-4,4,7,-3,-13,3,1
13.985315,-1,-23,0,-1,-4,-14,1,-6,1
13.985332,-6,6,-5,1,9,3,-18,0,1
13.994243,14,0,-4,-5,-16,6,35,7,1
13.994260,-2,-43,-12,-3,1,-1,-2,-13,1
14.008991,-19,57,10,-5,-4,-4,-16,-13,1
14.008998,0,-62,-4,0,-1,-3,-6,-1,1
14.010054,4,16,7,2,4,0,-6,3,1
14.010081,5,4,0,1,0,-3,-27,-4,1
14.038296,1,15,-12,2,3,0,38,8,1
14.038313,4,-10,-4,-7,-12,7,6,-2,1
14.041125,6,29,-6,-4,4,0,-65,3,1
14.041181,-21,7,4,-2,-10,-6,-2,-15,1
14.045422,12,-20,-7,2,1,-9,-31,-10,1
14.045449,-34,-4,2,-2,0,1,30,-6,1
14.052100,-10,29,-16,-2,-9,-4,-19,4,1
14.052125,3,2,25,2,9,3,41,19,1
14.068477,25,-41,-6,-2,-9,13,12,0,1
14.068502,1,5,-8,-2,-1,-3,7,-7,1
14.070473,-25,-13,7,-1,-3,2,39,-6,1
14.070479,2,4,-9,2,5,-4,-48,7,1
14.091280,2,-8,-15,-1,-2,-5,13,7,1
14.091307,4,39,21,6,8,6,-3,-10,1
14.092683,3,-5,17,-3,-14,0,14,1,1
14.092705,-6,9,-2,0,1,-8,-3,3,1
14.105215,9,10,-8,-1,3,4,10,5,1
14.105239,21,-5,-9,-7,-9,-11,-51,-2,1
14.111927,-5,31,-9,-3,-9,-6,5,8,1
14.111945,6,-104,10,0,3,6,-3,-12,1
14.128429,-6,7,-5,-3,-9,-9,-16,-22,1
14.128447,3,18,7,1,-3,-8,-24,-6,1
14.130088,9,-42,8,4,24,8,39,4,1
14.130094,9,25,-16,0,-7,-6,12,20,1
14.150773,-12,-15,3,-8,-18,-2,7,-6,1
14.150785,10,-4,-3,2,-1,2,-14,0,1
14.152269,-16,2,-4,0,-2,-3,-7,-5,1
14.152288,-13,30,1,2,11,-1,7,1,1
14.165966,4,14,6,3,6,2,-15,0,1
14.165975,-3,-25,-14,-3,-5,-5,20,10,1
14.172336,21,-15,25,0,-1,5,2,19,1
14.172368,-3,67,-16,-5,1,7,7,-9,1
14.188430,-4,-56,11,3,-6,-3,6,-5,1
14.188447,-20,-25,-5,-3,6,0,14,11,1
14.190089,7,-36,1,2,5,3,-27,-7,1
14.190116,-1,-16,8,0,-2,-2,9,-4,1
14.211780,6,9,-16,-4,1,-2,-21,10,1
14.211786,-14,-19,-6,1,-1,-1,33,1,1
14.212365,-4,-2,-10,-5,-7,0,37,-2,1
14.212377,4,12,7,0,2,-10,-44,-8,1
14.225294,0,26,6,6,18,8,8,-29,1
14.225324,0,-6,-3,-5,-10,7,23,29,1
14.232376,-7,16,-24,-6,-7,-3,-2,-34,1
14.232408,7,39,3,-2,1,-7,8,4,1
14.249033,-1,-73,21,-1,-17,-2,-6,21,1
14.249049,9,12,-2,2,20,6,2,-6,1
14.250652,0,26,-7,-3,-1,1,3,21,1
14.250658,12,-5,1,0,9,4,2,-13,1
14.271227,-7,20,-1,-2,2,-8,-35,-7,1
14.271244,-21,0,-1,0,-5,-1,24,-16,1
14.272968,-3,2,-7,0,-1,-5,-25,-6,1
14.272994,-10,5,8,0,-1,1,7,5,1
14.285293,36,10,-3,-3,-5,-5,-7,3,1
14.285320,-5,21,-13,-5,-13,0,-15,4,1
14.292020,2,-33,16,5,12,4,28,-9,1
14.292043,-6,13,-15,-5,-10,-2,-1,-10,1
14.316480,-9,-3,-3,1,2,4,14,14,1
14.316524,-1,3,-7,0,5,-4,-37,-12,1
14.318178,-19,25,4,-1,-2,-2,20,17,1
14.318185,6,-17,3,-1,-15,-2,-2,-3,1
14.331011,-13,-5,1,1,3,-2,24,2,1
14.331028,18,-22,0,2,3,-7,-40,-11,1
14.332952,4,60,-5,5,6,1,-36,-4,1
14.332960,10,-51,8,1,-8,0,39,10,1
14.345236,-8,59,-21,-12,-2,-1,-32,-6,1
14.345256,-38,-63,13,-4,-10,4,-14,-6,1
14.351845,10,-14,-5,-2,2,-6,-16,-20,1
14.351862,18,15,-24,3,7,0,1,10,1
14.368902,-12,24,-9,-1,11,-2,-3,14,1
14.368911,-5,10,6,-6,-14,-4,27,-10,1
14.369815,7,26,1,0,-3,1,-46,4,1
14.369832,-47,-1,18,-2,-1,-1,-7,-11,1
14.391127,40,-5,10,4,-3,-3,3,6,1
14.391148,9,-1,1,3,8,2,-14,6,1
14.392942,4,-4,-12,-4,-2,-2,23,-3,1
14.392976,8,23,-6,-2,0,-3,-23,6,1
14.405476,-43,-7,19,4,5,11,53,-6,1
14.405509,27,17,3,-2,-3,-4,-23,-3,1
14.411922,5,-26,2,0,-7,-1,-3,-2,1
14.411939,2,-2,-8,0,0,13,45,3,1
14.429677,-4,-19,-3,-2,0,-9,-40,-11,1
14.429692,9,-1,-14,1,8,16,33,3,1
14.429906,-13,-44,23,-1,-6,-12,-29,13,1
14.429918,-6,11,8,-5,-7,5,10,0,1
14.450984,-8,26,-20,-5,-9,-10,5,-20,1
14.451001,6,14,14,2,-7,5,-6,4,1
14.452342,3,11,-2,-1,-1,-5,2,18,1
14.452355,6,31,-13,-1,10,5,-12,-10,1
14.464497,9,-89,-6,-4,-11,0,11,4,1
14.464514,-7,63,19,4,3,-4,16,9,1
14.475632,3,-10,-4,-2,4,4,-10,-11,1
14.475647,-11,0,0,5,2,-1,-10,6,1
14.488713,19,15,-16,-4,-7,4,4,-5,1
14.488746,-15,-12,12,3,-3,-10,-20,3,1
14.491963,-15,2,0,-1,0,4,56,13,1
14.491976,6,-31,0,0,-5,-9,-30,-21,1
14.510844,2,-15,-2,1,-2,-2,-18,-4,1
14.510864,-2,-59,-1,-2,-2,-3,-12,7,1
14.512393,8,27,-11,3,10,-5,25,-12,1
14.512470,-38,-7,22,-6,-16,-3,-4,9,1
14.524500,26,6,-1,-3,-2,1,-4,10,1
14.524516,17,-5,-17,-7,-5,-5,-8,-8,1
14.536447,-23,-8,-6,-3,-2,-7,0,-18,1
14.536531,9,-5,-13,2,10,1,-6,-1,1
14.548939,-9,0,14,1,6,4,6,5,1
14.548982,-9,58,-7,2,-1,2,-4,1,1
14.550904,30,-29,-3,-4,-4,1,10,10,1
14.550911,-26,-21,3,-3,-6,-3,-9,-16,1
14.570737,-12,21,1,0,0,-3,2,0,1
14.570749,1,26,-8,3,5,-2,-8,0,1
14.572232,3,46,-11,-2,-14,2,-1,-9,1
14.572251,7,-102,20,-3,-6,-9,1,4,1
14.593750,-16,71,-9,1,12,-5,-31,17,1
14.595636,8,-37,13,0,-7,-11,34,-17,1
14.595643,0,-12,-13,1,5,14,-32,-5,1
14.595647,1,57,-9,-1,-4,-9,-11,-3,1
14.608372,0,-57,-25,-8,-7,-2,6,-21,1
14.608409,35,-36,14,1,6,-5,-6,8,1
14.610386,-42,-7,23,0,-4,7,5,-10,1
14.610396,9,4,-13,-3,-4,-5,5,25,1
14.630729,-30,18,7,4,20,5,12,2,1
14.630741,-9,17,-8,-2,-3,-8,9,3,1
14.632253,10,-30,-9,-5,-3,7,-26,-14,1
14.632268,17,36,-5,-3,6,5,5,7,1
14.645715,-6,16,31,4,-12,-6,8,-2,1
14.645722,-18,1,-4,-2,0,5,-5,1,1
14.655221,6,-17,-5,-1,5,-7,-4,-10,1
14.655234,-6,67,-6,2,2,-2,2,-1,1
14.668487,2,-3,-10,-5,-11,-5,-7,-6,1
14.668519,-5,-65,-4,2,5,3,26,12,1
14.670820,-10,12,33,6,7,5,-30,-10,1
14.670826,23,-33,-9,-4,-11,-8,-18,-12,1
14.693217,-29,-1,-10,-2,9,-1,-30,-17,1
14.693229,-5,14,-3,6,19,4,39,11,1
14.693234,1,-16,-9,-9,-36,-9,-8,3,1
14.693238,0,-34,-16,-9,1,7,36,15,1
14.704736,14,-23,7,2,-6,0,-23,-13,1
14.704835,-10,28,-3,1,1,-1,-22,3,1
14.714784,0,32,-1,2,13,-2,22,1,1
14.714796,-10,-12,24,4,0,2,-25,-1,1
14.728569,6,-2,1,-2,-6,-3,15,0,1
14.728602,-1,54,-5,-4,-6,0,-6,-6,1
14.729877,33,-7,-20,-1,3,-5,15,2,1
14.729937,-26,-49,-5,5,3,-3,-27,2,1
14.750957,-22,-21,25,3,3,16,53,13,1
14.750981,11,14,-9,-6,-15,-2,-33,-23,1
14.752265,7,-30,5,-3,11,-2,-6,-4,1
14.752301,18,4,-21,1,7,2,11,4,1
14.765357,-13,-20,-9,6,10,-5,-8,5,1
14.765390,-11,-19,18,-4,-3,6,-17,-4,1
14.774609,9,8,-13,-6,-16,0,42,25,1
14.774617,0,-8,-1,-3,2,-2,0,3,1
14.788199,32,45,-18,-2,-2,0,-36,-7,1
14.788223,-32,-11,14,-3,-1,5,57,-2,1
14.789814,-16,2,3,0,4,-5,-20,-3,1
14.789880,-1,7,5,-1,0,-1,8,-1,1
14.810957,10,27,1,-2,-5,-11,-20,0,1
14.810975,7,-44,-33,-3,-3,0,14,4,1
14.812866,5,65,21,-1,3,13,-10,5,1
14.812874,8,-3,14,-2,-8,-6,12,-6,1
14.824483,-7,-20,-1,-2,-6,-4,-7,-7,1
14.824504,4,8,3,1,-3,-7,-25,-12,1
14.835632,-18,-17,0,2,0,-3,-4,5,1
14.835641,-7,18,-19,0,6,3,10,-2,1
14.851019,6,-35,32,-4,-8,-1,17,5,1
14.851027,2,-1,7,-4,-12,-6,8,5,1
14.851031,-33,-4,-11,-1,-5,-5,-20,-16,1
14.851034,7,-2,-9,2,11,-2,-4,-6,1
14.871082,-3,-7,-11,-6,-10,6,15,3,1
14.871100,10,13,-2,0,2,-3,-21,11,1
14.872640,16,-26,0,-5,-3,1,52,4,1
14.872646,-13,49,-17,-1,1,-10,-58,-10,1
14.893636,-8,-88,27,6,5,4,30,0,1
14.893680,5,30,9,-6,-6,5,4,-2,1
14.896213,2,3,-12,-2,-7,-8,-5,-4,1
14.896223,-10,1,15,1,-2,1,16,3,1
14.908650,16,80,-29,1,17,-7,-46,-2,1
14.908678,-6,-43,-7,-3,-16,-6,-5,0,1
14.910617,-17,-11,14,5,10,1,-6,-13,1
14.910630,9,31,-12,-2,-1,0,9,1,1
14.930793,1,-59,-2,-4,-11,-2,14,-1,1
14.930812,-24,-16,-17,-2,-2,-7,-14,-6,1
14.933582,0,50,2,-1,13,-1,-11,6,1
14.933588,16,55,-6,1,3,-3,20,3,1
14.953492,-22,-25,17,-2,-5,10,-1,9,1
14.953509,13,3,-5,-3,2,-3,-13,10,1
14.954821,4,-28,2,1,-3,1,30,-12,1
14.954828,-5,-9,5,3,4,3,-22,-4,1
14.968405,-16,21,-4,1,-1,-3,4,-1,1
14.968422,-1,3,-7,-8,-5,-2,-1,0,1
14.969878,9,34,-32,-6,0,-3,-5,-1,1
14.969890,-4,11,68,12,12,5,0,7,1
14.991001,2,-1,-17,-9,-14,-3,-8,-8,1
14.991021,18,-6,8,3,9,4,-11,-10,1
14.992464,-4,0,-21,0,-8,-11,-28,-13,1
14.992488,-4,-14,-19,-4,3,2,19,1,1
15.013321,10,6,4,-5,-9,-6,-9,8,1
15.013341,11,21,-4,4,9,2,47,16,1
15.015182,-20,-21,12,-3,-6,7,-5,-5,1
15.015188,7,15,-16,-7,-10,-4,-33,-11,1
17.045702,-5,-4,-2,-1,0,-1,1,-1,0
17.045871,-10,4,1,-2,2,0,0,-1,0
17.046616,32,3,-1,-2,0,-1,-1,0,0
17.046689,-11,-7,-3,-3,-2,-1,-2,-2,0
17.052928,0,3,-2,-1,1,-1,-1,-2,0
17.052966,-2,-3,-1,-1,-1,-3,-2,-1,0
17.054333,-9,4,-1,0,-3,0,-2,0,0
17.054338,3,2,-2,-1,1,-1,-1,0,0
17.076711,-2,-2,1,-1,0,-1,1,-1,0
17.076720,6,-12,-3,-1,-1,-2,0,-1,0
17.076723,-12,1,-3,-1,1,-1,0,-1,0
17.076726,5,-3,-2,-2,-2,-1,-3,0,0
17.098529,-7,-6,-1,-1,-1,1,-3,-1,0
17.098555,5,12,-1,1,0,1,0,0,0
17.100520,-3,-2,-1,0,-1,-2,0,0,0
17.100528,-2,-5,-2,-2,0,0,0,-2,0
17.112732,-4,5,1,-2,0,-1,-1,1,0
17.112748,-3,-1,-2,-2,-1,0,-1,-2,0
17.113325,-3,-3,-1,0,-1,-1,-1,-2,0
17.113335,9,2,-1,-2,-1,-1,1,-2,0
17.135510,2,-2,-2,0,-2,-1,0,1,0
17.135544,-4,0,-1,-1,-1,0,-1,-3,0
17.138357,-6,-2,0,-1,-1,-1,-1,1,0
17.138365,-1,2,1,0,1,-1,0,0,0
17.158663,3,-2,1,-2,-1,-2,-1,-1,0
17.158701,-3,1,-1,-1,0,-2,-1,0,0
17.159130,6,3,-1,0,-1,-1,0,1,0
17.159139,2,-1,0,0,-2,-2,-3,-2,0
17.172930,-1,-7,-2,0,-2,-2,-1,0,0
17.173056,-4,3,0,0,-1,0,-2,-2,0
17.173599,0,-2,-2,-2,-1,0,-2,-2,0
17.173625,-4,-1,0,-1,0,-1,1,1,0
17.195381,0,2,0,0,0,-2,-1,-3,0
17.195403,-10,-10,-1,-1,0,-2,-3,0,0
17.196618,-3,28,-2,0,0,0,1,0,0
17.196627,-4,-18,-4,-2,-1,-2,-1,-3,0
17.218263,0,6,-1,-1,-1,1,-1,-1,0
17.218285,9,-1,-1,-3,-1,1,0,-3,0
17.219079,-2,2,0,-2,-1,-1,-1,-1,0
17.219168,-4,5,1,-1,-2,-2,-2,1,0
17.232604,-1,-3,-2,-3,-1,0,-2,-1,0
17.232618,1,2,1,1,-1,1,1,-1,0
17.233319,7,-10,-1,0,-1,-3,0,0,0
17.233329,0,5,-3,-2,-1,-2,-1,-1,0
17.255559,-2,4,-3,-1,1,-3,0,-1,0
17.255576,-2,-5,-1,-3,0,-1,0,-1,0
17.258397,-5,-2,-2,-2,0,1,-1,-2,0
17.258408,-3,-3,0,0,-3,-1,-1,2,0
17.278711,2,8,0,0,0,0,-1,1,0
17.278718,-2,3,-1,0,0,0,-1,0,0
17.278994,3,-6,0,-2,-1,0,-2,-2,0
17.279007,-3,3,-1,-2,1,-1,0,-3,0
17.295743,2,-1,-3,-2,-1,-1,-2,-2,0
17.295751,21,-2,0,0,0,-2,-2,1,0
17.295754,-10,2,-3,-1,0,-1,-2,-4,0
17.295757,-1,-27,-2,-2,-3,-3,-3,1,0
17.315346,-3,-4,-2,-1,-2,1,-2,0,0
17.315365,0,1,0,0,-1,-1,-1,-1,0
17.315823,6,3,1,-1,-2,-2,-1,-1,0
17.315841,-4,9,-2,-1,0,0,0,-1,0
17.338422,-3,-5,-1,-1,1,-1,-1,0,0
17.338440,-6,0,-1,-2,-1,-3,-2,-2,0
17.340471,24,2,-2,-1,-2,-3,0,0,0
17.340483,-30,-16,-4,-2,-3,-1,-2,-7,0
17.352920,-8,-8,0,-1,1,-2,0,0,0
17.352952,2,7,-1,-2,-1,-1,-1,0,0
17.354493,-8,-6,-1,0,0,-2,-1,-1,0
17.354498,10,5,0,0,0,-1,0,1,0
17.375176,2,5,-3,-2,-1,-2,0,-1,0
17.375194,-3,0,-1,-1,-1,-1,0,1,0
17.377015,-6,-8,-2,-3,-3,-1,-2,-2,0
17.377027,-6,1,-1,-1,0,-1,-2,-2,0
17.398422,0,0,-3,-1,-2,-1,-1,-1,0
17.398446,2,0,-1,0,-1,0,0,-1,0
17.400340,0,-10,2,-1,-1,-1,-1,1,0
17.400354,3,32,0,-1,0,-2,1,-1,0
17.411991,-3,-23,-1,-2,0,-3,-2,-2,0
17.412016,-2,-3,-2,-3,1,-2,0,-1,0
17.421351,-1,-5,-1,0,-1,0,-1,-1,0
17.421363,-4,5,0,0,1,0,-1,1,0
17.436472,5,-1,0,-1,-1,-2,-3,-3,0
17.436480,-1,0,-1,0,-1,-1,-1,-1,0
17.436483,-12,-11,-2,-2,3,-1,-1,-2,0
17.436486,0,-6,-1,0,-2,-1,-1,1,0
17.458287,19,9,0,-2,-3,-1,-2,-1,0
17.458309,2,-8,0,-2,-1,-2,0,-3,0
17.459497,-2,5,1,-1,-1,-2,0,-2,0
17.459507,3,-2,0,-1,-1,-1,0,0,0
17.471926,-7,-4,-1,-3,0,1,-1,-1,0
17.471955,-5,6,0,0,0,-1,-1,-1,0
17.482031,6,3,-1,1,-1,-1,0,-1,0
17.482038,7,4,-5,-2,-1,-1,-1,-2,0
17.495096,-8,-9,1,2,0,-2,-1,0,0
17.495116,-1,-2,0,0,0,0,-2,1,0
17.496727,-4,1,-1,0,-2,0,-1,0,0
17.496734,-7,-6,1,-2,1,-2,-2,0,0
17.518688,0,3,-1,-2,0,0,0,-2,0
17.518721,-4,10,-2,1,-1,0,-1,0,0
17.520631,-10,-33,-4,-2,0,-2,-3,-3,0
17.520639,8,3,-1,-2,-1,-1,0,-1,0
17.531928,-4,4,-1,-1,0,1,-1,0,0
17.531951,-10,0,-1,0,-2,-1,0,0,0
17.540156,11,7,-2,-2,0,0,-1,-2,0
17.540285,5,-4,0,0,0,-2,-2,-2,0
17.555098,1,-3,-2,1,1,-3,0,-1,0
17.555116,0,-2,0,-2,0,0,0,-1,0
17.555978,-20,5,-1,-1,0,-1,0,1,0
17.555986,17,-3,2,-1,-2,0,0,0,0
17.578284,-40,5,-1,-1,-2,-1,-1,-1,0
17.578302,1,-7,-2,-2,-1,0,-1,0,0
17.578959,5,0,-1,0,-3,0,-1,-1,0
17.579017,5,-1,0,0,0,1,-1,0,0
17.592035,8,5,0,-1,-1,-1,0,-1,0
17.592060,-1,0,-1,-2,-3,-1,-1,0,0
17.600465,-2,4,-1,0,-2,-1,-1,-1,0
17.600489,-8,-9,-2,-1,-2,-1,-3,-2,0
17.615125,3,0,-1,0,-3,-2,-2,0,0
17.615142,1,0,-2,-1,-1,0,-1,-3,0
17.616639,3,-1,0,-2,0,0,-2,0,0
17.616645,-4,3,-1,-2,-1,0,0,-2,0
17.638861,-2,-1,-2,0,0,-2,0,-1,0
17.638889,3,-6,-2,-2,-2,-2,-3,-1,0
17.639397,-4,6,1,0,0,0,0,1,0
17.639415,-6,2,-1,1,-1,-2,-1,0,0
17.651855,9,-4,-1,-3,-1,0,-1,1,0
17.651872,-2,-1,0,-1,0,-2,-1,-2,0
17.660539,4,6,-1,0,0,-2,-2,-1,0
17.660574,-28,-8,0,-1,0,-2,-1,-4,0
17.675145,19,-6,-3,-2,-4,0,-2,-2,0
17.675166,3,-2,-2,-1,-1,-2,-1,-2,0
17.676838,-22,-5,-2,-2,-2,-1,-2,0,0
17.676846,5,-2,2,-1,-1,0,-1,1,0
17.698317,-5,4,0,0,1,-1,-1,-1,0
17.698329,-2,0,-2,-1,0,0,0,-1,0
17.698975,6,-1,-1,-1,-1,-2,-1,-2,0
17.699013,6,-4,-3,0,0,-1,-1,0,0
17.713288,-3,12,0,1,-1,-1,0,-1,0
17.713305,-3,-28,-1,-2,-1,-1,-3,0,0
17.720503,1,-2,0,-1,0,-1,0,-3,0
17.720531,5,5,-3,-1,1,0,-2,-3,0
17.735499,-11,2,-1,-1,-1,-1,-1,-2,0
17.735531,15,1,-1,-1,-2,-1,-2,-2,0
17.736927,-4,2,-1,-2,-2,0,2,-2,0
17.736933,12,-3,-2,-1,-2,-2,0,-1,0
17.758515,-8,-3,-2,0,0,-2,0,-1,0
17.758539,5,7,-2,1,0,0,0,1,0
17.761328,-13,-1,1,0,0,0,-1,1,0
17.761339,27,2,-2,-3,-2,-1,-3,-2,0
17.781022,-4,-6,1,0,0,-1,0,0,0
17.781045,8,3,-1,-1,-1,-1,-2,0,0
17.782056,-15,-9,-2,-2,0,-2,-2,-5,0
17.782071,-13,4,-1,-2,0,-1,0,1,0
17.795388,6,-3,0,-1,-3,-1,-1,-1,0
17.795406,-16,-1,1,1,-2,-1,-1,-3,0
17.795714,6,5,0,-1,-1,0,-1,1,0
17.795733,-6,-7,-1,0,0,0,-1,0,0
17.818569,1,-8,-1,0,0,0,-2,-1,0
17.818592,-2,27,0,0,1,1,0,0,0
17.820864,-2,-13,-3,-1,0,-1,-1,-1,0
17.820877,-1,-1,-1,-2,0,-1,-1,-4,0
17.840947,12,0,-1,-2,-1,0,-1,0,0
17.840966,-17,-1,-1,-3,-1,-2,0,-2,0
17.841638,10,5,0,-1,0,-1,-2,-2,0
17.841692,-20,-5,-1,-2,0,-1,-1,0,0
17.855196,-5,1,-1,0,0,-1,1,0,0
17.855217,3,0,0,-1,1,0,-2,0,0
17.855776,7,-9,-2,-2,-1,-2,0,-2,0
17.855794,-4,1,-2,-1,-2,-1,-2,0,0
17.878367,1,-5,-2,-1,-1,0,-1,-2,0
17.878386,-11,-4,-2,0,0,0,-1,0,0
17.879416,10,3,-1,0,-1,0,0,0,0
17.879422,0,3,0,0,-1,-1,-1,-1,0
17.900743,-6,-1,-1,-2,0,0,-2,-1,0
17.900757,2,-3,-3,-2,-1,-2,-2,-2,0
17.901462,3,-1,-2,-1,-1,-1,-1,-2,0
17.901499,4,0,0,-1,-1,-1,-1,-1,0
17.923485,-6,0,0,-1,0,-3,-1,-3,0
17.923515,1,-5,0,-1,-1,-3,0,0,0
17.925935,-4,4,-1,0,0,-1,-1,1,0
17.925951,2,1,0,0,-3,-1,-1,0,0
17.938432,0,-2,-1,0,0,0,-3,-1,0
17.938448,9,-2,1,-1,0,-2,0,0,0
17.940994,-33,-2,0,0,0,-1,0,0,0
17.941004,21,-4,-2,-1,-1,-1,-1,1,0
17.962951,20,14,-5,-3,-2,-2,-3,-2,0
17.962967,-4,-14,-2,-2,-2,0,1,-2,0
17.962970,6,3,-1,-2,-2,-1,-1,1,0
17.962973,-6,6,0,-1,0,0,0,1,0
17.975433,-5,4,0,-1,-1,-3,-1,2,0
17.975458,-3,2,0,-1,-1,1,-2,-1,0
17.977973,6,-1,0,-1,-1,-1,-1,0,0
17.977980,-6,2,0,0,-2,-2,-1,-2,0
17.998274,-1,-6,-2,-1,0,0,-1,-1,0
17.998293,-7,-4,-1,1,-2,0,-1,-1,0
17.999101,-1,0,-1,0,-1,-1,-2,0,0
17.999119,1,-4,-2,-1,-1,0,-1,-2,0
18.021112,-3,-2,-1,-1,-2,-2,-1,0,0
18.021144,-10,-3,-2,-1,0,-1,-1,-1,0
18.024034,8,3,0,-1,-1,-2,0,-3,0
18.024054,-17,-1,0,-3,0,-2,-2,1,0
18.035590,-5,-19,-3,-3,-2,0,-3,-2,0
18.035623,1,1,0,0,-1,0,-2,0,0
18.038116,10,5,-2,0,0,-3,-1,-3,0
18.038162,-7,-6,-2,-1,0,-2,0,0,0
18.058447,0,5,0,-2,0,0,0,0,0
18.058473,-3,2,0,-2,-1,-1,-1,1,0
18.059464,12,-1,-1,0,-1,1,0,-1,0
18.059591,-15,2,-1,1,1,2,2,-2,0
18.081049,-9,-4,-1,-1,0,-1,-2,-2,0
18.081066,18,1,-4,-2,0,-1,-1,-3,0
18.082436,0,-2,-1,0,-2,0,-1,-1,0
18.082444,7,-1,-2,-1,-3,-2,-2,0,0
18.095224,4,7,-1,0,0,-1,1,-1,0
18.095243,-12,-7,0,-1,-1,-1,-1,-1,0
18.096526,-2,-2,-1,-1,0,0,0,-2,0
18.096532,7,-1,-2,-1,0,-1,-2,-1,0
18.118789,-3,-3,0,0,-2,0,0,0,0
18.118813,12,5,0,-1,-1,-2,-1,0,0
18.118820,-13,3,-3,-1,1,-2,-1,-2,0
18.118827,-3,-5,0,0,-1,-1,-2,-2,0
18.141006,1,2,0,0,-2,0,0,-2,0
18.141027,-4,-8,-2,0,-1,0,-1,-2,0
18.142189,0,-1,-2,-1,-2,0,-1,1,0
18.142197,-6,1,-2,-2,-1,-2,-1,-1,0
18.155297,6,0,0,-1,-1,-1,1,1,0
18.155322,-13,4,-1,0,-2,-1,0,0,0
18.157501,-9,-4,0,-1,-2,-2,-1,1,0
18.157511,22,-1,0,-1,0,-1,0,-1,0
18.179373,-31,-6,-1,-1,-2,0,-4,-3,0
18.179380,9,4,-2,-2,-3,-1,-1,-1,0
18.179383,-6,-3,0,-1,-1,-2,-1,-2,0
18.179386,2,-5,-2,0,-1,0,0,-2,0
18.200813,2,4,-1,1,1,0,0,0,0
18.200837,-2,-7,1,1,2,-1,-1,-1,0
18.201489,7,17,-2,-2,-1,-3,-2,-4,0
18.201507,-9,-9,-1,-2,-1,1,-2,-2,0
18.215169,1,2,0,-1,-2,-1,0,-1,0
18.215187,-1,-2,-1,-2,-1,0,0,-1,0
18.215819,1,3,0,-1,0,-1,-1,1,0
18.215837,-2,4,0,-1,-1,0,-1,-1,0
18.238381,-1,-2,-1,-1,0,-2,-1,0,0
18.238405,10,10,-1,-1,-2,-3,-1,-1,0
18.240562,-16,-13,0,-3,-1,-1,1,1,0
18.240578,3,5,-1,-2,-3,-2,-1,-2,0
18.261691,6,-10,-1,-1,0,-2,-2,0,0
18.261715,-13,17,-1,-1,-1,-1,-1,0,0
18.262191,-2,-22,-1,0,-1,1,-2,-3,0
18.262209,0,-3,0,-1,-1,-1,-1,0,0
18.276295,2,4,0,-2,-1,-1,1,1,0
18.276310,1,-1,-4,0,-1,-1,-1,-1,0
18.276314,-2,1,-2,-1,0,1,-1,-2,0
18.276318,-7,-1,-2,0,-1,1,0,1,0
18.298494,7,-5,-1,-2,-1,0,-3,-2,0
18.298512,-6,-9,-1,0,0,-2,-1,-1,0
18.299435,2,2,-1,-2,-2,0,0,0,0
18.299441,-10,-4,0,-1,-1,-3,-2,-3,0
18.322938,-10,1,0,0,-2,-2,-1,-1,0
18.322951,10,-6,-1,-1,-1,-1,-1,-2,0
18.322954,2,2,-1,-2,-2,-1,-1,0,0
18.322957,11,4,0,-1,-1,0,-1,-1,0
18.334954,0,-1,-1,-1,1,-1,-1,0,0
18.334991,0,-8,2,-3,-2,-1,-1,-2,0
18.342714,-8,27,-1,-1,2,-1,-1,-2,0
18.342740,1,-16,-1,-2,0,-2,0,0,0
18.358603,9,3,-2,-3,0,0,0,-1,0
18.358623,-3,-4,-1,-1,-1,-1,-1,0,0
18.360127,-10,-2,-2,-1,0,0,-1,-1,0
18.360135,-9,3,-1,0,-1,-1,-2,-1,0
18.380848,9,2,0,0,-1,0,0,-3,0
18.380865,-3,1,1,-1,-2,0,-2,0,0
18.382549,7,-10,0,-2,-1,-2,-1,-2,0
18.382558,-2,0,-2,-1,-1,-2,-1,-2,0
18.394592,0,-9,-2,0,-1,-2,0,-2,0
18.394609,-12,7,-1,-2,-1,-1,-1,-2,0
18.403018,0,-16,-3,-2,0,-2,-4,-1,0
18.403050,-4,0,-1,-1,-1,-1,-1,-1,0
18.418219,-6,5,-2,-1,-2,-2,0,-1,0
18.418237,6,-6,-2,-1,-2,0,0,-1,0
18.418979,-2,-2,0,-1,-1,-1,-1,1,0
18.419018,1,5,-1,-1,-2,-1,-2,-1,0
18.441131,2,-5,-1,-1,-1,0,-1,-1,0
18.441157,7,2,-1,-2,0,-1,0,0,0
18.443240,2,-3,0,1,1,-1,-1,0,0
18.443248,-1,0,-1,-1,-1,0,-1,-1,0
18.455118,-3,1,0,0,-2,0,-1,-2,0
18.455160,0,-6,-2,-1,-2,1,-1,-1,0
18.462725,1,4,-1,-1,-1,-1,1,0,0
18.462745,0,-2,0,0,-1,0,0,-1,0
18.478536,-2,6,-1,-1,0,0,-3,-1,0
18.478545,-11,-23,-2,-1,0,-2,-2,-1,0
18.478949,-2,1,0,-1,-3,-1,-2,-2,0
18.478960,8,4,-1,-1,-1,-2,-1,-1,0
18.501018,-1,-6,-1,-2,-1,-1,-2,0,0
18.501037,0,7,-1,-1,0,0,-1,0,0
18.503092,11,-5,-2,-1,-1,-1,-1,-2,0
18.503100,-9,-7,-2,-1,1,-1,1,-2,0
18.514877,2,5,0,0,-1,-1,-1,-1,0
18.514910,-2,-4,-1,-2,-1,-1,-2,-2,0
18.525179,5,-1,0,-1,-2,-1,-1,0,0
18.525190,-4,2,-2,-1,0,0,-1,0,0
18.538249,-6,-3,-1,-2,0,0,-1,0,0
18.538266,3,7,0,0,-1,1,-1,0,0
18.540915,22,-2,-2,-1,1,1,0,-1,0
18.541048,-20,-3,-1,-2,-2,0,-2,-1,0
18.561018,-8,-3,-1,-2,-1,-2,-2,-2,0
18.561036,0,-2,0,-1,-2,-2,-2,-3,0
18.561439,2,3,3,-1,-1,0,-1,-1,0
18.561458,0,0,-1,0,-1,-1,-1,0,0
18.574536,7,-8,-1,-1,-1,0,-2,-1,0
18.574555,-8,0,-1,-1,-1,-1,1,1,0
18.582624,0,0,-2,1,0,-2,0,-2,0
18.582642,5,-4,0,0,-1,-1,0,0,0
18.599012,-4,3,0,-2,-1,-1,1,0,0
18.599046,2,1,-1,-1,0,0,-2,0,0
18.602061,-13,-1,-2,-1,-1,-2,-1,0,0
18.602072,-1,1,-1,-3,-1,-1,-2,-2,0
18.621125,3,-5,-3,1,-1,-1,0,-1,0
18.621141,0,5,-2,-1,1,0,-2,-1,0
18.621691,-4,-5,-1,-1,0,-2,0,-1,0
18.621780,1,2,-1,1,-1,-1,0,-2,0
18.634702,-6,0,-1,-2,0,-1,-3,1,0
18.634709,-3,-4,-1,-3,-1,-1,-1,-2,0
18.642700,3,-1,-1,-2,-1,1,-1,-3,0
18.642721,-24,-10,-1,-2,0,-2,-1,-2,0
18.657678,-4,-6,-1,-2,0,0,0,-1,0
18.657706,6,18,-1,-1,0,-1,1,0,0
18.659189,-6,-27,-2,-1,0,0,-2,0,0
18.659206,25,7,-2,-2,-1,0,-3,-2,0
18.681702,-28,-11,-1,0,-1,-2,-1,-1,0
18.681710,-8,-4,-1,-1,0,-1,-3,-1,0
18.681714,2,9,-1,-1,-3,0,-3,-3,0
18.681717,1,1,-2,-1,-1,-1,-1,0,0
18.703544,7,1,0,-1,0,-1,-1,-2,0
18.703569,0,-1,-3,0,1,-1,0,0,0
18.705091,-9,-1,0,0,1,1,-2,-1,0
18.705097,9,-1,-1,1,-1,-1,-2,0,0
18.718305,7,6,-1,-2,-2,-1,-1,1,0
18.718321,-3,-7,-1,-1,-3,-1,-1,-1,0
18.719115,0,2,-1,-3,-2,-1,-1,0,0
18.719121,-6,2,-1,0,-2,0,1,1,0
18.740887,3,-5,-3,0,-1,0,0,-3,0
18.740919,5,-2,-2,-1,-2,0,-1,-1,0
18.743289,-6,2,-2,0,0,0,1,-1,0
18.743307,4,3,-1,0,-1,-1,0,1,0
18.763312,-13,-3,-3,-1,-2,-1,-1,-3,0
18.763330,-4,-3,0,0,-1,0,-1,0,0
18.764065,0,4,0,-1,0,-2,-2,-1,0
18.766140,-2,3,-1,-3,0,0,-1,2,0
18.778602,24,2,-1,-1,-1,-1,0,0,0
18.778620,-6,-3,-1,0,0,-1,-2,-1,0
18.779146,-7,-4,-3,1,-1,-1,-3,0,0
18.779341,9,3,0,-2,-2,-2,-2,0,0
18.801429,-6,0,-1,-1,-2,-3,-1,0,0
18.801461,6,-2,0,-1,-1,0,-2,-2,0
18.803922,0,-1,-1,-1,-3,-1,-2,-1,0
18.803928,-5,-4,0,0,-1,-1,-2,-2,0
18.823264,-3,2,0,0,1,1,-1,-1,0
18.823283,-8,-5,-1,-1,-1,-2,0,0,0
18.824141,3,-1,-2,-1,1,-1,-1,0,0
18.824164,-3,16,-1,-2,0,-2,0,-1,0
18.837797,-2,-37,-2,-1,-3,-2,-1,-1,0
18.837824,9,2,-2,-3,0,0,-1,-2,0
18.838459,0,2,0,0,-1,-2,0,-1,0
18.838478,1,-3,-1,1,0,0,0,0,0
18.861210,-2,7,-1,0,-3,-1,-3,-2,0
18.861245,12,3,0,-2,0,-2,0,2,0
18.862552,-23,-7,-1,-2,-1,-1,-1,-2,0
18.862564,1,-7,-1,0,0,-1,-2,-2,0
18.883507,2,9,1,-1,0,0,1,0,0
18.883513,-9,0,-1,-1,0,0,-1,-1,0
18.884702,10,3,2,-1,-1,-1,0,-3,0
18.884720,1,-2,1,-1,-3,0,-1,0,0
18.898102,-20,1,-2,-2,1,-1,0,2,0
18.898110,2,-4,-2,-2,0,-1,-3,-3,0
18.908438,1,-2,-1,-1,-2,0,0,0,0
18.908448,1,9,-1,0,0,0,-2,-2,0
18.920956,-4,-24,-2,0,-2,-2,0,-1,0
18.920974,-4,-3,0,-1,-2,-1,-1,-1,0
18.922245,-1,4,-2,-1,-3,-1,0,1,0
18.922263,6,-9,-1,-1,0,1,-1,-3,0
18.943358,-11,15,-1,-1,-1,-1,-2,-3,0
18.943378,-1,-1,0,-1,0,-2,-1,-2,0
18.945588,-2,-5,-1,-1,-2,0,0,-2,0
18.945595,3,-2,-1,-2,-2,-1,-1,0,0
18.957387,9,10,1,-2,1,0,0,1,0
18.957419,-7,-3,0,0,-1,0,-1,-1,0
18.967631,3,4,0,-2,-1,0,-1,-1,0
18.967647,-8,-5,-2,-2,-2,-2,0,1,0
18.979836,25,4,0,0,0,0,-2,-2,0
18.979853,-20,-7,-1,-2,-1,0,0,-2,0
18.989078,-1,6,-2,-2,-1,-1,-1,2,0
18.989085,-3,-6,-2,1,-2,-1,-2,-2,0
19.003628,3,3,0,-1,-1,-1,0,1,0
19.003645,4,4,0,-1,-1,-1,1,0,0
19.004866,-2,1,-1,0,-1,0,-1,0,0
19.004877,-4,-5,0,-3,0,-1,-1,-2,0
19.017040,0,11,-1,0,-1,-2,-1,-1,0
19.017057,-2,-23,-2,-1,-2,0,-1,-1,0
19.033697,6,-3,-3,-1,-1,-1,-2,-1,0
19.033704,-8,-3,0,-1,-1,-1,-1,-2,0
19.041026,-3,-1,-1,0,-2,-1,0,-1,0
19.041051,-2,1,-2,0,-1,-2,-2,-1,0
19.042575,-1,0,-1,0,-1,-2,-1,1,0
19.042638,0,-10,-4,-1,-1,-2,-1,-2,0
19.063347,4,3,-1,-1,-2,-2,-2,-1,0
19.063363,8,2,-3,-1,-2,-2,-1,-2,0
19.064792,-6,-4,-1,-1,-1,0,0,0,0
19.064804,-1,5,0,1,-1,1,-1,-1,0
19.077143,-13,-6,-1,-2,0,-1,-2,0,0
19.077168,2,3,-2,-2,-2,-1,-1,0,0
19.086291,2,-3,-1,1,0,-1,-1,-2,0
19.086297,-1,-1,-1,0,-1,-1,1,-1,0
19.101024,5,-3,0,0,-1,-1,0,-1,0
19.101030,5,19,1,0,1,1,1,1,0
19.102206,1,1,-3,-1,-1,-1,-2,-3,0
19.102220,1,1,-2,-1,0,-1,0,0,0
19.123537,-3,-7,-2,-2,-1,-2,-1,-3,0
19.123566,-8,5,1,-1,-2,-1,-2,0,0
19.125053,5,0,-1,-1,-1,-2,0,-1,0
19.125060,0,-3,0,0,-2,-1,-1,1,0
19.137236,6,3,1,-2,-2,0,-1,-2,0
19.137253,-4,-3,0,-1,-2,-1,-1,-1,0
19.147523,-1,-2,0,-1,0,-1,-1,0,0
19.147535,1,-2,-2,-2,-1,-3,-2,2,0
19.163238,-30,-4,0,-1,-2,-1,0,-1,0
19.163249,14,0,-2,-2,-1,-2,-1,-1,0
19.163252,-11,-9,-1,-3,-1,0,-1,-1,0
19.163256,-11,-6,-3,-2,-2,-2,-2,-4,0
19.183272,4,2,-2,-1,-2,-1,0,0,0
19.183289,-1,-3,-2,0,-1,-1,0,-1,0
19.184698,-5,-1,-1,1,-1,-1,-2,-1,0
19.184725,5,6,0,-1,-2,-1,0,-1,0
19.196871,5,-1,1,-1,1,-1,-1,-1,0
19.196889,-5,-6,-2,-1,1,1,0,-1,0
19.206970,4,6,0,-1,0,-1,0,-1,0
19.206988,-18,-4,0,0,0,-1,-1,-1,0
19.221207,4,1,-1,0,-3,-1,-2,-1,0
19.221240,-4,-1,-2,-1,-1,-3,-1,-2,0
19.224568,2,-7,-1,0,0,1,-1,-1,0
19.224582,-4,4,0,-1,-1,0,-1,-1,0
19.243468,-9,-15,-2,0,-1,-2,-2,-3,0
19.243491,5,27,1,-1,0,-1,-1,0,0
19.244885,-13,-14,-2,-2,-3,-1,1,-3,0
19.244903,1,-2,-1,-1,0,0,0,-1,0
19.257961,-1,4,-2,-2,1,1,0,-2,0
19.257974,1,-1,1,0,-3,-1,0,1,0
19.266911,1,1,0,-3,-1,-1,-3,-1,0
19.266918,5,5,1,0,-1,0,-1,0,0
19.280837,6,-3,-2,-1,-1,-1,-2,-1,0
19.280855,-8,-12,-1,-1,-1,-2,-1,-2,0
19.282377,13,1,-1,0,-1,-1,-1,0,0
19.282384,-8,-3,-1,-2,-1,0,-2,-2,0
19.310949,2,1,-1,0,-1,-1,0,1,0
19.310966,7,-4,-1,-1,1,-2,1,-1,0
19.313234,-20,4,2,0,0,0,0,2,0
19.313240,18,-4,-5,-3,-1,-1,-1,-4,0
19.317251,1,2,-1,-1,0,-2,0,1,0
19.317278,-7,-3,-1,-1,-1,-1,-1,-2,0
19.327894,-4,-1,-1,0,-1,-1,0,0,0
19.327908,-2,5,0,-1,0,-1,-2,0,0
19.341031,-4,1,-2,0,-1,-1,-2,-1,0
19.342595,0,-6,-1,1,0,2,0,-1,0
19.342697,3,5,-2,-1,-1,-1,1,-1,0
19.342711,-2,-2,0,-1,0,-1,1,0,0
19.363329,15,-1,-1,-3,-1,-1,1,-3,0
19.363347,-19,-3,0,-1,0,-1,-2,-1,0
19.365574,10,-3,-1,-1,-1,-2,-1,-1,0
19.365582,-23,-11,1,-1,-1,0,-1,0,0
19.377014,0,10,0,-1,2,-1,-1,0,0
19.377032,-8,-27,-1,-1,-1,-1,-3,-2,0
19.387553,12,1,-1,-1,-1,-1,-1,-2,0
19.387559,13,-1,0,1,0,-1,0,1,0
19.400876,-11,5,0,2,-1,-1,-2,0,0
19.400949,3,8,-2,-1,-2,1,-3,-1,0
19.402487,-5,-1,-2,-1,0,-1,0,0,0
19.402500,-3,1,-1,-1,-2,-2,-1,-2,0
19.423619,3,-4,0,-1,-2,-1,-1,-2,0
19.423638,2,2,0,1,-2,-1,0,1,0
19.426167,-18,-6,-1,-1,-1,0,-3,-2,0
19.426183,2,2,-2,0,0,-1,-1,-2,0
19.436984,-6,-1,-1,-1,-1,0,-1,0,0
19.437000,6,-4,0,0,-1,-2,-2,-1,0
19.446301,9,2,-1,-1,-1,-2,0,-1,0
19.446308,10,12,-3,-3,-1,-2,0,-2,0
19.461314,-17,-8,0,-2,-2,1,0,0,0
19.461348,-8,-2,-2,-2,-1,-2,-1,-1,0
19.462442,0,-1,0,-1,-1,0,-2,-1,0
19.462458,2,3,0,2,-1,-1,-2,0,0
19.483741,11,1,0,-1,-2,-1,-1,-1,0
19.483757,4,1,-1,-2,-1,1,-2,-2,0
19.486039,-1,9,-1,1,0,-1,-1,1,0
19.486047,-9,-10,-1,-4,0,-2,-2,-2,0
19.497108,0,0,-1,0,-2,-2,-2,-1,0
19.497126,-4,0,1,-3,-3,-1,1,0,0
19.505798,3,-2,0,-3,0,-2,-1,-1,0
19.505822,-2,-2,1,1,-3,0,-1,1,0
19.522061,-5,-3,-3,-1,0,-1,-1,-1,0
19.522069,2,5,-2,-1,-1,-1,-1,0,0
19.522228,-7,-5,-1,-1,-2,0,-1,0,0
19.522236,8,-1,1,1,0,0,-1,0,0
19.543572,7,2,-1,-1,-2,0,-4,-2,0
19.543595,10,1,-1,1,1,-1,-1,-1,0
19.544822,-28,-14,-3,-2,-2,-1,-2,-3,0
19.544877,4,-6,-2,-2,-1,-1,-2,-1,0
19.557317,-6,-6,-2,0,-1,-1,0,-1,0
19.557351,9,2,1,-2,-2,-1,0,-1,0
19.567936,4,4,-1,0,-1,-1,-1,-1,0
19.567944,-7,-4,-2,1,0,-2,-2,-1,0
19.583735,-3,1,1,-2,0,-1,-1,0,0
19.583741,0,0,-1,0,-1,-1,-2,0,0
19.587111,1,0,0,-1,0,-1,-1,0,0
19.587135,12,7,0,-1,-3,-1,-2,-1,0
19.603245,-25,-8,-2,-1,-1,-2,-1,-1,0
19.603270,-6,-4,-3,0,1,0,0,1,0
19.606005,1,-2,1,0,-1,-1,-2,1,0
19.606013,5,1,-1,0,-1,0,-1,-1,0
19.617092,1,0,-2,-1,-2,-1,-2,-2,0
19.617171,-2,-4,-1,-2,0,-2,-1,-3,0
19.628243,1,1,-1,-1,-1,-1,-2,-1,0
19.628257,-6,-2,-1,-2,0,0,1,0,0
19.640956,11,1,-2,-1,0,0,0,0,0
19.642501,-14,0,-1,0,-1,0,-2,-2,0
19.642508,3,-5,-1,-1,0,-2,-1,-1,0
19.642511,-2,-3,-1,-2,-1,0,-1,-1,0
19.663293,3,4,0,-1,-1,-2,2,0,0
19.663311,-6,-8,0,-1,0,-1,0,-1,0
19.664943,11,14,1,-2,0,0,1,-1,0
19.664963,-9,-28,-3,-2,-2,-2,-1,-2,0
19.685936,-4,4,-1,0,-1,-2,-1,-1,0
19.685955,3,3,-1,-1,-1,0,-1,2,0
19.687433,7,4,0,0,-1,-3,-1,-1,0
19.687439,-20,1,-2,-2,-1,-1,0,-3,0
19.701505,10,0,1,-2,-1,0,0,-3,0
19.701538,-3,-2,-1,-1,-3,-2,-2,-1,0
19.703225,-3,-6,-2,-2,-1,-2,0,1,0
19.703231,13,5,0,0,0,1,-1,-2,0
19.723291,-4,-6,-2,-1,-1,-3,-1,-1,0
19.723312,3,4,-1,1,-1,-2,-1,0,0
19.724882,4,-3,-2,-2,-2,0,-1,-3,0
19.724901,-6,0,0,-2,-2,-2,-2,-1,0
19.745825,-7,2,0,-1,-2,0,0,0,0
19.745843,2,-13,-2,-2,-1,0,-1,-2,0
19.748393,0,1,0,-1,0,-1,0,-1,0
19.748401,-2,5,-1,-1,-1,-1,0,1,0
19.761143,1,-5,-1,0,0,-2,-3,-1,0
19.761225,1,7,-2,-1,-1,0,0,0,0
19.762830,0,-2,0,1,0,0,0,1,0
19.762836,-14,-3,1,0,0,-1,0,0,0
19.784661,12,2,-1,-1,-2,-1,-3,-2,0
19.784669,-1,-1,-2,-3,-2,0,0,-1,0
19.784780,-11,-3,0,-1,0,-1,-2,-1,0
19.784788,0,-2,-2,0,0,-1,0,1,0
19.806224,3,0,-1,-3,0,-2,0,-1,0
19.806250,-3,2,-1,0,1,-2,0,-1,0
19.809110,-1,-6,-3,-1,-4,0,-1,-2,0
19.809123,6,5,0,-2,-2,-1,-1,-1,0
19.820585,-7,-5,-1,-1,-1,0,0,1,0
19.820617,4,-2,-1,1,-3,-2,-1,-3,0
19.827264,-2,2,-2,-3,0,-2,-2,0,0
19.827300,0,-3,-3,-2,-1,-3,-2,-1,0
19.843481,-3,0,-1,0,-1,-1,1,-2,0
19.843507,-3,-1,-1,-2,-2,0,1,2,0
19.845260,11,1,-1,-2,-2,0,0,-3,0
19.845267,-8,-2,-1,0,-3,-2,-1,0,0
19.865967,5,-2,0,0,1,0,-1,0,0
19.865991,-10,-2,1,-3,-1,-2,-2,-1,0
19.867355,4,-2,0,0,-1,1,1,0,0
19.867373,3,0,-2,-2,-2,-1,-1,1,0
19.880191,-1,1,-1,1,-1,-2,-2,0,0
19.880217,-3,-1,-2,1,0,-1,-1,-2,0
19.886978,-8,-3,-1,-1,-1,0,0,-1,0
19.887003,6,5,-1,-1,0,0,-1,-2,0
19.903394,2,-5,-2,-4,-1,-1,-1,0,0
19.903410,3,-2,-2,-3,0,-2,-2,-1,0
19.905984,-5,-2,0,0,0,0,0,-2,0
19.905994,3,7,-1,-1,0,-2,-1,-1,0
19.925873,-3,-11,-1,-1,-2,0,0,-3,0
19.925894,4,3,0,0,-1,1,-1,0,0
19.927628,-6,-6,-1,-1,0,-3,-1,-1,0
19.927664,3,-5,-2,0,-2,-1,0,1,0
19.940250,4,7,0,1,-1,-2,1,-1,0
19.940269,-25,-6,-1,-2,-2,-1,-1,-3,0
19.947435,-4,-2,-1,-2,0,-1,-1,0,0
19.947454,3,2,-1,-1,0,0,-2,-1,0
19.963251,-7,-4,-1,0,0,-1,0,0,0
19.963267,15,6,-1,0,-2,-3,-2,1,0
19.965937,-12,-3,-1,-3,-1,-1,-2,-1,0
19.965944,4,-7,-1,-1,0,0,0,0,0
19.985856,-7,2,-1,-1,-1,0,-1,-1,0
19.985877,2,-2,0,0,-1,-1,-1,-1,0
19.987223,5,2,-1,-1,-1,-1,0,1,0
19.987233,-17,-1,-1,-1,0,-1,-1,-2,0
20.001645,7,0,0,0,0,-1,-1,-1,0
20.001654,6,1,-1,-2,-1,-1,0,0,0
20.007422,1,-2,-2,0,-2,-2,-1,-2,0
20.007456,-5,-3,0,-1,-1,-1,0,0,0
20.023621,-1,4,-2,-2,-2,-1,-1,0,0
20.023642,3,-7,0,-1,-1,-2,-1,-1,0
20.026169,-11,15,-1,0,0,0,0,-2,0
20.026197,2,-39,-1,-2,-1,0,-2,-2,0
22.048371,-6,73,1,-4,3,8,7,-3,1
22.048595,-6,-85,3,-1,-5,-6,-25,-10,1
22.050338,-4,6,-6,-6,-4,-5,-8,-7,1
22.050389,-6,2,-3,-3,0,3,14,6,1
22.070896,-3,-6,-4,0,-2,-5,-4,4,1
22.070920,-1,26,2,1,1,-9,-10,3,1
22.074021,5,-2,0,-1,5,9,23,0,1
22.074037,0,-7,1,-2,-3,0,-5,-8,1
22.085063,-2,-18,-3,-1,0,-1,3,-1,1
22.085088,-3,15,-2,-2,-3,2,-4,-1,1
22.094860,-1,-10,4,0,-4,-8,-15,-2,1
22.094874,0,8,-3,0,3,0,-6,-2,1
22.108331,2,-13,2,0,-5,-2,16,-1,1
22.108351,0,1,-2,-1,0,3,1,2,1
22.109996,0,18,1,0,0,-2,-8,2,1
22.110016,2,12,4,0,4,7,15,7,1
22.131520,-1,-20,0,-3,-7,-4,-17,-7,1
22.131545,1,-2,-1,2,0,2,-8,-3,1
22.133418,1,-5,-4,-1,1,-1,-12,3,1
22.133435,0,-1,3,-2,-1,-2,-5,-1,1
22.144497,-3,-12,-5,-3,0,4,11,1,1
22.144516,-1,13,-1,-1,0,1,5,-4,1
22.153306,0,-1,2,1,-1,-4,-13,-1,1
22.153317,0,1,-2,-2,0,5,45,1,1
22.169989,-2,-10,-6,-1,-2,-5,-50,0,1
22.169995,-2,19,8,-1,-1,-4,-9,-1,1
22.169999,0,-9,-10,1,1,-4,8,-1,1
22.170002,-2,5,2,-1,-6,-2,1,1,1
22.190851,-2,6,11,-1,0,6,18,-2,1
22.190883,1,-1,-10,0,0,0,5,7,1
22.193429,-2,0,4,-1,-1,-3,-4,-3,1
22.193447,-2,-14,-12,-1,3,-11,-47,-3,1
22.204545,4,-3,-11,-2,4,10,75,10,1
22.204571,-5,5,21,-3,-10,-2,-3,-17,1
22.213969,-2,0,-1,0,1,1,4,-1,1
22.213976,0,-6,0,1,-2,-2,-14,-6,1
22.228344,-1,1,-4,-2,1,-3,-4,2,1
22.228370,-2,0,-7,-2,1,-3,-8,5,1
22.230910,2,11,-7,-2,-4,-6,12,6,1
22.230920,3,48,11,0,4,6,-5,-3,1
22.250899,-10,-34,12,0,-1,-1,-14,-5,1
22.250915,1,0,-8,-1,0,-2,-3,-1,1
22.252339,0,-5,2,0,-1,3,-5,-4,1
22.252452,-3,1,-6,-2,-4,-6,32,6,1
22.264437,1,2,-7,-2,-2,-2,-34,-5,1
22.264457,-1,0,0,-1,1,0,-3,-1,1
22.274925,1,-7,-3,1,2,0,-1,-1,1
22.274932,-1,-10,-2,0,-4,-7,-21,-2,1
22.288485,7,3,-7,6,8,12,63,9,1
22.288509,-7,-2,14,-5,-6,0,8,-3,1
22.291156,0,5,1,0,0,-3,-7,-3,1
22.291166,-5,-3,-5,1,2,-8,-4,-1,1
22.310903,-3,-8,3,-3,-6,-3,-11,-6,1
22.310921,1,5,-8,-1,1,-3,-36,-4,1
22.317374,-2,-4,1,-2,-1,5,19,8,1
22.317389,2,-14,1,-2,-2,0,-8,-5,1
22.325677,-4,11,0,2,1,-8,-17,-2,1
22.325696,-1,3,-4,0,2,1,26,4,1
22.335444,1,-10,-1,-3,-4,-4,-27,-5,1
22.335452,-3,-13,-6,-1,3,3,6,-2,1
22.348819,2,-1,-2,-3,-5,-6,-8,-1,1
22.348851,3,11,5,2,1,1,7,0,1
22.350134,-6,-2,-6,0,0,0,7,4,1
22.350150,3,-27,-5,-3,-6,-5,7,-1,1
22.373339,4,22,-4,-2,1,4,-11,0,1
22.373353,1,10,17,0,-1,-1,-1,-1,1
22.373358,-1,-8,-5,-4,-1,-1,7,1,1
22.373361,-10,0,0,-3,-4,3,6,-4,1
22.384728,-1,-12,-4,-1,-5,-10,-14,-3,1
22.384752,1,-8,-10,3,4,-3,-36,-4,1
22.395346,2,21,5,-3,1,10,30,7,1
22.395356,-1,-19,1,-3,-2,0,-3,-13,1
22.408399,-3,0,-2,-3,-2,-1,27,10,1
22.408422,-4,6,-7,-3,-4,-3,-10,-4,1
22.410213,-1,-3,4,1,-3,-4,-4,-7,1
22.410234,-1,18,1,-1,-2,1,2,0,1
22.430786,-3,-15,-4,0,1,-3,-6,-7,1
22.430807,0,-13,-2,1,0,-5,-8,1,1
22.433051,-1,3,5,1,1,3,21,5,1
22.433067,2,6,-18,-3,1,10,20,2,1
22.444480,-4,2,9,0,-6,-2,-37,-11,1
22.444500,-2,-6,-5,1,-1,2,31,9,1
22.453663,-1,-2,-2,0,-1,-4,-17,-7,1
22.453676,1,-6,-3,0,2,0,4,4,1
22.468244,3,-5,-14,0,0,-8,-12,-4,1
22.468260,1,-36,15,-2,4,4,-15,2,1
22.469693,-14,-6,-5,-4,-8,1,24,-2,1
22.469711,1,9,2,-3,-4,-1,-5,-6,1
22.491055,-2,-12,4,-1,-2,2,14,6,1
22.491090,2,15,-13,0,-1,-11,-30,-20,1
22.492511,2,-1,-2,1,2,-3,-9,-1,1
22.492518,-3,-10,7,0,0,2,-3,5,1
22.513710,-2,17,-2,-1,0,-6,-15,-4,1
22.513734,-2,-1,-7,-1,1,3,21,5,1
22.514866,0,-2,3,-1,1,-6,-27,-3,1
22.514960,2,4,2,4,2,-2,22,1,1
22.528439,-6,2,1,-6,-2,15,31,2,1
22.528457,-4,-1,-16,-7,-6,-1,-21,-4,1
22.529828,0,2,10,1,-1,-3,-9,-4,1
22.529847,9,3,-3,-1,-3,-8,-24,-1,1
22.550731,-22,-7,0,1,2,-1,8,4,1
22.550747,-3,-10,-5,-3,-7,2,26,1,1
22.552210,1,7,-3,0,-1,-3,-15,-2,1
22.552266,0,0,2,1,-1,-1,-15,-3,1
22.574745,5,2,1,0,-2,-3,-3,-3,1
22.574760,0,3,-3,0,1,1,5,5,1
22.574867,0,-7,-1,1,-2,-3,-7,-4,1
22.574875,-3,5,4,-2,0,0,6,0,1
22.591110,1,-4,-1,-2,-1,-3,-4,-4,1
22.591126,-3,11,0,0,-1,-5,-7,-3,1
22.591130,5,-4,6,0,3,-2,-7,4,1
22.591133,-8,-14,1,-3,-2,7,5,-6,1
22.610735,0,2,0,-5,-5,-4,-21,-10,1
22.610751,-2,-9,-7,-2,-2,-3,-10,-7,1
22.612434,2,12,2,-1,-1,-1,0,0,1
22.612455,0,-1,-8,3,5,-2,-16,5,1
22.632720,3,-8,-14,0,2,-8,-37,-3,1
22.632753,-1,10,18,1,-4,9,65,4,1
22.641905,-3,-11,-8,-3,-2,-2,-14,5,1
22.641914,-4,-1,-1,-2,-3,-4,-1,-8,1
22.648379,6,-3,-2,2,0,0,-36,-1,1
22.648437,-2,-3,0,2,4,3,37,-1,1
22.654887,-3,-4,-4,-1,-3,2,7,-4,1
22.654913,1,2,0,-1,-2,-4,-2,2,1
22.670842,-1,0,1,-1,1,-1,6,1,1
22.670860,1,-6,-6,-1,-1,-6,-25,0,1
22.673531,9,26,-21,-5,-4,0,-10,-2,1
22.673548,-19,19,49,0,-1,5,32,0,1
22.693656,1,-3,-1,0,-2,-3,6,-10,1
22.693685,0,-3,4,-2,0,-2,-12,-4,1
22.695348,8,-7,-14,1,1,-4,24,3,1
22.695354,-5,4,-11,-1,1,1,-37,-3,1
22.707910,2,10,9,0,1,5,33,9,1
22.707934,-1,4,-6,-1,-6,0,6,1,1
22.714402,0,-12,1,-2,-2,-4,-5,-5,1
22.714418,5,-3,-4,0,0,6,16,6,1
22.730674,2,-1,7,2,-2,-4,-1,-2,1
22.730687,2,-10,-10,1,4,0,-26,6,1
22.732299,-7,-2,3,-2,-7,0,8,-9,1
22.732322,-1,5,8,-3,-6,-6,0,-3,1
22.753633,-1,4,-10,1,0,-4,-19,-6,1
22.753665,1,3,3,0,0,-6,3,7,1
22.756537,-6,-9,3,0,5,5,1,1,1
22.756549,1,-8,-15,-2,1,-3,-7,-4,1
22.767679,0,16,0,-2,-6,-3,9,3,1
22.767695,-4,-16,4,1,3,0,-6,-3,1
22.775187,-2,2,10,2,-1,-2,21,-2,1
22.775195,1,-14,-18,-6,-1,6,-18,7,1
22.791347,-8,13,11,1,-2,-4,-4,-5,1
22.791354,-2,2,-2,-2,-2,2,1,-5,1
22.792335,-2,3,-3,0,1,-6,-43,-16,1
22.792356,10,19,-35,-2,2,-3,35,6,1
22.813690,-1,-54,31,3,2,12,12,-7,1
22.813738,-11,4,2,-2,-5,2,1,6,1
22.815220,-1,-7,-6,-2,1,4,15,4,1
22.815237,-1,-8,10,2,0,-8,-11,-6,1
22.827796,-1,8,-27,-8,-7,1,-17,5,1
22.827814,7,5,-3,-1,1,-2,-5,-10,1
22.834945,-2,-12,12,0,-1,-1,-2,5,1
22.834978,-1,4,-11,-3,-3,-4,-18,-3,1
22.850727,2,7,0,2,2,0,34,2,1
22.850744,-3,-4,2,-2,0,1,0,-5,1
22.852274,0,8,0,-1,1,-4,-34,1,1
22.852311,1,-1,8,2,-2,-5,-15,-2,1
22.873358,1,-3,-7,-3,-1,1,29,8,1
22.873386,-3,2,7,-1,-1,-1,-7,-8,1
22.874948,7,5,0,5,7,1,-5,-1,1
22.874967,-1,-11,0,-2,-5,9,33,9,1
22.888130,-2,1,4,3,7,-2,-10,9,1
22.888151,-1,3,-7,-5,-11,-6,23,10,1
22.894581,-3,3,0,-3,-4,0,-21,-17,1
22.894598,-3,-6,8,-1,1,0,-3,-8,1
22.910844,-1,-5,-8,-2,-2,-2,-10,-2,1
22.910862,5,-3,-7,1,5,5,3,8,1
22.912464,1,11,-3,-1,0,-4,-7,3,1
22.912471,-12,4,6,-3,-2,-2,26,-2,1
22.933203,1,-45,-4,-1,-1,-3,-44,-16,1
22.933219,-3,30,7,2,0,-3,3,4,1
22.934763,-4,-15,-2,-1,-3,-4,-17,-5,1
22.934779,5,6,-2,1,6,15,24,4,1
22.947646,1,10,-6,-4,-6,-5,6,5,1
22.947661,1,-11,3,2,3,0,-11,-6,1
22.954586,0,0,-2,-1,-3,0,17,2,1
22.954611,-4,3,1,1,-2,-7,-11,1,1
22.970728,1,-5,-5,0,0,-2,3,-7,1
22.970744,-3,2,12,2,-1,-10,-35,-7,1
22.972230,-7,1,0,-3,-1,9,38,10,1
22.972240,4,-5,-3,-4,-11,-11,4,0,1
22.994152,-3,-11,-5,-4,2,8,-9,-9,1
22.994166,7,7,-5,-2,-2,1,47,8,1
22.994936,-7,-9,6,2,0,-5,-33,-5,1
22.994953,-16,14,5,-1,0,-2,-11,-6,1
23.007471,-1,5,0,0,-4,-8,-6,-4,1
23.007518,2,-2,-7,1,0,-3,-14,-3,1
23.017653,3,-7,0,1,2,2,25,6,1
23.017660,5,-5,3,-1,-1,-2,-16,2,1
23.030812,-1,12,1,0,-2,-3,4,-1,1
23.030832,-3,-3,-5,-2,0,2,-11,-5,1
23.033347,1,-7,-4,0,-3,-3,7,0,1
23.033354,3,-22,-7,2,2,-5,-21,-10,1
23.055602,-4,21,13,-3,-4,-1,0,2,1
23.055609,-2,-23,1,1,0,6,1,7,1
23.055613,0,4,-9,-2,-2,-2,-11,-2,1
23.055661,4,-11,-9,-3,0,0,-2,-6,1
23.067344,1,8,-4,0,1,2,8,-1,1
23.067379,-3,1,-7,-3,-3,-5,-23,2,1
23.077548,-5,0,3,1,1,1,33,-1,1
23.077567,0,6,1,3,4,-2,-7,2,1
23.091237,0,0,-3,-1,-2,-1,-2,-6,1
23.093962,0,4,1,-1,-5,-11,-30,-8,1
23.093974,-1,-9,-4,-5,-1,8,25,-2,1
23.093978,2,9,-1,-4,-6,-3,7,3,1
23.113709,-3,-4,-2,-2,0,2,-1,-3,1
23.113726,3,-11,-2,1,-1,1,10,-11,1
23.115663,-5,6,5,3,3,0,3,4,1
23.115677,-2,-6,0,-1,0,-1,-9,2,1
23.127374,0,1,-5,0,-1,-3,-9,-1,1
23.127421,-4,4,-7,-3,0,0,2,-4,1
23.137649,3,-18,-17,-3,-2,-4,-7,1,1
23.137657,-1,54,32,-1,-1,1,-7,-4,1
23.150796,3,-14,1,3,1,1,-1,12,1
23.150812,-5,-41,-8,-3,-2,-1,16,1,1
23.152237,0,17,-7,-2,-2,-7,4,-9,1
23.152251,5,18,-20,-1,5,0,8,-3,1
23.173462,-9,-11,20,1,-6,-4,2,1,1
23.173492,0,13,0,-1,-4,-6,-18,0,1
23.175070,-5,-11,1,-4,-5,0,14,7,1
23.175079,-3,-11,-11,1,1,0,-30,-9,1
23.195767,-3,8,-4,1,3,-1,14,-2,1
23.195784,1,0,-2,2,2,1,-24,-1,1
23.197296,3,9,3,-1,-1,-8,-23,-4,1
23.197313,-3,-6,5,3,7,3,22,8,1
23.211062,-4,-3,-10,-7,-12,-4,-4,-14,1
23.211070,-2,9,-4,-6,-6,3,18,5,1
23.212303,0,-10,-2,-1,-1,-1,-19,-6,1
23.212393,-3,-10,7,-1,-4,-1,1,-2,1
23.233299,2,2,3,5,5,-4,-2,4,1
23.233317,0,13,-8,-1,0,-7,-15,-7,1
23.234753,1,-45,3,2,2,8,15,2,1
23.234767,-5,-8,-2,-2,-1,0,-15,3,1
23.246961,-1,27,-1,0,0,2,15,2,1
23.246985,-2,1,2,-2,-2,-4,-14,-5,1
23.257835,0,3,12,0,0,-4,-14,0,1
23.257848,-1,-14,-5,0,-3,-1,-4,-3,1
23.270912,8,-7,-4,-2,0,-1,-3,0,1
23.270928,-3,24,-3,-1,2,6,9,4,1
23.273693,-2,-5,2,2,0,2,-2,-5,1
23.273709,-1,-10,-6,-3,-3,-4,15,-2,1
23.293643,-1,7,-1,-4,-5,-5,-28,-5,1
23.293694,-4,-9,2,1,3,1,19,1,1
23.294867,-3,11,-2,-1,2,-1,-2,0,1
23.294886,0,-7,-1,-4,-7,-5,-12,-4,1
23.307123,0,-4,-5,3,2,3,17,4,1
23.307150,3,-11,2,2,0,-5,-13,-5,1
23.316035,-1,2,-7,-3,-3,0,-6,0,1
23.316041,-3,12,3,-1,-3,-5,5,-4,1
23.330866,4,-33,-22,1,7,-14,-43,6,1
23.330883,-9,24,29,-4,-6,19,33,1,1
23.333303,-3,11,-1,-3,-2,-3,-8,-16,1
23.333311,1,-12,-7,1,-1,1,6,2,1
23.353379,-2,-3,-4,-4,-5,-5,-18,-6,1
23.353399,4,-16,-11,2,7,-4,-2,6,1
23.354776,-1,5,0,-2,-3,-3,1,4,1
23.354813,-3,-6,-3,1,-2,0,-11,-3,1
23.369118,-1,0,2,0,1,3,33,0,1
23.369126,-4,-4,-6,-2,0,-5,1,-1,1
23.377393,9,61,-13,2,2,-8,-8,-3,1
23.377404,-4,-43,32,3,-6,6,13,14,1
23.390847,-8,-20,-1,-5,-3,3,2,-6,1
23.390869,6,2,-6,0,-2,-2,3,-4,1
23.393135,-4,-10,2,-1,-4,-4,-16,0,1
23.393158,9,20,-20,0,5,-1,-7,1,1
23.414355,-2,12,3,-2,-2,0,6,-1,1
23.414363,0,-11,9,-4,-3,-2,-6,-4,1
23.414758,0,-3,-10,0,5,-3,2,4,1
23.414767,-2,3,-3,-5,-4,-2,7,-1,1
23.436178,2,0,8,1,1,7,16,3,1
23.436197,-1,-13,-12,-1,5,-1,-2,-5,1
23.437622,-3,19,13,-4,-7,4,21,-4,1
23.437629,-3,-3,-5,-2,-2,0,-7,-4,1
23.450674,-1,2,4,-1,-2,-1,1,-2,1
23.450698,-1,4,-4,0,0,-5,-11,4,1
23.452215,-3,-15,2,1,-1,0,-2,5,1
23.452233,-5,-4,0,-3,-6,-2,-2,-10,1
23.473444,3,13,-7,2,2,-7,-17,-1,1
23.473466,1,1,1,-3,-3,3,13,4,1
23.474910,-3,-21,-4,-2,-1,2,19,4,1
23.474922,2,-11,-8,-2,3,-6,-40,-8,1
23.495873,-9,34,16,4,1,-2,-13,7,1
23.495890,-2,-1,-5,-1,1,3,15,-7,1
23.497302,5,2,8,2,0,-2,2,-2,1
23.497319,-2,-11,-10,-2,0,-6,0,2,1
23.510964,1,28,-15,-3,-2,-2,3,-9,1
23.510993,-1,-42,27,0,-2,-1,-16,-3,1
23.512364,-9,-14,-13,-2,-2,-2,-10,-1,1
23.512381,0,-7,-8,0,-1,-4,-9,-6,1
23.533261,-2,7,9,1,0,3,16,8,1
23.533285,-1,14,-13,-1,0,-1,-3,-6,1
23.534844,2,-2,0,-3,-7,-1,-3,3,1
23.534869,3,4,6,0,1,2,1,-1,1
23.555831,-1,-17,-7,-2,-1,1,9,-2,1
23.555848,3,8,-3,0,2,-4,-4,0,1
23.557500,-5,-6,7,3,4,-4,-24,1,1
23.557583,3,8,-3,-4,-4,0,8,-2,1
23.571081,0,-17,-10,-6,-4,2,-1,3,1
23.571090,-2,-1,-6,0,0,-3,-15,4,1
23.572223,-5,35,12,-1,-3,3,-11,-5,1
23.572235,-2,-7,10,4,-1,-1,-12,-6,1
23.593685,-3,-13,-1,-1,1,2,4,-5,1
23.593725,-6,-2,-3,1,-4,-15,-40,-8,1
23.595243,5,-1,-12,-2,4,11,43,18,1
23.595259,-5,-21,-1,-2,0,4,10,-4,1
23.617417,3,-12,3,-2,-3,-5,-17,-6,1
23.617424,-9,1,-3,0,-1,3,18,2,1
23.617428,3,3,-3,-1,1,-8,-12,-5,1
23.617431,4,-2,-3,-2,-5,1,10,8,1
23.630206,2,19,6,1,2,-2,-8,0,1
23.630224,-4,1,-2,-3,-4,4,19,-1,1
23.637050,0,-4,2,-1,1,-1,-1,-2,1
23.637075,-2,3,0,-1,0,-3,-8,1,1
23.653875,-5,-15,-9,-1,-3,-6,-20,-13,1
23.653891,3,-4,-3,2,4,-3,9,6,1
23.656116,-2,56,12,-2,-2,10,-18,-4,1
23.656136,-4,-38,4,-1,2,5,62,1,1
23.676017,0,-1,-1,0,-4,-2,-21,3,1
23.676040,5,-14,-14,-1,4,-5,-31,-3,1
23.677986,-4,17,6,2,1,-4,21,2,1
23.677994,-1,16,-1,-4,-8,-2,-37,2,1
23.690618,-4,-5,-8,-2,-2,0,7,-11,1
23.690638,-2,-4,2,-2,-6,-1,-5,-4,1
23.704365,3,-27,-10,0,3,-6,-9,-8,1
23.704383,1,18,-2,1,3,-2,-8,7,1
23.713396,-4,-5,4,-1,-1,0,11,4,1
23.713413,0,8,-3,-1,-2,0,4,4,1
23.714950,-1,-16,-1,-2,-2,-4,-4,-2,1
23.714965,-2,11,1,0,0,-1,-2,1,1
23.735913,-1,-9,-2,-3,-1,0,7,6,1
23.735939,-1,15,10,5,3,1,15,-5,1
23.737249,0,-23,-8,-5,-6,1,-4,3,1
23.737255,-2,13,-7,-3,-1,-2,-2,-4,1
23.750222,2,24,12,5,3,5,28,2,1
23.750242,-4,-5,0,-5,-4,-3,-9,-4,1
23.757455,-5,-15,1,-2,-7,-8,-15,-10,1
23.757748,-1,-6,-13,-2,2,-3,-6,3,1
23.775530,4,-3,-1,2,2,-1,-27,-8,1
23.775543,-1,5,1,-1,0,6,37,-1,1
23.775547,-1,-13,-3,-2,-6,-3,-2,0,1
23.775550,1,5,-4,-1,-2,-4,2,-3,1
23.796130,-5,-4,-1,-2,-2,-1,-8,1,1
23.796157,0,-7,1,0,0,0,-2,2,1
23.797399,-5,-7,1,1,2,-2,-5,-4,1
23.797421,-4,13,6,-2,1,1,7,-5,1
23.810367,4,0,-1,-3,-3,-4,-14,3,1
23.810402,0,-3,-3,1,-3,-4,-13,-1,1
23.816902,1,33,-13,-4,1,7,51,11,1
23.816918,-8,-13,19,3,-1,-1,-19,-11,1
23.833439,-2,1,5,-1,1,0,5,-7,1
23.833456,1,-8,-5,-4,-6,-6,-22,1,1
23.835966,6,-4,-12,2,1,1,1,5,1
23.835973,0,3,3,0,1,2,10,2,1
23.856364,-2,-4,-8,-4,-1,-2,-2,-4,1
23.856411,1,15,0,0,0,1,2,0,1
23.857511,3,-15,5,2,3,-3,-17,-2,1
23.857530,-2,4,-8,-2,-5,2,2,4,1
23.870248,-3,-12,3,-1,1,-1,-3,-2,1
23.870273,0,-2,-2,-2,0,-2,7,1,1
23.877041,0,5,4,0,4,1,-17,-1,1
23.877059,-6,3,-3,0,4,-2,4,-5,1
23.893718,3,1,-7,-4,-8,-7,-24,-1,1
23.893755,-6,-1,3,-1,-1,3,21,-3,1
23.895525,-1,-19,-1,1,-2,-8,9,4,1
23.895533,1,8,-9,-4,-2,0,5,-1,1
23.915986,0,21,-8,-2,3,5,7,1,1
23.915999,-10,4,27,1,-4,-1,-26,-3,1
23.917462,1,-10,-3,-2,-1,-4,-13,-8,1
23.917480,-5,-12,-6,-1,-2,-1,-2,-6,1
23.929485,2,5,-9,-1,-3,-4,-1,2,1
23.929499,5,-1,-5,0,-1,0,2,3,1
23.940709,-1,3,3,-1,-3,-1,0,-2,1
23.940720,5,8,-4,-1,1,-2,-7,4,1
23.953571,-2,-15,2,2,1,2,14,3,1
23.953603,1,-3,-5,-1,-1,1,1,-1,1
23.955006,-3,-3,3,-2,-3,-1,-2,-1,1
23.955012,1,-5,-3,0,1,-5,-20,-2,1
23.976109,-3,-7,2,-2,-4,0,0,-3,1
23.976119,-1,0,4,0,2,4,40,4,1
23.976123,-2,-3,-7,-4,-5,-8,-32,-17,1
23.976126,2,3,4,1,-2,-6,-1,4,1
23.997719,-5,-24,0,0,3,6,-6,2,1
23.997738,-3,13,-7,-6,-4,-1,11,3,1
23.998942,-1,-7,-6,-1,-1,0,-35,-3,1
23.998948,0,4,10,-1,-3,-2,11,-7,1
24.012765,-2,16,8,1,3,-4,-2,-2,1
24.012796,0,-8,-6,-1,-3,-3,-8,2,1
24.013583,1,-15,-2,-1,1,4,22,2,1
24.013588,1,-11,-5,-1,0,-3,-16,2,1
24.035152,0,2,-3,-2,-4,0,3,0,1
24.035181,3,-13,-3,0,0,1,-9,-5,1
24.036375,-3,25,0,-1,0,-2,4,-2,1
24.036383,-2,-2,13,0,1,-1,-1,0,1
24.057723,-2,-6,-9,-1,-1,-1,15,-1,1
24.057747,5,61,-10,-3,0,-6,-14,-4,1
24.059126,-4,-40,22,3,1,10,29,8,1
24.059206,-5,8,-2,-3,-8,0,0,-1,1
24.072648,3,-18,-6,-3,-2,0,6,1,1
24.072675,-3,9,-2,1,-5,-6,-25,-4,1
24.073567,5,4,-7,6,7,-6,-19,-3,1
24.073597,-6,-7,-20,-11,-6,13,62,8,1
24.095571,-5,20,17,-2,-6,1,8,-3,1
24.095614,4,-21,-5,-2,-5,-3,-7,-6,1
24.096491,-2,8,4,-1,0,-1,28,2,1
24.096498,-2,-22,-10,1,2,-6,-50,-8,1
24.117787,2,-1,-3,-1,0,-2,7,6,1
24.117817,-3,-8,5,-2,1,5,-4,0,1
24.118374,-5,-9,-8,-2,-2,-4,-2,-6,1
24.118391,4,12,3,3,1,0,3,1,1
24.132683,0,-2,-1,-2,-3,0,11,3,1
24.132709,-2,-10,2,0,1,-1,-10,-2,1
24.133978,-2,7,-1,-1,-3,3,7,3,1
24.133985,0,7,-1,-1,0,0,-4,-4,1
24.155255,-3,-10,-4,-2,-2,-5,-10,-2,1
24.155286,-2,-10,0,0,0,0,2,-1,1
24.156437,-2,-10,-17,-2,-3,-16,-53,-2,1
24.156446,-3,34,20,-5,-9,12,62,2,1
24.177784,-2,-8,-5,0,0,-3,-5,-3,1
24.177804,3,3,2,-1,-1,4,24,2,1
24.178493,1,-4,-8,-4,-6,-6,-47,-6,1
24.178517,3,3,-2,7,9,-8,-4,-2,1
24.194651,-4,-17,-3,-2,-1,3,-1,6,1
24.194698,-6,-10,-5,-4,-8,-5,-22,-13,1
24.194706,2,6,5,-1,-3,4,13,-7,1
24.194713,-1,-13,-6,0,1,-4,-19,-2,1
24.215402,0,11,3,-1,0,-1,2,-7,1
24.215428,1,-2,0,3,2,-2,1,8,1
24.216673,-1,-1,3,-3,-2,4,20,4,1
24.216683,-4,7,-2,-2,0,-5,-19,-1,1
24.238927,1,-19,-5,1,1,-4,-3,2,1
24.238934,-5,-1,-7,-2,0,-3,-3,-9,1
24.238938,-1,35,21,-2,-4,5,25,-3,1
24.238941,-1,-15,-8,-3,0,-2,-1,4,1
24.252833,1,9,5,-1,-2,-1,-8,-5,1
24.252858,1,-25,-5,0,4,-1,-23,1,1
24.254723,2,5,-13,-2,1,0,23,0,1
24.254730,-2,-15,9,2,1,1,-14,5,1
24.275162,-3,-9,4,0,-3,-4,-13,-11,1
24.275188,0,5,-1,-3,-1,3,-1,0,1
24.276374,2,-10,-2,1,-2,-2,-7,2,1
24.276382,3,6,-6,0,1,1,4,6,1
24.297745,0,5,-4,0,3,-1,0,-1,1
24.297773,-2,1,7,1,-3,-4,1,0,1
24.298845,-4,19,0,1,3,1,-6,-2,1
24.298852,1,-45,-13,-4,1,-1,-14,-1,1
24.312784,-7,43,16,-2,-6,5,17,0,1
24.312809,3,1,-3,-1,3,5,5,-3,1
24.313803,-4,-11,-2,-1,-3,-5,-1,5,1
24.313810,4,4,1,-2,-1,-2,-16,-9,1
24.335235,-5,-15,-8,-1,0,-2,7,-1,1
24.335259,-1,7,3,1,0,-5,-19,1,1
24.335873,-5,-13,-5,0,0,2,23,-3,1
24.335920,0,2,-6,-4,-1,-1,-7,-6,1
24.358220,2,-1,4,0,1,1,18,7,1
24.358261,-4,5,-1,-4,-3,-5,-19,-7,1
24.359713,0,-2,8,0,0,-3,-9,-3,1
24.359724,-6,1,-2,-1,-4,1,11,-4,1
24.372840,0,-10,-10,1,-1,0,0,2,1
24.372867,-2,-1,-5,-1,0,0,9,6,1
24.374152,1,-1,-1,-3,0,6,17,9,1
24.374161,-1,6,2,1,1,-4,-20,-7,1
24.396472,1,6,0,-2,-2,-4,8,2,1
24.396479,1,-19,-4,1,4,5,19,1,1
24.396483,-4,37,-4,-6,-9,-1,-10,-2,1
24.396486,-3,-30,2,-1,0,-6,5,6,1
24.417659,-1,17,0,-2,-1,1,-15,-7,1
24.417686,0,4,8,2,-2,-3,7,0,1
24.418218,-4,-3,-2,-1,0,-3,-21,-11,1
24.418237,1,2,-3,0,0,-1,58,5,1
24.432659,-2,-14,-4,-2,-3,-1,-37,-2,1
24.432684,-2,-2,-5,-3,-1,1,8,-2,1
24.433200,2,2,-3,0,-2,-3,4,-1,1
24.433220,-1,-20,7,2,-1,-1,-28,2,1
24.455188,2,-3,0,1,1,-1,3,-4,1
24.455210,-1,7,-3,-2,-3,1,12,3,1
24.456152,3,-19,3,0,0,-3,-26,-1,1
24.456160,-2,8,-5,1,1,4,30,-3,1
24.477595,2,2,-5,-3,0,-4,-16,-3,1
24.477623,-5,-2,4,-1,-7,-4,-17,-5,1
24.478200,0,-7,-6,-4,-2,1,41,7,1
24.478226,0,11,-2,-2,-5,-4,-25,-10,1
24.492611,-1,-3,-3,1,3,0,-6,-2,1
24.492629,5,-23,-4,-3,-1,1,12,0,1
24.493754,-6,14,0,-1,0,-3,-5,3,1
24.493794,4,19,8,2,0,-2,-19,-8,1
24.515323,-1,-19,-20,-6,-4,-5,44,6,1
24.515348,-2,20,20,-2,2,5,-27,-6,1
24.516572,0,-13,0,2,-3,0,3,0,1
24.516579,0,0,-2,-1,-2,0,-10,0,1
24.538295,4,46,-1,-1,-1,-2,-1,1,1
24.538304,-2,-32,-2,2,-2,0,23,4,1
24.538308,0,-12,-2,-1,-1,-2,-8,-3,1
24.538382,-5,6,0,-1,0,-3,1,2,1
24.554094,2,-2,2,1,1,1,12,2,1
24.554106,-2,-5,-13,-4,1,-1,-25,3,1
24.554113,3,18,8,5,0,1,-9,-6,1
24.554172,2,-7,-8,-8,-6,5,25,6,1
24.575156,-2,-8,4,-1,0,2,-10,-7,1
24.575178,-5,1,-1,-1,-1,-5,-3,0,1
24.576931,-2,-13,-7,0,4,0,-10,-6,1
24.576938,-2,4,-4,-2,-4,-2,18,10,1
24.597884,-3,-26,1,0,-2,-2,-4,-5,1
24.597909,1,33,-2,-1,0,-3,9,-2,1
24.600533,-1,-21,-8,-2,-5,-4,-30,-3,1
24.600541,-5,-3,17,1,-4,-1,21,-7,1
24.612740,-5,-14,-2,-2,-2,4,5,7,1
24.612761,6,12,5,1,-2,-4,0,-1,1
24.613957,-9,-1,-3,-1,2,-1,6,1,1
24.613967,4,-2,-6,1,1,-4,-18,-2,1
24.635180,2,-12,-10,1,5,2,-29,-8,1
24.635226,0,16,18,-3,-4,8,32,8,1
24.635903,-3,8,1,-4,-1,-2,13,2,1
24.635912,-7,-2,-3,0,-2,-2,-20,-7,1
24.657714,-1,-3,-3,-1,1,-5,-1,-1,1
24.657736,0,-6,-12,1,2,-2,-4,-3,1
24.659708,5,24,5,1,4,1,-1,7,1
24.659720,-3,-64,-5,0,1,4,14,-2,1
24.673315,-6,8,8,-4,-2,3,-8,-2,1
24.673352,-2,-1,-8,-3,-5,-8,-9,-2,1
24.674956,-1,-16,3,0,-1,0,9,0,1
24.674963,3,29,-8,1,3,-3,-25,-4,1
24.695429,-1,-1,5,3,1,-2,-2,-1,1
24.695444,-2,-8,2,5,6,-12,-23,-5,1
24.695826,1,25,-18,-9,-10,13,5,3,1
24.695841,-16,13,8,-5,-8,-2,9,1,1
24.717774,5,-9,0,-2,-4,-1,1,3,1
24.717800,-2,-4,-6,-1,-1,1,3,-1,1
24.719124,2,-26,-4,3,4,-11,-19,-6,1
24.719130,4,10,0,-1,4,2,-2,0,1
24.732768,-3,1,5,0,-3,-1,5,0,1
24.732784,-1,-9,-9,-2,-1,-1,-9,-6,1
24.733350,1,15,2,2,4,2,20,0,1
24.733368,-1,-19,4,-2,-1,0,0,1,1
24.757945,-1,12,-3,-1,0,-4,-3,0,1
24.757953,0,-4,-3,-1,-1,-3,12,0,1
24.757957,0,7,7,2,2,10,4,6,1
24.757960,-4,13,-2,0,-2,-4,-7,-2,1
24.777645,8,40,-13,3,2,-17,-51,-10,1
24.777662,-8,-24,17,-2,2,28,79,21,1
24.778575,-1,-20,-4,-6,-6,-6,3,-1,1
24.778581,3,-3,-6,1,2,-4,-10,-1,1
24.793104,-2,1,1,-2,-2,3,5,0,1
24.794420,1,6,-6,1,-1,-9,-25,-6,1
24.794432,5,-6,1,1,1,-6,-6,-2,1
24.794436,-5,4,1,0,-1,4,-1,3,1
24.815495,-3,-4,2,2,3,-1,5,-6,1
24.815527,1,-2,-3,-2,-5,-2,1,5,1
24.818251,-6,-22,-7,-1,1,0,-6,3,1
24.818272,0,18,2,0,1,0,0,-5,1
24.837545,-1,-3,4,-1,-3,1,3,-3,1
24.837558,-4,-1,-4,-2,-2,-4,-15,-8,1
24.838385,0,-9,-14,-2,-6,-15,-20,-8,1
24.838402,4,30,12,3,9,10,-16,4,1
24.852880,-14,-8,8,-6,-5,6,24,2,1
24.852906,-2,-6,-15,-3,-3,-1,-7,-3,1
24.853847,-4,-14,4,1,-1,-3,-5,-2,1
24.853853,4,-4,-14,1,0,-6,-11,-1,1
24.875224,4,-4,0,0,2,-1,1,0,1
24.875249,-1,7,3,1,-5,-2,-9,-7,1
24.876255,1,7,2,-1,0,-3,-2,1,1
24.876262,-4,-13,-2,-2,-3,-2,21,-1,1
24.897487,-3,7,-1,-2,-3,-2,-2,-1,1
24.897499,3,9,3,-2,-1,-3,-2,2,1
24.898233,-2,-19,2,-1,0,-2,-4,-10,1
24.898245,9,-10,0,-1,-7,-1,4,3,1
24.912810,-9,-6,8,0,1,-4,-9,1,1
24.912828,0,10,-5,0,2,-2,-2,5,1
24.914555,1,7,4,-1,0,1,4,-6,1
24.914563,1,7,2,-3,0,-2,-5,-3,1
24.935221,-1,-13,-12,-3,-4,2,10,3,1
24.935247,3,-3,3,2,1,-2,-9,-3,1
24.936834,2,-18,0,-2,-1,0,-1,0,1
24.936841,-5,-6,-7,-3,-1,-4,2,-3,1
24.959809,4,-9,-12,-1,-1,0,2,0,1
24.959817,-4,8,12,-1,3,-3,-17,-7,1
24.959820,-2,5,0,2,-1,-1,8,7,1
24.959823,-2,-12,-9,-2,1,0,4,-7,1
24.972019,-1,-3,5,-3,-5,1,4,-4,1
24.972043,-1,1,-11,-3,0,1,12,-2,1
24.980772,-4,0,-2,-3,-5,-4,-21,-1,1
24.980796,-1,3,5,1,2,2,30,3,1
24.995211,0,-5,-7,0,4,5,0,5,1
24.995231,0,-6,3,-1,0,2,3,-1,1
24.995808,1,11,7,0,4,1,3,1,1
24.995820,1,-9,-1,0,-1,-4,-18,0,1
25.017612,-2,1,-1,-1,-1,-3,0,-1,1
25.017628,-4,27,3,-3,-4,-3,-3,-1,1
25.018414,1,-15,1,-1,-5,-1,-2,-1,1
25.018420,-10,7,-6,0,0,-1,2,2,1
25.032228,4,-4,13,2,-1,-2,-9,1,1
25.032255,-4,-13,-3,-1,1,-4,-16,-4,1
25.040316,-1,18,-4,-3,2,5,-15,-1,1
25.040343,4,-38,-5,-3,-5,0,5,-5,1
27.057326,7,-2,1,-3,-2,-1,1,0,0
27.058051,-7,4,0,-1,-1,-2,0,1,0
27.066933,10,-2,-1,0,0,-2,0,1,0
27.067007,-2,3,-1,0,-1,0,-2,-1,0
27.080969,-9,-10,-1,1,-1,-1,-1,-1,0
27.080992,4,0,0,-2,-2,-1,0,-2,0
27.083076,3,-10,1,0,-2,-2,-1,-1,0
27.083085,2,12,-3,-1,-2,-1,-1,-1,0
27.103427,-14,-31,-1,0,2,0,-2,-3,0
27.103476,-4,0,-1,0,1,1,-2,-1,0
27.104720,17,4,-2,-2,0,-2,0,-2,0
27.106235,2,9,2,0,0,0,-1,0,0
27.116958,-6,-12,-4,-3,-4,0,-2,-5,0
27.116973,-1,5,0,0,0,0,0,0,0
27.127489,5,-3,-1,-2,-1,-1,0,-3,0
27.127501,-9,-3,-1,1,-1,-2,-1,0,0
27.140760,5,7,1,0,-2,-2,-2,1,0
27.140780,0,-9,-3,0,1,-3,-1,-1,0
27.142768,-1,12,0,0,-1,-1,-2,0,0
27.142775,2,-17,-3,-3,-2,0,-1,-2,0
27.163222,3,0,0,-2,-1,-1,0,1,0
27.163239,1,1,-1,-2,-2,0,1,-3,0
27.164765,-7,-5,-2,0,0,0,-1,1,0
27.164780,4,2,1,1,-1,0,0,-2,0
27.176906,-4,0,-2,0,0,-1,1,-1,0
27.176922,5,1,-1,-2,-1,-2,-1,0,0
27.187800,-16,0,-1,-2,-1,-1,-1,0,0
27.187809,11,-8,-2,-1,-3,0,-1,-2,0
27.200893,13,10,0,-1,0,-1,-1,0,0
27.200912,-12,-2,0,0,0,-1,1,0,0
27.202229,-4,-2,-1,-2,-2,0,-1,-2,0
27.202239,3,-8,-3,-2,0,-2,-2,-2,0
27.225157,-1,-4,1,0,0,-1,0,0,0
27.225164,9,20,1,1,0,1,-1,1,0
27.225167,-12,-24,-2,-1,-1,-1,-1,-1,0
27.225170,18,-5,0,0,-1,0,-1,-1,0
27.245972,-24,-1,-3,-2,-2,-2,-2,-3,0
27.245989,-1,0,-2,-2,-2,-1,0,-2,0
27.247602,3,8,-1,-1,2,0,0,-2,0
27.247611,4,4,0,0,-1,-1,0,0,0
27.260773,0,-3,0,0,1,0,-1,-1,0
27.260790,-6,-7,-2,-2,-1,0,-1,-2,0
27.262322,-1,-4,0,-1,1,-1,-2,0,0
27.262337,-13,21,-4,-2,-1,-2,-2,-2,0
27.284828,-17,-18,-2,-3,-2,-4,-2,-2,0
27.284841,-1,-7,-1,-1,0,0,-1,0,0
27.284849,2,0,0,0,-1,-2,-1,-1,0
27.284856,-6,5,1,-1,1,-2,0,0,0
27.306711,5,7,-1,0,-2,-2,-1,-1,0
27.306737,-1,-6,0,-2,-1,-1,0,-1,0
27.309384,-4,-1,-2,0,-2,-2,0,-2,0
27.309398,-2,-6,-1,-1,-1,-1,-1,0,0
27.321214,4,3,0,-1,0,-1,-2,-1,0
27.321242,1,-5,-2,-1,-2,-3,-1,0,0
27.322418,-3,5,0,-1,-1,1,0,-1,0
27.322435,-2,-3,-3,-1,-3,0,-3,0,0
27.343405,-1,-4,0,-1,0,-1,0,0,0
27.343423,-3,4,0,-1,-1,-1,-2,0,0
27.344749,8,1,-1,0,-1,-1,-1,0,0
27.344759,-5,-6,-1,0,-1,-1,-2,-1,0
27.365958,-1,3,1,0,0,-1,1,-1,0
27.365980,8,-3,0,-2,-2,-3,-1,-3,0
27.367397,-35,8,-3,-2,-2,-2,-2,-4,0
27.367522,6,-30,-1,-2,-1,-2,0,1,0
27.380112,7,-5,-1,-1,0,0,-1,-2,0
27.380128,0,-1,0,0,0,-1,0,-1,0
27.387222,3,7,-2,-1,-1,-1,0,0,0
27.387239,-6,16,-2,-2,-1,-2,0,-1,0
27.403451,-3,4,-2,-2,-2,-1,-1,-1,0
27.403483,2,-5,-1,1,0,-1,-2,-2,0
27.404874,2,-2,0,0,-2,0,-1,-1,0
27.404880,-2,-9,-2,-1,-1,1,0,-2,0
27.426661,0,19,-1,-2,-2,0,0,2,0
27.426698,0,-13,-2,-1,-3,0,-2,-3,0
27.427534,13,12,-1,-2,1,-1,-2,-1,0
27.427560,-31,-5,-1,-1,1,-1,-1,-4,0
27.442533,3,5,0,-1,-1,-2,-1,-1,0
27.442545,14,-1,-1,0,-2,-1,-1,1,0
27.447442,-18,-7,-1,-1,-1,-1,-1,-2,0
27.447487,11,4,0,-1,-2,-1,-1,0,0
27.463292,-2,-6,-1,-2,-2,-2,-1,-1,0
27.463309,0,8,-2,-2,-2,-1,1,-1,0
27.465354,24,-6,0,0,-1,-1,0,1,0
27.465362,-34,8,-4,-1,-2,-1,0,-2,0
27.487068,-15,-11,-1,0,-1,-1,-1,-1,0
27.487081,12,15,0,-2,-2,0,-1,0,0
27.487254,-7,-11,-1,-1,-1,-3,-3,1,0
27.487289,17,4,3,2,1,-1,1,1,0
27.500279,-3,7,-4,-2,-2,-1,-1,-2,0
27.500304,-5,3,-2,-1,0,-2,-4,-2,0
27.507151,3,3,-1,-1,0,-1,0,1,0
27.507180,5,-2,0,-1,-2,0,-2,-1,0
27.523494,1,-11,0,1,1,-1,0,-2,0
27.523516,-6,17,0,-2,1,1,0,0,0
27.525261,-3,-23,-3,-1,-1,-1,0,-2,0
27.525274,3,1,0,-1,1,-1,1,0,0
27.545693,12,-8,1,0,-1,0,0,-1,0
27.545711,-31,-5,-3,-1,0,-1,-2,-3,0
27.548307,6,4,-2,0,-1,-2,-2,-2,0
27.548327,1,-3,0,-2,-1,-2,-1,-1,0
27.560441,6,3,0,1,-1,-1,-1,1,0
27.560480,-1,-5,1,0,-1,-2,-2,0,0
27.567016,3,1,-1,-1,0,-1,0,0,0
27.567082,-3,-3,-1,-3,0,-2,-2,-1,0
27.583325,6,-4,-2,-1,-1,-1,-1,0,0
27.583341,-3,3,-2,0,-3,-1,0,-2,0
27.584726,11,-23,-3,0,-1,-1,-1,-3,0
27.584736,0,3,0,0,-2,-1,-1,0,0
27.606170,-3,3,1,0,-2,0,-1,0,0
27.606208,2,-2,1,-3,0,0,-2,0,0
27.609102,-9,7,0,-2,-2,0,-2,-1,0
27.609124,7,3,0,0,-2,-1,-2,0,0
27.620319,5,-7,0,-1,-2,-1,1,-1,0
27.620344,1,-8,0,-2,0,0,1,-1,0
27.627171,-3,7,0,-1,-2,-1,-2,-2,0
27.627202,2,-7,-1,0,-1,-2,0,-1,0
27.643347,-2,7,-1,-1,-1,-1,-1,0,0
27.643371,-2,-2,-1,0,-1,-1,-2,0,0
27.644780,4,7,1,-1,0,-1,-1,1,0
27.644797,-8,-8,-3,-1,-1,-1,-2,-2,0
27.666149,-21,-2,-1,-2,-1,-2,-5,-5,0
27.666166,10,-19,-6,-2,-2,-2,-1,-2,0
27.668463,-4,-1,1,0,-2,-2,-1,-1,0
27.668470,5,4,0,-1,-2,-1,-2,1,0
27.680274,-9,-2,-1,0,0,0,0,-1,0
27.680294,6,4,0,-1,0,0,-2,1,0
27.687273,-8,4,-2,-2,-1,0,-1,-1,0
27.687295,1,-3,1,1,-2,-1,1,-3,0
27.705235,2,0,-1,0,-1,-2,-1,-1,0
27.705242,0,1,0,1,-2,-3,0,-1,0
27.705246,9,-8,-2,-1,-1,1,2,2,0
27.705249,-15,5,1,-1,0,-1,-1,-2,0
27.726321,29,-2,-3,-2,-2,-2,-1,-1,0
27.726380,-13,-4,-1,-1,0,0,-1,-1,0
27.728651,-2,3,-1,1,-1,0,-2,-4,0
27.728657,-2,-5,-2,-1,-1,0,-2,-1,0
27.739863,3,6,-1,-1,-1,0,0,0,0
27.739895,-1,0,-1,0,-1,-1,-2,-1,0
27.749101,-4,-1,-1,-2,-1,-2,-1,-1,0
27.749108,9,7,-2,-2,0,1,-2,-2,0
27.763269,-1,-1,-1,-1,-2,-2,-1,-3,0
27.763286,-23,-7,1,0,-2,-1,0,0,0
27.764816,5,1,0,-1,-2,-1,0,-2,0
27.764827,-4,4,-2,-1,-3,-2,-2,0,0
27.786094,-3,-24,-2,-1,-1,0,1,0,0
27.786123,2,0,0,-1,-1,-2,0,-1,0
27.787236,-2,4,0,0,0,-1,-2,-3,0
27.787246,-1,-5,0,-1,-1,-1,1,-1,0
27.799360,-6,4,0,-1,-1,0,1,1,0
27.799402,0,5,-2,0,-1,0,-1,-2,0
27.810507,-7,-2,-2,-2,-3,-3,-2,-1,0
27.810518,7,0,-1,-1,-2,-2,-2,-2,0
27.823548,-8,0,-1,-1,0,-2,-3,-2,0
27.823585,1,-1,-1,-2,-1,-1,-3,-1,0
27.825745,-2,4,-2,0,-1,0,1,-3,0
27.825757,7,-5,-1,0,0,0,0,1,0
27.845970,-3,4,-2,-1,0,-1,-2,-2,0
27.846010,-11,-13,-2,-1,0,0,-1,-3,0
27.847265,1,2,-1,0,-1,0,0,0,0
27.847279,0,-3,0,-1,-2,-2,0,-1,0
27.860538,0,21,0,2,0,1,0,0,0
27.860551,9,-21,-2,-4,-1,-1,-1,-2,0
27.869307,-7,-4,-3,-3,-3,-2,-1,-1,0
27.869314,1,-2,-1,-2,-3,-2,-1,1,0
27.883327,-3,2,0,-1,-3,-2,-2,0,0
27.883344,-2,12,-3,-1,-2,-3,1,-1,0
27.884747,-2,-2,0,0,0,-1,-1,2,0
27.884790,-11,-12,-3,-3,-1,0,-2,-5,0
27.907687,-5,-11,-2,-1,-2,-1,-1,2,0
27.907694,-16,27,0,0,-1,-1,0,0,0
27.912088,4,-16,-2,0,0,-1,-1,-2,0
27.912107,-14,4,0,-2,-1,-1,0,0,0
27.919546,4,-4,-1,-1,0,0,0,1,0
27.919571,7,6,0,0,0,-1,-1,0,0
27.928432,0,9,-1,-1,-1,-1,-1,-1,0
27.928510,3,-2,-2,-1,1,-2,-2,0,0
27.943369,-2,-1,1,-2,-2,-1,-2,-2,0
27.943389,6,-4,-1,-2,-1,-1,-1,0,0
27.945817,-3,-1,1,0,-2,-1,-3,-1,0
27.945825,7,-2,-1,0,-1,0,-1,-2,0
27.966279,-8,-2,-2,-2,-1,0,0,-2,0
27.966312,12,-11,-1,0,-2,-1,-2,-1,0
27.969319,-3,13,-2,-2,0,-1,0,-1,0
27.969328,-4,1,0,-1,-1,-1,0,-1,0
27.979415,11,5,-1,-1,0,-1,-1,0,0
27.979433,-19,-5,-2,-3,-1,-1,-1,-3,0
27.990131,1,-2,-2,-2,-1,0,0,0,0
27.990168,4,0,-2,1,0,-2,-1,-1,0
28.003565,4,-5,-1,-2,-2,0,-2,-3,0
28.003594,2,3,0,0,-2,-1,0,-1,0
28.004722,6,-2,0,-1,0,-2,-1,0,0
28.004734,-12,-3,0,-1,-1,-1,-1,-2,0
28.026088,-3,-9,-3,-3,-2,-2,0,-3,0
28.026129,6,1,-3,0,0,0,-3,-1,0
28.027769,-7,1,0,0,-2,1,-2,0,0
28.027779,7,-7,0,-1,-1,0,-2,-1,0
28.039769,13,11,1,-1,0,0,-1,1,0
28.039804,-13,0,-2,-3,-3,-2,-1,-2,0
28.050316,6,-7,0,-1,-1,-2,-3,0,0
28.050324,-6,6,-1,0,-1,-1,0,0,0
28.065140,-5,-3,0,1,-1,-1,0,-2,0
28.065147,20,0,-1,-1,1,-2,-1,-1,0
28.065151,-23,-4,0,-1,-1,0,0,0,0
28.065196,14,6,-3,0,-1,0,-2,-3,0
28.085879,-12,-34,-3,-1,-1,-1,-1,-1,0
28.085900,8,-2,0,1,-2,-3,0,1,0
28.087419,5,8,0,-1,-1,-2,0,-1,0
28.087426,6,-3,0,-1,-1,-2,0,-1,0
28.099586,-5,12,-1,0,-3,-1,-1,-1,0
28.099603,-6,-2,0,-2,-2,-1,-1,-1,0
28.109031,8,-7,-3,-2,-1,0,-3,-1,0
28.109049,-4,0,0,-2,0,0,-3,-1,0
28.125216,-6,3,0,1,0,0,-1,-2,0
28.125227,-7,-1,1,-1,1,1,-1,-1,0
28.125231,12,1,-1,0,0,-2,1,0,0
28.125234,-12,8,-1,0,-2,-4,-1,0,0
28.146043,-10,-22,-2,-4,0,-2,0,0,0
28.146060,-3,-1,-1,-2,-1,0,-1,-2,0
28.148488,2,0,-1,-2,-2,-1,1,-2,0
28.148495,4,5,1,0,0,0,-1,-1,0
28.159790,-1,12,1,0,-1,-2,-1,-1,0
28.159831,-17,-9,-2,-1,-1,0,-2,-1,0
28.170258,2,-5,-4,-2,-1,-1,-2,-1,0
28.170264,8,-6,-2,-1,-1,-1,-1,-1,0
28.183148,-8,4,-1,-2,-2,-1,-3,-1,0
28.183165,7,-5,0,1,0,1,0,-1,0
28.192538,-7,23,0,-2,1,-2,0,0,0
28.192548,21,-26,-2,-2,-3,-2,1,-1,0
28.206290,-9,5,-1,-1,-2,-2,0,-1,0
28.206326,11,4,-1,-2,-2,-1,-1,0,0
28.209246,-13,-3,1,0,-1,-1,0,-1,0
28.209262,1,7,0,0,-1,-3,-1,0,0
28.228386,6,-1,0,-1,0,1,0,1,0
28.228404,2,0,-1,1,-1,0,-1,0,0
28.229820,-1,-6,-1,0,0,0,-2,-1,0
28.229834,-10,4,-1,0,-1,0,-1,-1,0
28.243387,4,-4,-2,1,-3,-2,-3,-3,0
28.243406,-3,4,0,-1,-3,-1,0,0,0
28.244792,-5,-8,-1,-2,-2,-1,0,0,0
28.244804,-13,4,0,-1,-1,1,0,1,0
28.265835,0,-1,1,1,1,-2,-2,0,0
28.265848,10,-4,-2,-1,-1,-2,-1,-2,0
28.267266,3,-8,2,0,-2,-2,0,-1,0
28.267285,5,5,0,0,-1,-1,-1,1,0
28.288526,-26,4,-1,0,-2,0,0,-1,0
28.288558,-8,-2,0,-1,0,1,-1,0,0
28.291389,3,2,-2,-3,-3,-1,-1,0,0
28.291398,0,0,0,0,-1,0,-1,-1,0
28.303314,9,-5,-1,0,-1,-1,1,1,0
28.303330,1,18,-3,-3,-1,-2,-3,-1,0
28.305500,-14,-20,-2,-1,0,0,-1,-2,0
28.305507,0,-1,-1,0,0,0,-2,-2,0
28.327714,3,0,0,-2,-2,0,-1,-1,0
28.327733,2,7,-1,-1,0,-1,-2,1,0
28.327738,9,7,-2,-1,-2,-2,-1,-2,0
28.327741,-10,-7,-2,-2,-1,0,0,-1,0
28.348914,9,7,0,-1,-1,-1,-1,1,0
28.348933,-18,-21,-5,-3,-2,-4,-2,-4,0
28.350810,-3,-6,-1,-1,0,-1,-1,-2,0
28.350816,-5,-5,0,0,-1,-2,-2,-3,0
28.362699,9,7,-1,-1,-4,-2,-1,0,0
28.362717,0,-2,1,0,-2,0,1,-2,0
28.369553,-3,-2,-3,-1,0,-1,-2,-1,0
28.369578,6,2,-1,-1,-1,0,0,-1,0
28.386064,2,-1,-2,-1,0,-1,-2,-2,0
28.386096,5,-2,0,0,0,0,-2,0,0
28.389121,-3,2,-1,1,-1,1,0,-2,0
28.389132,0,3,-1,-1,-1,0,-1,1,0
28.408324,-3,2,-1,-2,-1,-1,-1,-1,0
28.408344,6,-7,-1,-1,0,0,-1,-2,0
28.409912,4,-2,-1,-2,0,-2,-1,-3,0
28.409933,-2,2,-2,-1,-1,-3,-2,0,0
28.422705,-6,-6,-1,-1,0,0,0,0,0
28.422732,-4,9,2,0,0,-1,1,2,0
28.429419,4,6,-3,-2,-2,-1,0,0,0
28.429438,-5,-6,-2,-2,-1,-2,-1,0,0
28.446243,3,3,1,-1,1,-2,-3,0,0
28.446285,6,3,1,1,-1,-2,-1,-1,0
28.448991,-11,-20,-1,-1,0,1,-1,-1,0
28.448999,6,-8,-1,0,-2,-2,-3,-2,0
28.468563,-25,0,-2,-2,-1,0,-1,-2,0
28.468571,22,-2,1,-2,0,1,-1,-1,0
28.469708,1,7,-1,-2,-2,-1,-1,0,0
28.469720,-3,5,0,-1,-2,-1,0,-1,0
28.483801,6,-6,0,-2,0,-1,0,-1,0
28.483808,-10,1,-1,-2,-2,-2,-3,-1,0
28.489827,-1,5,-1,1,-1,-1,-1,1,0
28.489850,17,-5,0,-1,-2,-1,-1,-2,0
28.506255,-22,21,-3,0,-2,-2,0,-1,0
28.506288,-10,-11,-2,-2,-2,-1,-1,-2,0
28.509332,0,3,-1,-3,-1,-1,-1,-2,0
28.509348,0,-4,0,-1,-1,-2,0,-2,0
28.528300,6,0,-1,-1,-2,-1,0,-2,0
28.528319,8,4,1,1,0,-1,0,2,0
28.530752,-37,-5,0,0,0,-1,-1,-4,0
28.530758,14,5,-2,-1,-2,0,-2,0,0
28.542663,0,-12,-1,-2,-2,-1,-2,-2,0
28.542682,-6,-2,0,0,0,1,-1,-1,0
28.549598,9,-3,0,1,-1,-1,0,2,0
28.549615,-14,17,0,0,-2,-2,0,0,0
28.566028,11,-9,0,-1,-1,0,-2,-2,0
28.566045,-5,-1,-1,-1,-2,-1,-1,-2,0
28.567682,1,1,0,-1,0,-1,-1,-1,0
28.567726,-13,2,-2,-1,-1,0,-2,-3,0
28.588528,9,-3,-4,-2,-2,-2,-1,-1,0
28.590893,-10,-1,-2,1,-1,0,-1,-1,0
28.590902,8,3,-1,-2,-2,-1,0,0,0
28.590906,-9,-6,-1,-1,-2,-2,-1,0,0
28.602963,7,-8,0,-1,0,0,-1,2,0
28.602981,-7,14,-3,-1,-2,-2,-1,-2,0
28.609526,-1,-14,-1,0,0,0,-2,-1,0
28.609551,-2,-5,0,-2,0,0,-2,-1,0
28.625782,-3,-1,1,-1,-1,-1,-2,-2,0
28.625809,2,5,0,-1,-1,-1,-1,-1,0
28.627524,5,6,-2,-1,-2,-1,1,0,0
28.627569,-7,-2,-1,-1,-2,0,1,-2,0
28.648334,25,6,1,0,-2,-1,0,0,0
28.649254,-30,-14,-2,-1,-1,-2,-2,-2,0
28.649783,-5,-6,-2,-1,-1,-4,-1,-4,0
28.649795,3,-11,0,-1,-1,-2,-2,0,0
28.662637,1,-6,-2,0,0,-1,0,-2,0
28.662656,2,23,1,-1,0,-2,0,0,0
28.669662,10,-23,-1,0,1,0,0,-2,0
28.669687,2,4,-3,-2,-2,-2,-1,-2,0
28.685658,5,2,0,0,0,-1,-1,-2,0
28.685668,4,-5,1,1,-1,0,0,-1,0
28.687220,-14,9,2,-1,0,1,-2,-1,0
28.687238,-6,-10,-3,-2,-1,-2,0,-1,0
28.708469,-5,-2,0,1,-2,-1,-1,-2,0
28.708490,2,-7,-2,-2,-1,0,-1,-2,0
28.710506,5,7,-2,-1,-2,-1,-2,0,0
28.710519,-5,-8,-3,-1,-2,0,-3,-1,0
28.722242,-8,-1,0,-3,-2,-1,-1,-2,0
28.722267,4,-8,1,1,-2,0,-2,-1,0
28.732579,0,3,1,0,0,0,1,1,0
28.732588,-3,4,-2,0,-1,-2,1,-1,0
28.748916,-6,-1,-1,-1,-2,-1,0,0,0
28.748923,4,-7,-1,0,0,-2,-1,0,0
28.748927,-8,13,-1,-2,0,-1,-2,-2,0
28.748930,10,2,0,0,-1,0,0,0,0
28.768499,15,-6,-5,-3,0,-1,-2,-1,0
28.768524,1,-6,-1,-2,-2,-1,-1,-2,0
28.769857,1,8,-2,-2,-1,-1,-1,1,0
28.769873,-7,0,1,0,-1,-1,1,0,0
28.781995,-5,1,0,0,-1,1,-1,0,0
28.782014,6,-2,1,0,-2,-2,0,0,0
28.793127,2,13,-1,-1,-2,0,-3,-2,0
28.793158,-3,-1,-1,-1,1,-3,-1,-1,0
28.806332,-7,-4,0,0,1,-2,-2,0,0
28.806377,-7,-6,-2,0,-2,-2,0,-1,0
28.809453,0,1,0,-1,-1,1,0,-1,0
28.809462,1,-1,-1,-1,-1,0,-2,-2,0
28.828391,-7,5,0,0,-2,-1,0,-2,0
28.828410,-3,-1,-2,-3,-1,-2,-1,0,0
28.829778,13,-4,1,0,-1,-1,0,1,0
28.829795,1,-5,-4,-4,0,-2,-1,-4,0
28.841988,0,-2,-1,-2,0,-1,0,1,0
28.842002,-2,6,-2,-2,-1,-1,0,-2,0
28.851208,2,-8,-1,-2,-2,-2,-1,-1,0
28.851215,6,-3,1,-1,-1,0,1,0,0
28.865756,-7,1,0,-1,-2,-1,-1,-1,0
28.865775,5,-1,-1,-2,-1,-1,-3,0,0
28.867292,-7,-6,-1,1,0,-1,-3,0,0
28.867305,-2,18,1,0,-1,-1,1,0,0
28.889537,-9,-32,-3,-2,0,-1,-1,-2,0
28.889552,-3,-3,-1,0,1,-1,-3,-2,0
28.889967,9,-3,-1,-1,-1,-1,-1,-1,0
28.889990,-12,-2,0,0,-1,0,-1,1,0
28.902060,-5,5,0,0,-1,-1,0,0,0
28.902085,1,-2,-2,0,-1,0,0,-1,0
28.912181,4,-3,-1,-2,-1,-2,-1,0,0
28.912187,-5,-8,0,-1,-1,-1,-2,0,0
28.926115,-3,7,-1,-2,-2,0,0,-1,0
28.926149,-6,-4,-2,1,-2,-1,0,-1,0
28.928706,-1,4,-1,0,-1,-1,-2,0,0
28.928719,8,1,-1,0,0,-1,-1,0,0
28.948334,-26,-5,-2,-1,-2,-2,-2,-3,0
28.948351,-3,-4,-1,-2,-2,-2,0,1,0
28.949814,0,-4,-2,-1,-1,0,0,-2,0
28.949831,5,-1,-1,0,-2,-1,-2,0,0
28.961974,-6,4,-2,-1,-1,0,-1,-1,0
28.961993,4,2,-1,-2,0,0,0,-1,0
28.971550,-5,-1,0,-2,0,0,2,0,0
28.971557,-1,3,-2,0,-1,0,-2,-1,0
28.986247,10,0,0,1,-1,1,0,0,0
28.986308,-19,0,-1,0,0,-2,-2,-2,0
28.987523,5,-6,-2,-1,-2,-1,-3,-1,0
28.987545,-6,5,0,-1,-1,-1,0,0,0
29.008302,8,-2,-1,-1,-2,-2,-2,0,0
29.008321,3,22,1,-1,-1,0,1,1,0
29.010689,-8,-15,0,-3,-1,0,-2,-3,0
29.010698,2,1,-1,-1,-2,1,-1,-3,0
29.022111,0,-1,-1,-2,-3,-2,-2,-1,0
29.022130,31,-2,-1,-3,-2,-2,-2,-1,0
29.031404,-30,-5,-2,-1,-2,-4,-2,-1,0
29.031410,4,-4,-2,-1,0,-2,-1,-3,0
29.045794,0,4,-1,1,0,0,-1,-1,0
29.045809,5,-3,0,0,1,1,-3,-3,0
29.047468,9,3,-1,-2,-2,0,0,-1,0
29.047485,-7,-6,-1,-3,0,-1,0,-1,0
29.068367,4,0,1,-1,0,-2,-1,-1,0
29.068393,-8,-6,-1,1,0,-1,1,0,0
29.071043,-6,6,-2,1,-1,-1,-1,0,0
29.071091,6,-15,-2,0,-1,-3,-1,-5,0
29.082277,-4,26,-1,-1,-1,0,1,-2,0
29.082310,-9,-17,0,-1,-2,0,-1,-2,0
29.093109,3,9,-2,-1,-2,-1,-1,1,0
29.093135,1,1,1,0,0,1,2,1,0
29.106277,-1,-2,-2,-2,0,-1,-2,-2,0
29.106322,-7,-1,0,0,-2,0,0,0,0
29.108370,10,-1,-1,0,-1,0,-1,0,0
29.108380,0,6,0,1,-2,-1,-2,-1,0
29.128337,6,-8,-4,-3,-1,-3,0,-3,0
29.128354,-3,-4,-2,-2,-3,-1,-2,-2,0
29.131120,4,5,0,-1,0,-1,0,0,0
29.131127,-3,-21,-3,-2,-1,-1,-2,-1,0
29.150925,-4,-10,-1,-1,0,0,-1,0,0
29.150942,3,3,-2,0,-1,-2,-1,-2,0
29.152431,-1,-7,-2,-1,-1,-2,-1,-1,0
29.152443,-6,4,-1,0,-1,-2,-3,1,0
29.165806,2,3,0,1,-1,0,0,-1,0
29.165822,1,-5,-1,-2,-1,-1,-1,2,0
29.168815,-3,-1,-2,0,0,-1,-1,-4,0
29.168827,2,5,-1,-2,-2,-1,-1,0,0
29.188614,4,-6,-2,-1,0,-1,-2,0,0
29.188646,-5,0,0,-2,0,0,-1,0,0
29.189784,0,9,1,0,-1,-1,-1,-1,0
29.189807,0,-28,-2,-2,-2,0,-1,-3,0
29.210873,-1,2,-2,0,-1,-2,-2,-1,0
29.210893,-3,-6,-3,-1,-1,0,-1,0,0
29.212250,-2,-3,0,0,-1,0,-1,0,0
29.212263,-2,12,0,-2,-1,-2,0,1,0
29.226210,-10,-6,0,-1,-3,-1,-1,0,0
29.226254,6,-1,0,0,-2,-2,0,-1,0
29.227939,-9,-1,0,-2,0,-1,-1,-1,0
29.227948,-3,1,0,1,1,-1,0,1,0
29.248983,7,10,-2,-3,-1,0,-1,-1,0
29.248990,2,-27,-2,-1,0,-2,-1,-1,0
29.257971,-2,-3,0,0,-2,0,-1,1,0
29.257981,-3,8,0,-2,0,-2,-1,-2,0
29.270897,0,-2,0,-1,-2,-1,-2,-1,0
29.270922,1,8,0,0,-1,0,-1,-1,0
29.273228,4,1,-2,0,-1,-1,-1,0,0
29.273254,-9,-6,-1,0,-1,0,-1,0,0
29.285415,-5,2,0,0,0,-1,-1,0,0
29.285449,0,5,-2,-1,-2,-1,-1,-2,0
29.299345,-2,-8,-1,-2,0,-1,-2,-3,0
29.299362,7,9,-3,1,0,-1,-1,-1,0
29.308318,-2,-4,-1,1,-2,-1,-1,-2,0
29.308337,-3,4,-1,-1,-1,0,-1,0,0
29.309998,4,-5,0,0,-3,-1,0,-1,0
29.310012,-1,12,-1,-1,0,-2,0,0,0
29.331026,-3,-5,1,-1,-1,0,-1,-1,0
29.331043,-16,-6,-3,-3,-2,-3,-3,-5,0
29.333507,1,-3,-2,-1,-1,-2,-1,-2,0
29.333517,-1,6,-2,-1,-1,0,0,-1,0
29.345238,7,1,-2,-1,-2,-1,-1,1,0
29.345254,3,7,0,0,0,-2,0,-1,0
29.352022,-5,2,-2,-2,-1,1,0,0,0
29.352047,-2,-6,2,-1,-2,-1,-1,0,0
29.368650,-5,-2,-1,-3,-1,-2,1,-1,0
29.368674,-3,-9,-4,-1,-1,-1,-2,-2,0
29.370002,2,-3,-1,0,-1,-2,-1,0,0
29.370008,-6,-1,-1,0,-2,-1,-1,-2,0
29.390970,-3,-6,-2,-2,-1,-2,-2,-2,0
29.391000,-1,12,0,0,-1,-3,-1,1,0
29.392491,-3,0,0,1,-1,0,0,-1,0
29.394399,-4,-8,1,-1,-3,0,-2,-2,0
29.405205,5,5,-1,0,-1,-1,-1,-1,0
29.405225,3,0,-2,-1,0,-1,0,-1,0
29.412050,12,1,-1,-1,-2,-2,0,1,0
29.412067,-9,-5,-1,-2,-1,1,-2,-3,0
29.428438,-2,-5,-1,0,-1,-1,-1,-1,0
29.428461,3,-1,0,0,-1,0,0,1,0
29.429810,2,-9,1,0,-2,-1,-1,1,0
29.429821,-6,26,0,0,0,-1,0,0,0
29.450776,-11,-20,-3,-1,-1,-1,-2,-1,0
29.450817,5,-3,-1,-1,0,-1,1,-2,0
29.452226,-7,4,-1,-1,-1,0,-1,-1,0
29.452242,4,-2,-2,0,-2,-1,-1,-1,0
29.467431,-4,2,1,0,-1,-2,-1,0,0
29.467441,-2,4,0,-1,-1,1,-3,0,0
29.472012,-3,-3,0,-1,0,-1,-1,0,0
29.472035,-5,-7,-2,-1,-2,-2,1,-3,0
29.488667,11,-5,-3,0,-1,-1,0,-1,0
29.488685,0,-3,-1,-1,-3,0,-1,-1,0
29.490486,-2,-2,0,0,0,-1,-1,-1,0
29.490493,0,2,0,-1,-1,-2,-1,-2,0
29.512615,0,-24,-1,-1,-1,-1,-1,-1,0
29.512622,-4,7,-1,-2,-1,-1,-1,1,0
29.512626,-1,8,0,-1,0,-2,-3,0,0
29.512630,-1,-12,-1,-2,-2,-1,-2,0,0
29.524894,-1,8,-2,0,-1,0,0,-1,0
29.524918,-2,6,-1,0,0,-2,-1,-2,0
29.534785,-3,-9,-1,0,-1,-2,-1,-3,0
29.534793,5,1,1,-1,0,-1,-2,1,0
29.548485,-2,6,0,-2,1,-1,0,-1,0
29.548510,-5,-6,-1,0,-2,-2,-1,-1,0
29.550882,2,6,0,0,-1,-1,1,0,0
29.550890,-2,-2,-1,0,-3,-2,-1,-1,0
29.570910,-8,0,-1,0,-2,-1,-1,-1,0
29.570927,18,-3,0,-1,0,-1,0,-1,0
29.577025,-5,23,-4,-2,-2,-1,-3,-1,0
29.577087,14,-23,-2,-1,-1,-2,-2,-4,0
29.585215,1,7,-1,-2,0,-2,0,0,0
29.585239,-3,2,0,-2,-1,-1,0,1,0
29.592260,8,5,-2,-1,0,-1,1,-1,0
29.592292,-19,-2,-3,0,0,1,-1,-1,0
29.608315,1,5,1,1,-1,-2,-1,0,0
29.608336,1,0,-1,-1,0,-1,0,-2,0
29.609898,-4,-10,-1,-4,-3,-2,-1,-1,0
29.609928,0,4,-1,-1,-1,-2,-2,2,0
29.630870,4,-3,-2,-1,-1,-2,0,-1,0
29.630888,-12,-1,-2,-1,-1,-1,-1,2,0
29.633923,0,-10,-1,0,0,0,-2,-2,0
29.633930,3,15,1,0,-1,0,0,-1,0
29.644488,14,-22,-2,-2,-1,-1,-2,-2,0
29.644505,-10,-2,-2,-2,-2,-4,-2,-1,0
29.656832,-3,-1,-1,-3,-1,-2,-1,-1,0
29.656842,8,2,-1,-1,-2,-2,-1,2,0
29.668327,-14,6,-1,-1,-2,-1,-1,-1,0
29.668346,-1,2,0,-1,-1,1,-2,-2,0
29.669701,-2,-9,-2,1,-1,0,-1,-1,0
29.669715,1,2,0,-2,-1,1,-2,0,0
29.690942,-11,-7,-2,-1,-1,0,-1,-1,0
29.690969,-4,-3,0,-1,-1,0,0,-1,0
29.693242,-5,3,-2,-3,-2,-2,-1,-1,0
29.693264,1,-6,-2,-1,-2,-1,0,-2,0
29.704394,5,11,0,-2,-3,-3,-2,0,0
29.704412,5,5,-1,-3,0,-2,-1,-1,0
29.713295,-8,-9,-1,-1,0,0,-2,-2,0
29.713316,2,5,0,-3,0,1,1,-1,0
29.728939,-8,-1,2,0,0,0,0,0,0
29.728952,2,-12,-4,-1,-2,-2,-1,-4,0
29.729825,-4,20,-2,-1,-2,-1,-1,-1,0
29.729843,-7,-24,-3,-2,0,-1,-1,-2,0
29.750930,-5,5,0,1,-1,-2,0,-3,0
29.750947,0,-1,-2,0,0,0,-1,-1,0
29.752611,3,2,1,0,1,0,1,-1,0
29.752617,-2,5,-1,1,-1,-2,0,-3,0
29.764411,3,3,-2,-1,0,1,0,-2,0
29.764428,-1,0,-1,1,0,1,0,-2,0
29.774773,0,-10,-2,-2,0,0,0,-1,0
29.774783,0,3,1,-2,-2,0,1,0,0
29.790783,17,1,-1,-2,-1,-1,-1,-1,0
29.790790,-6,10,-1,-3,0,-2,1,0,0
29.790794,8,-39,-3,-1,-2,-2,-3,-3,0
29.790797,-10,-5,-1,-1,0,-2,-1,0,0
29.811453,5,9,-2,-2,-3,-2,-2,-1,0
29.811485,-5,0,2,-1,-2,0,0,2,0
29.813614,-2,6,0,0,-1,0,-2,-1,0
29.813623,3,4,-1,0,0,1,-2,0,0
29.824476,-6,-8,0,0,-2,-1,-2,-1,0
29.824500,-4,-2,0,-1,-1,-1,1,-2,0
29.835431,-4,0,-1,-2,-1,-3,-1,0,0
29.835438,-1,-3,-3,1,-2,0,-1,-2,0
29.848699,-4,5,0,-1,2,-1,0,0,0
29.848724,0,-5,-1,1,-1,-1,-2,-2,0
29.851663,-1,5,-1,0,-1,-1,-2,-2,0
29.851671,-3,-3,0,-1,0,0,-1,-1,0
29.870764,-1,-1,-2,-1,-2,-1,0,0,0
29.870780,4,-2,-2,-1,-3,-2,-4,-2,0
29.872258,6,-6,-1,-2,-1,-2,-1,0,0
29.874654,3,2,-2,0,-2,-1,0,-1,0
29.884555,-7,-1,-1,-1,-2,0,0,-1,0
29.886067,-4,-4,-2,-1,-2,0,-1,-2,0
29.894470,2,4,0,-2,-1,-1,0,1,0
29.894482,18,20,0,0,1,-2,-1,-2,0
29.908272,-14,-41,-3,-1,-1,1,0,-1,0
29.908289,-3,1,-3,-2,-1,1,-2,-1,0
29.911020,1,-2,-3,-2,-1,0,0,-2,0
29.911031,-1,3,0,-1,0,-2,-1,1,0
29.930755,8,7,0,-1,-1,-1,-1,0,0
