timestamp,sample_number,emg1,emg2,emg3,emg4,emg5,emg6,emg7,emg8
0.159065,0,1,2,0,-1,0,0,-1,1
0.159250,1,-4,-2,2,-2,-2,-1,0,-3
0.160023,2,-1,-2,-1,-2,0,-2,-2,-1
0.160036,3,2,-3,-1,1,0,-1,0,0
0.161362,4,-2,-1,-1,0,-1,-1,-1,0
0.161376,5,-1,-4,-3,-4,-2,-1,-2,-2
0.164302,6,2,6,3,0,1,0,-1,-1
0.164320,7,0,2,4,0,-3,1,-1,0
0.171426,8,-3,-5,-5,0,1,-1,0,-3
0.172238,9,2,-2,-2,-5,-1,-2,0,2
0.182781,10,-3,-4,2,7,-2,0,-1,1
0.182800,11,-2,1,-5,-9,0,-1,-1,-3
0.186299,12,-3,1,4,8,-2,-2,0,-3
0.186318,13,2,-1,1,-1,0,0,-1,1
0.201959,14,-2,0,-1,0,0,0,1,-1
0.202745,15,-4,-2,2,2,4,-2,-2,-1
0.211509,16,0,-1,-1,-6,-1,0,-1,0
0.212605,17,1,1,-1,-1,-2,-2,-1,-1
0.226685,18,-3,-1,-4,-6,-2,0,-3,-2
0.226707,19,1,1,-3,0,-1,-2,-3,-1
0.231540,20,-1,-4,-1,-5,-2,-1,-1,2
0.231560,21,0,1,2,8,2,0,0,0
0.271257,22,1,0,0,2,-1,0,0,2
0.271269,23,-5,-3,1,-1,0,1,0,-1
0.278469,24,-4,-4,-6,-3,-2,0,-1,0
0.278491,25,-1,3,-1,-4,-1,0,-1,0
0.280351,26,0,0,2,0,0,1,0,-1
0.280363,27,-3,1,-2,-2,-3,-3,-2,-2
0.280404,28,0,-2,-3,-1,1,-1,-1,0
0.280433,29,-1,-1,3,0,1,-1,-4,0
0.292161,30,-2,-1,-6,-2,-3,-2,-1,-2
0.292216,31,0,-1,2,-4,-2,0,-1,-1
0.301282,32,-1,0,1,4,-1,1,0,-2
0.301294,33,0,-1,-3,0,-3,-1,0,-1
0.306584,34,-1,-2,-2,0,0,-2,-1,-3
0.306702,35,0,0,3,-1,-1,-1,-2,1
0.321415,36,-1,3,3,2,-1,-1,0,0
0.321437,37,-1,-5,-8,0,-1,-3,-2,1
0.329099,38,-2,-3,3,-6,0,-1,-1,0
0.329123,39,0,-1,-3,2,-1,-2,-1,-1
0.343644,40,-1,-3,-2,-6,-4,-2,0,-1
0.343662,41,-1,0,0,-1,-1,-1,0,-1
0.351109,42,0,-2,3,2,0,0,0,-3
0.351125,43,3,1,-1,-4,2,1,0,1
0.367483,44,0,2,0,5,1,-2,-1,-2
0.367497,45,-1,0,2,-1,-1,-1,0,-1
0.367499,46,-2,-1,-4,-3,-2,-1,-3,-1
0.367501,47,2,-2,-3,-1,-1,0,-1,0
0.389640,48,-1,-4,-3,-4,0,-2,-1,-1
0.389663,49,1,0,-2,1,-1,0,-1,-2
0.390966,50,0,0,-1,-1,-1,-1,0,-1
0.390977,51,-2,-3,-2,-5,-3,-1,0,0
0.404008,52,2,2,1,2,-1,0,-2,0
0.404037,53,-4,-3,0,-2,0,0,-1,0
0.411497,54,-2,0,0,0,0,0,0,-1
0.411519,55,-4,-7,-11,-1,-2,0,0,0
0.426895,56,-1,0,-1,-2,-2,0,-1,0
0.426911,57,-1,0,2,-2,1,1,0,-1
0.428314,58,1,3,5,2,0,-1,-1,0
0.428330,59,1,1,-2,4,0,-1,-1,0
0.449491,60,0,-6,-8,-6,-2,-1,-2,-1
0.449512,61,1,7,3,0,-3,0,0,0
0.449913,62,-2,-2,0,-2,-2,-1,-1,-1
0.449982,63,0,2,1,1,0,-2,-1,0
0.463672,64,-2,-2,0,-3,-2,-1,-1,0
0.463695,65,-1,-4,-5,-5,-3,-1,-2,-2
0.471216,66,2,-1,-5,-7,0,-1,-1,1
0.471238,67,-2,4,7,7,0,-1,-1,0
0.487201,68,-1,-5,-3,0,1,-1,-1,3
0.489146,69,0,-3,-4,1,-3,-3,0,0
0.489163,70,-1,2,-1,0,-3,0,-2,0
0.489167,71,-1,-3,-2,-1,0,-1,-3,-3
0.509559,72,-1,3,2,-4,-2,-2,-1,0
0.509583,73,-2,-3,0,4,-1,-1,0,0
0.510133,74,-3,-2,-1,-3,-1,-1,-1,-1
0.510143,75,2,0,-4,-4,-1,0,0,0
0.523726,76,-1,-1,1,2,0,-1,0,-2
0.523749,77,0,-2,-3,-1,1,0,-1,-2
0.531198,78,-2,0,-4,0,-2,1,-1,-1
0.531239,79,1,4,2,-4,1,0,-1,-1
0.546964,80,-1,1,4,0,-2,-1,-1,-2
0.546986,81,-1,0,-4,-1,-4,-1,-1,0
0.547686,82,-1,-6,-3,-5,-2,1,-1,0
0.547697,83,-1,-2,0,4,0,0,-1,2
0.569557,84,-1,0,-5,-3,-3,-2,-2,0
0.569590,85,-3,-2,2,-2,-1,-3,-3,-3
0.569934,86,1,1,2,0,0,0,-2,-1
0.569940,87,-1,-4,-5,-7,-2,-1,-1,-2
0.583893,88,1,0,0,5,-1,0,-1,-1
0.583913,89,0,2,3,2,2,-1,0,2
0.591204,90,0,1,0,2,1,-1,0,-2
0.591227,91,-2,-2,-4,-1,-1,-2,-1,-1
0.606928,92,-2,-6,-6,-4,1,-1,-1,0
0.606945,93,2,2,1,-5,-2,1,0,0
0.608910,94,0,-1,0,6,-2,0,-2,-1
0.608924,95,-1,-1,-1,-3,-3,-2,-1,0
0.629314,96,0,4,5,0,0,-2,-1,0
0.629337,97,-1,-8,-5,-1,-2,-2,-1,-1
0.631428,98,1,2,4,3,0,-1,1,2
0.631443,99,-3,-3,-2,-3,-3,-1,-2,-1
0.652242,100,1,-3,-6,-7,0,0,0,0
0.652636,101,-1,0,-1,4,0,0,-2,0
0.653824,102,-2,-2,-1,-6,-3,0,0,0
0.653841,103,0,0,3,6,0,-2,0,-1
0.666862,104,0,1,0,1,-1,0,-1,-3
0.666879,105,1,-1,-3,-3,0,0,-1,-3
0.667869,106,0,-3,-10,-3,-1,-2,-1,0
0.667887,107,2,1,2,-1,-1,1,-1,0
0.689657,108,-3,-2,3,0,-1,0,0,0
0.689694,109,-2,-1,2,3,-1,-1,-1,-1
0.690462,110,-2,-5,-4,-3,-2,-2,-2,-1
0.690475,111,-2,0,-1,-2,1,-2,-1,0
0.703824,112,-1,4,4,-1,-3,-2,-1,0
0.703846,113,-4,-3,-1,1,-1,0,-1,-1
0.711131,114,-2,-2,-2,-4,-2,-2,-1,-2
0.711150,115,-1,-2,0,1,0,-1,1,-1
0.726994,116,0,-5,-4,-5,-1,-3,-1,-1
0.727019,117,-2,3,0,-3,-3,-3,0,-1
0.728107,118,0,2,-1,-2,1,0,-3,-1
0.728129,119,0,-1,2,0,-1,-1,-1,-1
0.749398,120,1,1,1,2,0,0,-2,-1
0.749415,121,0,-4,-2,-6,-5,-2,-1,-1
0.750051,122,-2,-1,-3,-1,0,-2,1,-1
0.750061,123,-2,-2,1,-2,-2,-2,-3,0
0.764002,124,-3,-2,-3,-1,-3,0,-1,1
0.764028,125,2,-1,1,-2,-1,-1,0,1
0.771270,126,-1,2,1,2,-2,0,1,-1
0.771290,127,-1,-2,-3,-2,-2,-1,0,-1
0.786977,128,-1,-1,-3,0,0,-1,-1,-3
0.787021,129,-2,-4,-4,-6,0,0,0,-1
0.787354,130,2,4,5,2,1,-2,0,-1
0.787378,131,1,-5,1,5,0,0,-1,0
0.809417,132,-1,2,0,-5,-2,0,-1,-1
0.809433,133,1,2,1,4,1,-1,-2,-1
0.810660,134,-2,-3,-1,-2,-1,0,-1,0
0.810679,135,-1,1,-4,-2,0,0,-1,-1
0.831823,136,0,-1,-1,-1,-2,-1,-1,-2
0.831845,137,-1,-1,-1,-2,-1,-1,-2,-2
0.833155,138,0,0,-1,-2,-2,-1,-2,-1
0.833167,139,-1,0,-1,-1,-2,-1,0,-1
0.846880,140,-3,-5,-4,-2,-3,-1,-1,-1
0.846913,141,1,2,2,-3,-1,-2,0,0
0.848854,142,1,1,-2,4,0,-1,-1,0
0.848866,143,-4,3,6,-2,-1,0,0,-1
0.869501,144,-1,-3,-8,-2,1,0,0,0
0.869517,145,-3,-1,2,-1,-1,-2,-1,-3
0.870600,146,-3,-1,-2,-2,-1,-1,0,0
0.870614,147,3,3,-3,0,-3,-2,-1,0
0.891963,148,-3,-4,4,2,-1,-1,-2,-2
0.891980,149,-2,-7,-13,-3,-2,-1,0,0
0.893258,150,0,2,3,-4,-2,-1,-2,-1
0.893271,151,-3,0,-2,-2,0,-2,-1,-1
0.906815,152,0,0,2,1,-2,-1,0,-1
0.906836,153,-1,-2,-1,-1,0,-2,-1,-1
0.908171,154,-1,-2,-3,-3,-1,1,-3,-2
0.908183,155,0,0,-2,-2,-1,0,-2,-1
0.929367,156,0,-2,-2,-5,-1,-1,0,-2
0.929381,157,-2,0,1,5,1,1,0,-1
0.929867,158,-2,-1,0,0,-1,-1,0,0
0.929875,159,-2,-3,-2,-1,0,-1,-1,-1
0.951889,160,-1,1,1,-4,0,-1,0,-2
0.951906,161,0,0,0,-3,-2,0,-2,0
0.952757,162,-3,-2,2,6,-2,0,-1,-1
0.952775,163,0,0,2,-2,1,-2,0,-2
0.966293,164,-1,0,-3,-3,-2,-1,-1,1
0.967230,165,2,2,3,3,0,1,1,1
0.975073,166,-5,-8,-5,-4,0,0,-1,-1
0.975090,167,-1,-8,-9,-3,-2,-1,0,0
0.989673,168,-3,5,2,-3,-4,-2,-1,0
0.989716,169,0,-1,-4,-3,-1,-1,-2,-2
0.991706,170,0,-1,-2,-1,0,-2,-2,-1
0.991720,171,1,-2,-1,0,0,1,-2,0
1.011966,172,-1,1,3,4,2,0,0,-2
1.011989,173,-1,-3,0,-5,-3,-2,-1,-3
1.012752,174,1,1,-1,-6,-2,-1,-1,-2
1.014394,175,-2,-3,-2,4,-1,-1,-1,0
1.026525,176,1,-4,-3,3,1,0,-2,-1
1.026554,177,-3,1,6,-1,1,-1,-1,1
1.034474,178,1,0,-2,0,0,-1,-1,0
1.034495,179,-2,0,0,-4,-3,-2,-1,-3
1.049504,180,2,0,-4,-2,1,-1,-1,1
1.049521,181,0,-1,-3,-4,-1,-1,0,-2
1.050312,182,-1,-4,-1,1,-2,0,0,0
1.050322,183,-3,1,6,2,1,-1,0,-1
1.071755,184,2,1,-1,2,-1,-1,-2,0
1.071771,185,-4,-2,-1,-4,-2,-1,-2,-2
1.072358,186,1,2,-5,-1,0,-1,0,-2
1.072364,187,0,1,-2,-2,-4,0,-1,-1
1.086171,188,0,1,1,-5,0,-2,0,-1
1.086194,189,0,0,1,6,-1,-2,0,-1
1.094243,190,0,-2,3,1,-1,-1,-1,-1
1.094260,191,-2,-7,-7,-4,-1,0,-3,1
1.109384,192,-1,-1,0,-4,-2,-2,-2,-1
1.109403,193,-1,0,-3,2,-1,0,0,0
1.110199,194,1,-2,0,-2,-1,0,0,0
1.110210,195,0,1,1,2,0,-1,-1,-3
1.133222,196,-5,-2,-3,-6,-1,0,-1,-1
1.133243,197,-1,0,0,2,0,0,-1,0
1.133245,198,-2,0,1,1,-1,-3,-1,-1
1.133247,199,-2,-1,-5,-5,-2,-2,-1,0
1.146403,200,-1,-3,0,0,-1,-1,0,0
1.146614,201,1,1,1,-3,-2,0,-2,1
1.154259,202,1,-1,-3,1,-2,-2,-1,-2
1.154277,203,-3,-3,-5,0,-2,1,0,0
1.169255,204,-1,-3,-3,-2,0,-2,0,0
1.169274,205,-1,-3,-3,0,-1,-2,0,-3
1.169995,206,-3,5,4,-6,-3,0,1,0
1.170006,207,2,1,2,-5,1,0,-1,-1
1.191815,208,1,-2,1,6,0,-2,-1,0
1.191833,209,-1,-1,-2,-1,0,0,-1,-1
1.192633,210,-3,-3,1,0,-1,0,0,-1
1.192643,211,-2,1,1,1,-3,-1,-1,-1
1.206089,212,-2,-2,0,-1,0,0,-1,0
1.206106,213,-1,-2,-4,-5,-3,0,-4,-1
1.214354,214,0,0,-2,-2,1,-1,-1,1
1.214377,215,0,-2,0,0,-2,0,0,-2
1.229814,216,-1,-2,-4,0,-2,-1,-2,-4
1.229843,217,-2,-1,3,1,0,-2,-1,-2
1.230063,218,0,-2,0,-3,0,-1,-3,-1
1.230085,219,1,-1,-2,1,-1,-2,-1,0
1.252007,220,-1,0,1,-2,1,-2,-3,-1
1.252039,221,2,-1,-4,0,-1,0,-1,-1
1.254028,222,-2,-4,-5,-2,-1,-2,-2,0
1.254039,223,-1,-1,7,0,-2,-2,0,-2
1.274926,224,0,3,4,1,1,1,-1,-1
1.274943,225,-5,-3,-1,-1,-2,0,1,-2
1.275744,226,-3,-1,-2,0,0,-1,0,0
1.275760,227,2,-1,-8,-8,-2,1,-1,-2
1.297588,228,-2,-3,-1,5,0,-1,0,0
1.297611,229,1,0,0,-2,-1,-1,-1,-1
1.299206,230,-1,-1,-3,-2,3,1,1,-1
1.299217,231,-2,1,1,0,3,-1,-1,-1
1.311974,232,-1,1,-1,2,-2,-1,-1,-2
1.311992,233,-1,-3,-3,-2,0,-1,1,-1
1.313163,234,-2,-2,-4,-3,-4,-3,-2,-1
1.313171,235,0,1,0,-2,1,-1,-1,-1
1.335659,236,1,0,0,-5,0,-2,1,-1
1.335678,237,1,1,3,5,-1,-1,-1,1
1.335734,238,1,-3,1,3,1,-2,0,-3
1.335800,239,-2,-3,-1,-2,-1,0,-1,-2
1.357555,240,1,-2,-6,0,-2,-2,0,0
1.357577,241,-1,0,-2,-5,-1,0,1,-1
1.359230,242,1,3,3,0,-1,-1,-1,-1
1.359251,243,-3,-3,-2,-2,-2,-1,0,0
1.371922,244,2,0,-1,-4,-3,0,-2,0
1.371947,245,-1,-4,-2,-2,0,0,-1,2
1.373597,246,-2,0,-5,-1,-1,0,-1,-3
1.373608,247,-1,2,1,-2,0,0,1,-1
1.397103,248,1,-2,-1,-1,-2,-4,-1,-1
1.397115,249,0,0,0,-1,2,-2,-1,0
1.397117,250,3,-2,-5,-1,-1,-1,-1,0
1.397119,251,-2,-3,-1,-3,-1,1,0,1
1.417684,252,-3,-2,-7,3,-1,0,0,0
1.417706,253,2,3,0,-4,-1,-1,-2,-1
1.419014,254,-3,-3,3,8,1,-2,-1,-2
1.419029,255,0,0,-2,3,0,-1,-1,-1
1.437362,256,-2,0,0,-1,-1,1,-1,1
1.437388,257,1,-2,-3,-5,-3,-2,-1,-1
1.438637,258,-3,0,0,-5,0,2,-1,-1
1.438656,259,-3,-1,-2,2,-3,-2,-1,0
1.454980,260,-4,-1,2,-2,-1,0,-1,-1
1.455001,261,-2,-2,-2,0,0,-1,-1,-2
1.456309,262,1,2,2,-1,0,-2,-1,0
1.456323,263,2,-1,-2,0,-1,-1,-1,0
1.477501,264,-2,-3,-2,-1,-1,0,0,-1
1.477525,265,1,0,1,-2,-1,0,0,0
1.478414,266,-1,2,3,2,0,0,0,1
1.478433,267,-1,-1,-4,-2,2,-1,-2,0
1.491828,268,-1,1,-2,0,-2,-2,-1,-1
1.491850,269,-2,1,3,6,0,-2,-2,-3
1.492785,270,0,-4,-1,-2,-2,-1,0,-1
1.492815,271,-1,-1,-4,-2,-1,0,-2,1
1.514956,272,0,-2,1,-6,-1,0,-1,-1
1.514973,273,-2,-2,-5,-1,-1,-1,-2,0
1.515730,274,0,-2,0,-2,-1,1,-1,-1
1.515741,275,-2,0,-2,-1,-3,-1,-1,-1
1.537400,276,0,-2,-4,-4,-2,0,-1,-1
1.537413,277,-2,-1,1,6,-1,-1,-1,3
1.538025,278,0,2,-1,-5,-3,-1,-1,0
1.538051,279,-3,-7,-4,5,-1,-1,0,1
1.552485,280,0,1,3,1,0,-1,-1,-1
1.552501,281,0,0,-1,-4,-1,-2,0,-1
1.552505,282,1,-2,-6,-6,-1,0,-1,-1
1.552508,283,1,1,-2,0,0,-2,-1,-1
1.574923,284,0,0,4,1,0,-3,0,0
1.574945,285,1,0,4,2,0,0,-2,-1
1.576028,286,-2,-3,-3,0,-3,-3,-2,0
1.576043,287,1,6,4,-1,-1,-1,-2,-2
1.597540,288,-1,-1,-3,-6,-1,-2,0,0
1.597569,289,-4,-3,-3,0,-2,-3,0,-3
1.599212,290,-4,-3,-4,0,-2,-1,-1,0
1.599225,291,0,1,3,-2,0,-1,-1,-3
1.611832,292,-2,-2,-4,-5,-2,-1,-1,-1
1.611849,293,0,3,1,2,-1,-1,-2,-1
1.612941,294,-3,-4,1,2,-1,0,-1,-3
1.612954,295,-3,-4,-2,0,-1,-1,0,-1
1.635038,296,2,1,0,-1,-2,-1,0,-2
1.635058,297,-3,-3,-8,-6,-1,0,-1,-1
1.635890,298,-2,0,-1,-1,-2,-2,-1,-1
1.635909,299,0,-1,1,2,-1,-1,-1,0
1.657618,300,-1,2,10,3,1,2,0,-2
1.657747,301,1,-3,-11,-4,-1,0,0,-2
1.659001,302,1,-3,-4,0,1,-2,-2,-2
1.659023,303,-1,1,-2,-8,-1,-2,0,0
1.671880,304,-2,-3,-6,3,0,-1,-1,0
1.671904,305,-2,0,3,-5,0,-2,-1,0
1.673014,306,-2,-2,-2,0,-2,0,-1,-1
1.673030,307,0,-3,-2,-2,-1,-2,0,0
1.695122,308,-1,-1,-2,0,0,-1,-1,-2
1.695151,309,-2,0,1,-2,-1,0,0,-2
1.695826,310,1,0,-3,-2,-1,-3,0,-3
1.695839,311,-2,0,1,-1,-2,0,-1,-3
1.717526,312,-1,-1,0,-2,-1,0,-1,-1
1.717547,313,-2,-1,-1,1,-1,1,-2,1
1.718340,314,-1,2,2,-1,-1,-4,-1,0
1.718349,315,-2,-3,-3,1,-2,0,-1,-1
1.731992,316,-1,-1,-3,-3,0,-1,-1,0
1.732848,317,-1,-3,-2,-5,-2,-2,-1,-3
1.732863,318,-1,0,1,4,0,2,-1,0
1.732865,319,4,0,-1,2,-1,1,-2,0
1.754077,320,-4,-4,-2,-3,0,-1,-1,1
1.754098,321,0,-2,1,2,-3,-2,-1,-1
1.761867,322,-2,-2,-3,-3,-2,-1,-1,-2
1.761887,323,0,-1,2,-7,-1,-1,0,-2
1.777521,324,-1,-1,0,6,-2,-2,-2,-4
1.777550,325,0,-1,-2,-3,2,0,-2,-1
1.778815,326,-2,2,2,0,-1,0,-1,1
1.778909,327,2,0,1,-1,-1,1,-2,0
1.792128,328,-1,-2,-4,-3,-2,-2,-2,0
1.792150,329,0,-1,-1,-4,1,-1,-2,-1
1.792607,330,-2,-2,-1,4,0,-2,-1,-1
1.792630,331,0,0,-5,0,-1,-2,-1,-1
1.815005,332,0,-1,-3,0,-2,-1,-1,-2
1.815055,333,1,1,5,2,-2,0,0,0
1.815823,334,-2,1,0,-2,-1,1,-1,1
1.815843,335,-4,-1,0,-3,-2,-2,0,-1
1.837400,336,2,0,4,-1,-1,-1,0,1
1.837416,337,-2,-3,-8,-2,0,1,0,-1
1.838127,338,0,0,-2,-3,0,0,0,-1
1.838147,339,-3,-6,0,-2,0,0,-2,0
1.851158,340,1,2,-3,-4,-2,-2,-2,-3
1.851171,341,-2,-4,-4,-1,-2,-4,0,0
1.859385,342,0,-2,0,-1,-1,-1,0,-2
1.859402,343,-2,0,-1,2,1,0,-1,1
1.875115,344,-1,0,2,1,0,0,-2,0
1.875136,345,-2,0,1,-5,-1,0,-2,-2
1.876557,346,0,-3,-4,1,-2,-1,-1,-1
1.876579,347,0,0,2,-2,-2,-1,2,-1
1.898268,348,-1,-4,-3,4,0,-2,0,-1
1.898284,349,-3,1,-4,0,-1,-2,-1,1
1.898374,350,1,3,5,-4,0,-1,-1,2
1.898423,351,0,1,1,0,0,-1,0,-4
1.911449,352,-1,-2,-3,-5,0,0,-1,-1
1.911475,353,-3,-5,-5,-1,0,-1,0,0
1.920596,354,-1,-3,-5,-4,-1,0,0,-1
1.920607,355,0,3,0,0,-1,-3,-1,0
1.934876,356,-1,1,0,0,-3,-2,-1,-1
1.934893,357,1,0,-2,-2,-2,0,-1,0
1.935773,358,-1,-1,2,1,-1,0,-1,0
1.935798,359,2,-1,-4,0,0,-2,-2,0
1.957504,360,-2,-3,-2,-1,-3,-2,0,-1
1.957523,361,0,3,1,2,-2,-1,-2,-1
1.958178,362,-2,-2,-4,-6,-1,-2,-1,-4
1.958183,363,-1,-2,-2,1,-2,-2,-1,0
1.971237,364,0,0,0,2,0,-1,-1,-1
1.971261,365,-2,-2,-1,-3,-1,-1,-2,0
1.979697,366,-1,-2,-3,0,0,-3,-2,-2
1.979720,367,0,-1,2,0,0,0,-2,-1
1.995177,368,0,-2,-2,-2,-2,-1,0,0
1.995323,369,-2,3,3,-5,-2,-1,-1,-3
1.996419,370,0,1,1,6,0,0,-1,-1
1.996428,371,-2,0,-4,-1,-1,-2,0,-1
2.017883,372,-1,-1,-2,0,0,0,-2,0
2.017898,373,3,0,3,2,1,-1,0,0
2.023776,374,-3,-3,-2,-6,-1,-2,-1,0
2.023795,375,0,-3,-2,-2,-1,-1,0,-1
2.031093,376,-2,2,5,-2,0,-1,-1,-1
2.031115,377,-1,-6,-6,2,-1,0,0,-1
2.040075,378,0,0,-3,-2,1,-1,-2,0
2.040092,379,1,-1,0,-2,-2,-1,0,0
2.055019,380,1,2,3,1,1,1,0,1
2.055043,381,-1,1,3,0,-1,-1,-1,-1
2.056506,382,0,-2,2,1,0,0,0,1
2.056533,383,-3,-5,-9,-6,-1,-1,-1,-2
2.077445,384,-3,-1,-2,-3,0,-1,-2,0
2.077463,385,-1,1,1,0,-1,-1,-2,-3
2.079008,386,-1,0,0,1,-2,-1,0,-1
2.079028,387,-3,-2,-5,-4,-1,0,-1,-2
2.091648,388,0,-1,0,-2,0,1,0,-2
2.091670,389,1,-2,1,-2,2,-2,-1,-1
2.101272,390,1,-3,-3,-1,-2,-1,-3,-1
2.101286,391,-2,2,3,-1,0,0,-2,0
2.114288,392,-1,-3,-2,-2,-1,0,-1,0
2.114308,393,0,1,-4,-5,-3,-1,0,0
2.121082,394,-1,-3,2,-1,-1,-1,-1,-2
2.122040,395,-1,-4,1,4,2,0,0,1
2.137369,396,-2,-2,-3,0,-1,0,0,0
2.137385,397,-1,-1,0,-5,0,-2,-1,-1
2.138949,398,-2,1,0,2,-1,0,0,-1
2.139738,399,0,-1,2,-1,-1,2,-2,-2
2.151169,400,1,1,-4,-3,0,-2,-1,-1
2.151265,401,-1,-1,0,0,0,-1,0,-1
2.160120,402,-2,-1,-2,-2,-1,-3,1,-1
2.160135,403,1,-1,1,-2,-1,-2,-1,-1
2.175353,404,-1,-2,-4,-3,-2,1,-1,-1
2.177190,405,-2,1,3,1,0,0,-1,-2
2.177210,406,1,-2,-4,-1,0,0,-3,0
2.177212,407,-1,1,3,2,1,-2,0,-1
2.197492,408,-2,-4,-5,-3,-2,-3,-1,-2
2.197570,409,-1,1,1,-8,1,1,-1,0
2.199104,410,0,-2,0,10,0,0,0,0
2.199129,411,-2,-1,-7,-6,-1,-1,-2,-1
2.220139,412,-1,-2,1,1,-1,-1,0,0
2.220161,413,-1,-2,-2,1,0,-1,0,-1
2.221607,414,-1,2,3,-5,-1,1,-1,-1
2.221626,415,-1,-1,-1,-3,-1,-1,0,-1
2.235227,416,-3,-3,-3,-3,0,-1,-1,-3
2.235251,417,1,-4,-4,0,-2,-1,-1,-2
2.236748,418,0,2,1,-1,0,0,0,1
2.236799,419,0,-1,0,4,-1,0,0,1
2.257681,420,-2,-1,1,-2,-2,-1,-1,-1
2.257707,421,0,0,-1,0,-2,-1,-3,0
2.259092,422,-2,-2,-2,-6,-2,-1,1,-2
2.259114,423,-3,1,0,4,0,-1,-2,-2
2.280203,424,-2,1,4,2,1,-1,-1,-3
2.280222,425,-1,-1,-2,2,-2,-1,-2,-2
2.281558,426,1,1,-2,-6,0,0,-2,0
2.281591,427,-2,0,1,-3,-3,-1,-1,-1
2.295202,428,0,1,1,0,-1,0,-1,-1
2.295226,429,-4,-1,-1,3,1,-2,-1,1
2.296393,430,-1,-4,-8,-5,-2,-1,-2,-2
2.296405,431,0,-1,-3,-4,-1,-3,1,-1
2.317271,432,2,0,2,2,0,-1,-1,0
2.317293,433,0,1,-1,-1,-1,-2,-1,0
2.323635,434,-2,-3,-1,-3,-2,-2,-1,-1
2.323659,435,-3,-3,-3,-3,0,-2,-1,-2
2.339961,436,0,-2,-4,-2,-2,-2,1,-1
2.339980,437,-2,0,2,0,0,-1,0,-1
2.342089,438,1,0,0,-3,0,-2,-2,-1
2.342104,439,1,-1,-4,2,-2,-1,-2,-2
2.354501,440,-5,-2,2,-2,-4,-1,0,-2
2.354534,441,1,0,2,5,-1,1,1,0
2.361093,442,-2,-2,-1,1,-2,-1,0,-2
2.361111,443,0,-1,1,-3,-1,1,-2,-1
2.377528,444,0,-1,-6,-3,1,-1,-1,-2
2.377548,445,0,-2,3,-1,-1,-1,-1,-3
2.379141,446,-1,2,0,2,0,0,0,1
2.379162,447,0,-3,-3,-4,-1,-2,-2,-1
2.400012,448,-3,-5,-2,-4,-3,-2,-2,-1
2.400034,449,-1,2,-5,-3,-2,0,-1,0
2.401606,450,-1,2,2,1,-1,-1,-1,0
2.401631,451,0,-1,2,-3,2,-2,1,-1
2.414280,452,0,2,1,6,-2,0,0,0
2.414297,453,-1,-3,-3,-4,-2,-2,1,-1
2.421361,454,-3,-1,-5,-2,-2,-1,-1,-3
2.421381,455,-2,-3,3,-1,-2,-1,-1,0
2.437695,456,1,-4,-5,-4,-2,-1,-2,1
2.437728,457,-2,-3,-4,-5,-3,-1,-1,-1
2.439028,458,-1,0,6,3,2,-2,0,0
2.439043,459,1,3,4,6,-2,-1,0,0
2.460799,460,1,1,1,-4,1,-2,1,-2
2.460812,461,-3,-3,1,1,-2,0,-2,-3
2.461468,462,0,0,-2,-3,-2,-2,-2,-1
2.461481,463,-3,-2,-5,-1,0,-1,-3,0
2.474218,464,-1,0,-1,0,-1,-1,0,0
2.474234,465,2,-1,-8,-3,-2,-3,0,-2
2.481198,466,-2,-6,-2,1,-2,0,-1,1
2.481219,467,-4,1,2,-3,-2,0,-1,-2
2.497501,468,-2,2,-1,5,-2,-2,-2,-2
2.497518,469,-1,0,3,-3,-1,0,0,0
2.498879,470,-2,-2,-5,1,-1,-1,-1,-1
2.498891,471,0,-5,-4,-2,-2,0,-1,-1
2.519994,472,-1,-1,-2,-9,0,-1,-1,-2
2.520015,473,0,0,-1,2,-3,-1,1,-1
2.521538,474,0,2,6,1,0,-1,1,-1
2.521634,475,2,1,-3,2,1,0,1,-1
2.534364,476,-1,-3,-1,-3,0,-2,-1,-1
2.534386,477,-1,-1,-2,0,0,-1,-1,0
2.541306,478,-1,-1,-5,-9,-3,0,-2,-1
2.541334,479,-1,-3,0,1,-2,-2,-2,0
2.557462,480,-1,1,2,2,0,1,-1,-2
2.557480,481,0,-2,-4,-2,-2,0,-1,0
2.558930,482,1,1,-1,1,2,0,1,-1
2.558945,483,-2,-3,0,-1,0,1,0,-1
2.580092,484,0,-3,-4,-2,-2,-1,-1,-1
2.580110,485,-3,4,4,0,1,-1,0,-2
2.581629,486,0,-3,-4,-1,-1,-2,0,-1
2.581760,487,0,1,1,-1,-1,0,-1,-4
2.594330,488,-1,-2,-4,-3,0,0,-1,0
2.594352,489,-3,-1,0,0,-1,0,1,1
2.601399,490,-1,1,4,1,0,0,-2,1
2.601417,491,-3,-4,-1,-1,-3,-1,-1,0
2.617490,492,-1,-1,-1,1,1,0,-1,-2
2.617508,493,0,-3,-1,0,0,-1,-2,-1
2.618965,494,-4,-3,1,3,1,0,-2,-2
2.618977,495,3,1,0,0,1,-2,0,0
2.640121,496,0,1,-2,-2,-2,-1,1,-1
2.640208,497,-3,-1,-1,-2,-2,0,-1,0
2.642366,498,0,-3,0,-1,-4,-2,-1,-1
2.642379,499,-3,0,-7,-5,-2,-1,-2,-1
2.654292,500,0,2,0,0,0,-2,-1,-1
2.654403,501,-2,-2,-1,-3,-1,-1,1,-1
2.661411,502,-2,-2,-6,-3,0,0,-1,0
2.661435,503,-1,1,1,-2,0,-1,0,0
2.677583,504,-5,-4,2,3,-2,0,-1,1
2.677614,505,-2,-1,-1,-3,1,0,-1,0
2.679111,506,2,1,2,1,-1,-1,0,-3
2.679132,507,-2,0,0,3,-1,-2,-1,-2
2.699917,508,-2,0,-3,1,2,0,0,-1
2.699930,509,-2,-1,0,-2,-2,-2,-2,0
2.701454,510,-1,-3,-6,-8,0,-1,0,-1
2.701481,511,0,0,-1,-4,-2,0,-1,-1
2.713989,512,-2,-1,3,5,-1,0,0,0
2.714001,513,1,-2,2,1,0,-1,-2,-3
2.722985,514,0,0,-7,-4,-2,-1,-1,-1
2.722997,515,-2,-2,2,1,-1,0,-1,0
2.737499,516,0,-2,-2,-2,-2,-1,-3,-2
2.737517,517,-2,0,-1,0,-2,1,0,-1
2.739066,518,-1,-2,-3,-6,0,0,-2,-1
2.739088,519,-1,1,0,1,-4,0,0,-1
2.760123,520,1,-3,2,-4,-3,-4,-1,1
2.760134,521,-2,0,-3,6,0,-2,-2,-1
2.761501,522,-1,-4,2,5,1,-1,0,0
2.761517,523,-4,0,-4,-4,-1,-2,-3,-2
2.773751,524,-1,3,0,-3,0,-1,-1,0
2.773773,525,0,-1,-3,-4,-2,-2,-1,-4
2.782982,526,-2,1,-1,-2,-2,-1,-1,-1
2.782994,527,-2,-4,0,2,-1,0,-1,0
2.797485,528,1,-1,-2,-3,-1,-1,-2,-2
2.799048,529,0,-2,-4,-2,-2,-2,-1,-1
2.799161,530,-2,-1,1,3,-2,-1,-1,-2
2.799169,531,-1,0,-1,-4,0,0,0,-2
2.820076,532,-5,-2,-3,-5,-1,0,-2,-1
2.820099,533,1,1,5,3,-1,-2,-1,0
2.821541,534,-3,-2,-2,1,-1,-1,0,-1
2.821568,535,-1,2,1,-2,-1,-1,-1,-1
2.833643,536,1,0,3,1,0,-2,-1,0
2.833664,537,-2,0,2,1,0,0,-1,-2
2.843179,538,-1,0,3,-4,-2,-1,-1,0
2.843189,539,-2,0,-1,3,-2,-1,-2,-2
2.857454,540,-1,1,-6,-5,1,1,-1,-2
2.857474,541,-1,-2,-2,-1,-2,1,-2,0
2.858989,542,-4,-2,0,1,0,-1,1,1
2.859014,543,-1,-3,-1,-2,0,-1,0,0
2.880040,544,-1,-2,-2,-1,-1,-3,-1,-2
2.880056,545,-3,-4,-4,-2,-3,-2,-1,-1
2.881497,546,-3,-2,-3,-2,-1,-2,-1,-1
2.881594,547,3,-1,-3,0,0,-1,0,-1
2.893750,548,2,3,4,-3,-1,0,-2,-1
2.893772,549,-1,0,-1,3,0,-2,0,1
2.903411,550,0,0,-4,-2,-3,0,-1,-1
2.903426,551,-2,0,3,1,-2,-2,0,0
2.917627,552,0,-4,-5,3,0,1,0,0
2.917657,553,-1,1,-5,-5,0,-1,-1,-1
2.918951,554,-2,-3,3,-7,0,0,0,-1
2.918966,555,0,0,-2,5,-1,0,0,0
2.940043,556,-1,1,4,-1,-1,-2,1,-3
2.940067,557,0,-2,0,-2,0,0,0,-1
2.941676,558,1,0,-3,3,-1,-1,1,-1
2.941688,559,-1,-3,-3,-9,-2,-4,-2,-2
2.953715,560,-3,-2,0,4,0,1,-2,1
2.953730,561,-4,-2,-2,0,1,-1,-1,-1
2.962572,562,-1,0,-3,-6,-2,-2,-2,-1
2.962594,563,4,-1,-1,-2,1,-1,-1,1
2.977423,564,-3,-3,-2,0,0,-1,-1,1
2.977438,565,-1,1,4,-3,-3,-1,-1,-3
2.978989,566,0,-1,-3,1,-2,1,0,1
2.979001,567,-2,0,1,0,-1,0,0,-1
2.999953,568,2,0,-2,-2,-3,-2,-1,-1
2.999971,569,1,-5,-2,-3,-1,-2,-3,0
3.001411,570,1,7,6,2,0,-1,-2,-1
3.001423,571,-1,-2,-7,-3,0,0,1,-1
3.013619,572,-2,-2,-6,-1,-1,0,1,0
3.013635,573,-1,-1,-2,2,-1,0,0,-3
3.023313,574,-1,-4,2,-1,0,-1,0,0
3.023325,575,-7,-4,-3,5,0,0,-3,0
3.037597,576,4,1,0,-4,-3,-2,-3,-1
3.037614,577,-1,0,-2,-2,-1,-1,-2,0
3.040022,578,1,0,0,2,0,0,-1,-1
3.040034,579,-2,1,2,-4,-1,-1,-1,1
3.060287,580,-5,-6,-3,0,-1,0,-1,-3
3.060855,581,-1,-1,-3,-4,-1,-1,0,-2
3.061920,582,-2,1,-2,0,-1,-1,-2,-2
3.061930,583,0,0,-1,-2,-3,0,-1,0
3.074123,584,-2,-1,2,-3,0,-1,-1,-2
3.074438,585,0,-4,-5,-3,-1,-2,-2,-1
3.083737,586,-2,6,4,-2,1,0,-1,-1
3.083748,587,0,-2,0,4,-1,0,-1,-3
3.099451,588,0,2,8,2,0,1,-1,-2
3.099482,589,-1,-4,-6,4,-1,0,0,1
3.100976,590,-1,-2,-3,0,-1,-3,-1,-1
3.100994,591,5,-2,-2,-6,-3,-2,0,-3
3.119994,592,-2,0,-4,0,0,-1,0,-2
3.120017,593,-5,-1,4,-1,-1,0,1,-1
3.121609,594,-1,-2,-2,-1,0,-1,-1,0
3.121632,595,-3,0,-3,1,-1,-1,-3,-2
3.142508,596,-2,-2,-2,-2,-1,-2,-1,0
3.142531,597,0,0,0,-2,-1,-2,-1,-1
3.144195,598,-2,-2,-1,1,-1,-2,-1,-2
3.144219,599,-1,1,-1,-6,-2,-1,-1,0
3.157406,600,0,-4,-4,-2,-1,-1,-3,0
3.157501,601,0,-1,-1,-1,-1,0,-1,-1
3.158971,602,2,-3,6,0,0,1,-1,1
3.158994,603,-4,-1,3,6,1,0,-1,-1
3.180499,604,-1,4,-2,-2,-2,0,0,-1
3.180521,605,0,0,-4,1,-3,0,-1,1
3.181774,606,1,-2,-3,-1,0,1,0,-1
3.181801,607,-3,-1,0,-2,0,-2,-1,-1
3.202623,608,-1,-4,-3,-5,-1,-2,1,0
3.202651,609,-2,0,3,1,-1,-1,-2,0
3.204071,610,-2,-3,-5,0,-1,-1,0,-2
3.204202,611,-2,-4,-3,-3,-1,0,-1,1
3.217584,612,3,2,0,0,-1,0,-2,-2
3.217606,613,-3,-2,-2,-3,-2,-2,0,-1
3.219123,614,1,1,-3,1,-1,-1,-2,-2
3.219136,615,-1,-2,-1,-1,-1,-2,-1,-2
3.240048,616,-1,-1,-4,-7,-1,-1,-2,-3
3.240076,617,-3,-1,5,3,1,0,-2,-1
3.242181,618,1,-3,0,3,0,0,1,0
3.242192,619,0,-3,-2,-2,0,-2,1,0
3.262601,620,-1,3,3,2,1,-1,-2,0
3.262621,621,1,1,0,-4,0,0,0,0
3.264105,622,-2,-2,-6,-1,-3,-3,-1,0
3.264913,623,-3,-4,-1,-2,2,-1,0,-2
3.277562,624,-3,-2,0,3,-1,1,1,-1
3.278780,625,2,2,1,0,1,0,-1,0
3.279042,626,-2,-3,-4,-1,-4,0,-3,-2
3.279055,627,2,3,-1,-2,-1,0,0,-2
3.300131,628,-3,-2,-2,0,-3,-2,-1,-2
3.300147,629,1,-1,-1,-3,-2,-1,1,-1
3.301416,630,0,2,2,-4,0,-2,0,0
3.301424,631,0,0,-3,2,-1,-1,-2,1
3.322467,632,-3,-2,0,2,-1,0,0,2
3.322484,633,-1,-2,0,1,-4,1,-1,0
3.324129,634,-2,0,-2,-3,-1,-1,-1,-2
3.324156,635,-4,-6,-3,-1,-2,-1,-2,-2
3.336762,636,5,0,-3,0,-1,0,-1,0
3.336774,637,-2,0,-3,-4,0,-1,-2,0
3.343724,638,-3,-3,1,-4,-1,-1,-2,-1
3.343753,639,-3,1,-1,3,-2,-1,-3,0
3.359904,640,-3,-7,-4,2,0,-1,1,1
3.359951,641,-1,1,1,3,-1,-2,0,-3
3.361648,642,0,0,1,-3,0,-2,-1,0
3.361666,643,0,-3,-3,-4,-1,-1,-1,-1
3.383337,644,-2,0,-2,-7,-1,0,-1,-2
3.383355,645,0,2,1,5,0,-2,-1,-1
3.383981,646,-2,-1,0,3,0,-2,-1,1
3.383998,647,-3,-1,0,-2,0,0,1,0
3.398053,648,0,1,-1,-3,-2,-2,-3,0
3.398067,649,-2,-4,-3,-1,-1,-1,-2,-2
3.403641,650,-3,-3,-2,1,-1,0,-2,-2
3.403663,651,3,0,-2,-3,1,-2,-2,-2
3.419301,652,-4,2,5,2,-1,-1,-1,-2
3.419318,653,1,-1,0,1,0,1,-1,-1
3.429190,654,-1,-3,-5,2,-2,0,0,-1
3.429203,655,0,1,2,-6,0,-1,-1,1
3.442629,656,-1,-2,0,3,-2,-1,-2,0
3.442656,657,1,0,-1,-4,0,-2,-2,0
3.444253,658,-1,0,1,5,-2,0,1,-2
3.444269,659,-1,-3,-2,-4,0,0,0,0
3.456888,660,-2,-3,-7,-1,-3,-2,-1,-1
3.456906,661,-3,1,1,-3,-1,0,-1,-2
3.463876,662,1,-1,3,-2,1,-3,-2,0
3.463906,663,0,-2,1,1,-2,0,0,-1
3.480058,664,-2,0,-3,0,-1,-1,-1,-1
3.481733,665,4,-4,-7,-5,-2,0,0,-1
3.481748,666,0,-1,3,5,1,0,-2,-1
3.481749,667,-2,-3,-1,2,-3,-2,-2,-1
3.502560,668,0,3,-1,-3,0,-1,0,0
3.503429,669,-4,0,-4,-3,-2,-3,-3,0
3.504043,670,0,-1,-5,-10,-1,-1,1,0
3.504056,671,-2,1,0,5,-1,-2,-1,-1
3.516887,672,-1,-4,3,2,1,0,0,-1
3.516912,673,1,0,0,1,1,0,0,-1
3.523680,674,-1,-1,-1,-4,-1,-1,-1,-2
3.523702,675,-2,-2,-2,-3,1,0,-2,-2
3.540128,676,2,-1,-3,-2,-2,-1,-2,-1
3.540230,677,-7,-3,0,0,0,-1,1,-2
3.541394,678,0,-2,-5,-3,-2,-1,-2,-2
3.541406,679,0,1,2,-1,-2,-1,0,-1
3.562501,680,-1,2,4,1,-3,-1,0,0
3.562518,681,0,-2,-3,1,3,0,-3,0
3.563895,682,-1,-2,-6,-8,-1,-1,-1,0
3.563907,683,0,1,-3,4,0,-2,0,0
3.576896,684,-1,-5,1,5,0,-2,1,0
3.576917,685,0,4,5,2,-1,-2,-1,0
3.583719,686,-4,0,1,-1,-1,-2,1,-1
3.583738,687,1,0,-8,-2,0,2,-1,0
3.599994,688,-3,-2,-4,-3,-2,-1,1,-2
3.600011,689,-2,-2,-2,-3,-3,-1,1,0
3.601522,690,-1,2,1,0,-2,-1,-1,-1
3.601540,691,-3,0,1,-3,-2,-1,-1,-3
3.622663,692,4,-1,-2,0,-1,-1,-2,-1
3.622680,693,-5,-7,-3,-4,-2,-3,-2,-3
3.623895,694,1,3,1,4,-1,0,-1,-1
3.623906,695,-1,-3,-2,-2,-1,-1,-2,-2
3.636185,696,-1,2,2,-4,1,1,-3,0
3.636211,697,1,-2,-1,5,1,-1,1,-2
3.645916,698,-1,-1,2,-3,0,-1,0,-2
3.645928,699,-1,-1,0,1,1,-1,1,-1
3.660361,700,-1,-1,-3,-1,-2,-1,-2,0
3.660453,701,0,1,-7,-6,-4,1,-1,-2
3.661560,702,-2,-4,-4,1,-1,-1,1,1
3.661578,703,4,2,4,-1,-1,0,0,0
3.681582,704,-2,3,5,-1,2,-2,0,-2
3.681601,705,-3,-3,-5,1,-2,-1,-1,1
3.690717,706,2,-2,1,0,0,-2,-2,-2
3.690728,707,-1,0,0,-3,-1,0,-3,-1
3.705271,708,0,-4,-4,-3,-3,-2,-1,-2
3.705299,709,-1,0,1,-6,-1,0,-2,0
3.708341,710,-2,-1,-2,4,-1,-1,-1,1
3.708358,711,0,0,-2,-1,0,-1,0,-1
3.719962,712,-3,0,0,2,0,-1,0,-2
3.719984,713,1,0,0,-4,0,-1,-2,1
3.721639,714,1,3,1,-1,-1,-1,-1,1
3.721795,715,-2,2,6,-1,-1,-1,-1,1
3.742784,716,-1,-1,-4,-2,0,0,1,-2
3.742802,717,0,1,2,0,1,1,0,-1
3.743956,718,3,-6,-6,-2,-3,-1,-1,-1
3.743970,719,-3,3,-3,-3,-1,-2,-1,-1
3.756297,720,-3,-1,3,-1,0,-1,-2,-1
3.756330,721,-3,-4,-4,1,-2,-1,-1,-3
3.765224,722,-1,0,-5,-5,-1,-1,1,-1
3.765235,723,-2,-5,-2,2,-1,-1,0,-2
3.780035,724,0,2,5,-1,0,1,0,0
3.780058,725,-3,0,1,-2,-1,-3,0,0
3.781449,726,-1,-1,0,2,0,-1,-2,0
3.781466,727,-4,-3,-4,-1,0,-1,-1,2
3.802537,728,0,-1,-3,-2,0,-2,-1,-2
3.802552,729,2,-1,1,-1,-1,-1,-1,-1
3.804055,730,0,0,0,0,-1,1,0,0
3.804076,731,-1,-2,-2,-3,-1,-2,-2,-1
3.816121,732,-2,-1,-1,0,-2,-1,-3,-1
3.816139,733,0,2,4,-6,1,0,1,-1
3.825297,734,-2,-1,-5,4,0,-1,-2,-1
3.825309,735,1,2,3,0,-2,-1,0,-2
3.840415,736,0,-1,-2,0,0,0,1,0
3.840434,737,0,-4,-5,-1,-2,-2,-1,-1
3.841470,738,-3,5,7,-1,0,0,-1,-1
3.841500,739,0,0,-1,0,-3,-2,0,0
3.862645,740,-1,-2,-4,-2,0,-1,-2,-1
3.862659,741,-3,-4,-1,-2,-2,-1,-1,0
3.863986,742,-2,-1,-1,-6,0,0,-1,0
3.864030,743,2,-1,-1,7,1,0,-2,0
3.876061,744,-1,0,-2,-6,0,0,-1,0
3.876077,745,1,1,2,1,-1,-1,-1,0
3.885548,746,-1,-3,-2,1,1,0,1,-1
3.885559,747,-4,-3,-2,1,-2,-1,-1,-3
3.900016,748,0,-3,-2,-3,-1,-2,-1,1
3.900033,749,0,4,-1,3,1,-1,-2,0
3.901507,750,-4,-2,0,-5,-2,-2,-1,-2
3.901527,751,0,-1,-4,-5,0,-2,2,0
3.922618,752,-1,-2,-10,1,-1,0,1,0
3.922636,753,-2,-1,5,0,-2,0,0,0
3.924114,754,2,-2,-1,-3,-3,-1,0,-2
3.924136,755,1,0,3,0,0,-1,-1,-2
3.936142,756,-1,0,0,-3,-2,-1,-1,-1
3.936168,757,-1,-2,-9,-3,-3,0,0,-1
3.945773,758,-4,-4,0,-4,-1,0,0,0
3.945785,759,0,8,9,5,1,1,0,-1
3.959992,760,-1,-2,-1,-3,-1,-1,1,0
3.960013,761,0,-1,0,1,-2,-3,-1,-3
3.961606,762,-1,-4,-4,1,2,-2,-1,-2
3.961737,763,0,-4,-4,-6,-1,0,-1,-1
3.982547,764,0,-1,2,2,-1,1,-1,-1
3.982571,765,-3,-4,-2,-2,-1,1,0,0
3.984021,766,-2,0,-3,-1,-3,0,0,1
3.984036,767,-2,-2,-2,-4,-1,-1,-2,0
3.996273,768,1,0,-2,-2,-2,-2,-1,-1
3.996296,769,0,0,-1,-1,0,-1,-1,1
4.005429,770,0,3,2,1,1,-1,0,-1
4.005448,771,-1,-5,-7,0,-2,-1,0,-1
4.020030,772,-2,-2,1,-2,2,-1,-2,-2
4.020052,773,0,-1,-1,0,-1,0,0,-1
4.021577,774,-1,0,4,7,0,-1,0,1
4.021598,775,-4,-2,0,-2,-1,-1,-2,1
4.042465,776,1,-3,-5,-3,-4,-1,-1,-1
4.042487,777,-1,3,-2,-5,-1,0,-1,0
4.044169,778,-1,-2,3,0,1,-2,0,0
4.044181,779,1,-4,0,1,-1,-1,-2,0
4.056376,780,0,-3,-3,-1,-2,-2,-2,-3
4.057424,781,1,-1,2,2,0,-1,-1,-1
4.065226,782,-3,-3,-3,-2,-5,-2,-1,-2
4.065237,783,-2,-1,0,-3,1,1,0,1
4.080971,784,-5,-2,-2,1,0,0,-1,1
4.080982,785,1,0,-3,-2,-1,1,-1,0
4.081581,786,-2,0,-3,-3,-3,0,-3,-2
4.081624,787,-1,-3,-1,-3,-1,-2,0,-1
4.102477,788,0,-2,-4,-2,-1,-1,-1,0
4.102495,789,-2,0,0,6,1,0,-1,-2
4.104008,790,1,2,2,-2,1,1,-2,-1
4.104050,791,-2,0,-3,0,-1,-1,-1,0
4.125167,792,1,1,4,-3,-1,-1,-3,0
4.125201,793,-5,-1,0,-4,-3,-2,-2,-1
4.126596,794,4,0,-2,3,-2,0,-2,1
4.126607,795,-4,-3,0,-4,-1,-1,-1,-2
4.139965,796,1,0,1,0,0,-3,0,-1
4.139989,797,0,-7,-4,-1,-1,-2,0,1
4.141388,798,1,2,-4,-3,-1,-1,0,0
4.141424,799,0,0,-1,-2,0,1,0,0
4.162987,800,-2,0,0,0,1,-1,-1,-1
4.163136,801,1,-2,-2,-2,1,0,0,-1
4.164344,802,-3,-2,-1,-2,-1,-1,0,0
4.164365,803,2,0,-4,1,0,0,0,2
4.184943,804,-2,-1,2,3,-3,1,-2,-3
4.184968,805,1,-1,-3,-3,-2,-1,-1,0
4.186406,806,-1,-3,-6,-6,-3,-1,-3,0
4.186418,807,0,2,3,6,-2,0,-1,-2
4.199960,808,-1,0,1,1,-1,-1,0,0
4.199978,809,-1,3,-2,-3,3,-3,-1,0
4.201543,810,-2,-2,0,-1,0,-1,0,-2
4.201576,811,5,-1,-2,-4,-4,0,-2,0
4.222441,812,-2,-1,-1,1,-1,0,-2,1
4.222462,813,-2,-3,-1,-4,-3,-2,-3,-2
4.224116,814,1,1,1,3,0,-1,0,0
4.224139,815,-4,-3,-1,-5,1,-1,-1,-1
4.244992,816,-1,-4,-9,1,-2,-2,-1,-3
4.245014,817,-2,3,5,3,0,-1,-1,-1
4.246492,818,1,-4,-1,-4,-2,-1,1,0
4.246522,819,-1,-1,-2,-2,-2,-2,-3,-1
4.259367,820,2,-2,-1,1,-1,1,-1,0
4.259391,821,-3,-2,0,-1,-2,1,-2,-1
4.266183,822,1,0,-3,-4,1,1,-1,0
4.266232,823,1,2,5,7,2,-1,0,0
4.283761,824,-3,-1,-6,-4,-2,0,-1,-1
4.283773,825,0,0,-2,2,-2,-1,-2,0
4.284057,826,-3,-2,1,1,-1,0,-1,-3
4.284097,827,-3,-2,-8,-12,-4,-3,-1,-3
4.305000,828,-1,2,5,8,1,-1,-1,-1
4.305021,829,3,1,0,2,-1,0,-1,0
4.306466,830,-7,-2,-6,-1,-1,-1,-1,-1
4.306571,831,5,-2,1,0,1,0,-1,-1
4.319791,832,0,-1,0,-2,-2,-3,0,0
4.319813,833,-2,1,1,-3,-1,0,0,-2
4.329164,834,-1,-3,-2,-2,0,-1,0,-1
4.329180,835,-4,-1,-5,-1,-1,0,-1,-3
4.343025,836,1,0,2,-4,0,-1,0,-2
4.343052,837,0,1,-1,1,-2,-1,-3,-2
4.344654,838,1,-5,3,0,-1,-1,-2,0
4.344667,839,-3,-1,3,0,-2,0,-1,-1
4.364961,840,-3,-2,0,-4,-2,1,-1,-2
4.364982,841,-2,0,-3,-5,0,-2,0,0
4.366621,842,0,1,-2,4,1,0,-1,0
4.366640,843,-4,-2,0,2,-1,-1,0,-1
4.379485,844,-4,-1,-1,-4,-1,-1,-2,-2
4.379577,845,5,0,-1,-3,0,0,-1,-1
4.386144,846,-2,-1,-3,-5,-2,-1,-1,1
4.386161,847,-1,-1,-1,2,-2,-2,-2,1
4.402559,848,0,-1,-2,-1,0,-2,-1,-2
4.402582,849,-1,-6,-3,-1,0,-1,1,0
4.404294,850,-1,5,4,1,-2,-1,-2,-2
4.404306,851,-1,-1,-2,-4,-1,0,0,-1
4.425109,852,-1,-1,1,-2,-1,-1,-1,0
4.425129,853,-1,-2,-3,2,0,-1,-1,-3
4.426398,854,2,1,0,-5,0,-2,1,-2
4.426410,855,-5,-1,-7,-3,-2,-1,1,0
4.439276,856,4,-1,-1,4,0,0,1,0
4.439305,857,-1,-1,-1,1,-1,1,0,-1
4.446095,858,-4,-2,-2,-1,-1,0,-2,-4
4.446117,859,0,1,4,-2,-1,0,-1,0
4.463452,860,1,-1,1,-2,2,-1,0,0
4.463491,861,-2,0,-3,0,-1,-2,-1,-1
4.464385,862,1,-1,-5,-3,-1,-1,-1,1
4.464390,863,-2,0,-1,0,1,0,-2,0
4.484940,864,-5,-1,0,0,-2,0,-1,-2
4.484955,865,0,-2,0,-9,0,-2,-1,-1
4.486468,866,-1,-1,2,9,0,-2,-1,-1
4.486483,867,1,0,2,0,-1,-1,0,-1
4.499378,868,0,-3,-2,-2,-1,-1,-2,1
4.499392,869,-4,1,-5,-4,-3,-1,-1,0
4.506164,870,-2,-2,-3,-2,0,-2,-1,-1
4.506179,871,3,-2,-4,-1,0,-1,-2,-2
4.523532,872,0,1,-1,-3,0,-1,-1,0
4.523559,873,-1,-4,4,3,0,2,0,0
4.526073,874,-2,-1,0,1,0,0,-1,-2
4.526090,875,-2,0,0,-5,0,-3,0,0
4.545988,876,1,2,-5,-1,0,-1,-2,0
4.545999,877,-1,-4,-3,5,0,-1,-2,-1
4.546399,878,1,0,-2,-3,-2,-1,-1,1
4.546414,879,-1,-3,-3,-6,0,-2,-2,1
4.560305,880,-2,-2,0,-2,-3,-2,-2,-2
4.560318,881,-1,1,-2,1,-1,-2,0,0
4.566083,882,-1,-1,4,1,2,2,-1,0
4.566106,883,-2,-2,2,-2,-1,-1,1,-1
4.582521,884,-2,-2,-1,0,-3,0,-1,0
4.582540,885,-2,-3,1,-2,0,0,0,0
4.583957,886,0,-7,-9,-5,-2,-1,-2,-2
4.583987,887,0,6,5,1,0,-1,-3,-1
4.604941,888,-1,-1,-2,-2,-1,-2,0,-1
4.604976,889,-2,-2,-2,-1,-1,-2,-1,-4
4.606393,890,-3,0,1,-4,-3,-2,-2,-2
4.606405,891,-1,-3,-6,7,1,-2,-1,-1
4.618624,892,-1,1,4,2,0,0,0,0
4.618641,893,0,-4,-4,-5,0,-1,-2,-1
4.628230,894,-2,-3,1,1,0,-1,-1,0
4.628245,895,-2,-4,-6,0,-2,-1,0,-3
4.642964,896,-3,0,-3,-8,-3,-2,-1,-2
4.643006,897,-1,2,2,-2,-2,-3,-2,-2
4.645078,898,-1,0,4,0,0,0,-1,0
4.645093,899,5,0,-4,1,-2,0,-2,0
4.665032,900,-1,-1,3,-4,-1,0,1,-1
4.665120,901,-3,-6,-6,-3,-2,-2,-2,-1
4.667160,902,-2,-1,-7,-6,-3,-3,-1,-2
4.667172,903,-2,1,8,3,1,-1,-1,-2
4.678728,904,-1,3,0,0,1,-1,-2,-1
4.678749,905,0,6,5,1,2,-1,2,2
4.689002,906,-3,-3,-2,0,-1,-2,0,-3
4.689014,907,-2,-3,-4,-9,-5,-1,-1,-2
4.702853,908,-2,-2,-3,1,0,-1,-2,-1
4.702890,909,-4,-1,-2,-3,-2,0,-2,-3
4.703936,910,0,3,-3,-1,0,-1,0,0
4.703980,911,0,0,4,0,0,-1,-2,2
4.725310,912,0,-2,-1,1,-2,0,0,-1
4.726235,913,-2,-2,-3,-5,-1,-2,-1,1
4.726579,914,-1,1,2,7,-1,0,0,-1
4.726624,915,2,-4,-3,-4,0,1,-1,-1
4.738797,916,-3,0,-1,-3,0,-1,0,0
4.738819,917,1,-4,-3,0,1,-1,-3,-2
4.747513,918,1,0,3,0,2,-2,-2,1
4.747532,919,-3,0,-1,-2,-1,-1,0,-1
4.762482,920,0,-2,-2,1,0,-1,0,-2
4.762498,921,-4,0,3,-3,-3,0,0,-1
4.763921,922,-3,-3,-4,-4,-1,-2,-1,-2
4.763929,923,-2,-1,-2,-1,-1,-1,0,1
4.785030,924,1,1,-2,-1,0,-2,-1,0
4.785051,925,0,-2,-1,3,-1,0,0,0
4.786843,926,-1,1,1,0,0,-1,0,-1
4.786855,927,0,-2,-4,-4,0,0,-1,0
4.798565,928,-3,-4,0,0,-2,-2,-2,-1
4.798584,929,0,1,3,2,-1,0,0,0
4.808347,930,0,-3,-4,-1,-2,-2,-1,1
4.808362,931,-2,-3,-3,-3,-3,-1,-1,-1
4.824154,932,-1,1,0,-1,-1,1,-1,-1
4.824168,933,2,1,-2,1,0,0,-1,-1
4.824170,934,-3,-4,-1,-3,-2,-1,-2,0
4.824172,935,0,-1,-3,1,-1,-1,0,-1
4.844977,936,-2,-1,3,3,-1,0,1,-2
4.844992,937,-1,1,2,1,0,-2,-2,-2
4.846386,938,3,-3,-5,-4,0,1,0,-1
4.846397,939,-2,1,5,-3,0,0,-2,-1
4.859180,940,-2,-3,-4,1,-1,-2,0,0
4.859209,941,-1,-2,-4,0,-2,-1,0,-1
4.868669,942,-3,6,7,-4,-2,0,-1,0
4.868683,943,1,-1,-4,3,-1,0,-1,-1
4.882543,944,2,-2,1,-4,-2,0,-2,1
4.882564,945,-1,-1,4,7,0,-1,-1,0
4.885175,946,-1,-2,-3,-3,1,-1,-3,1
4.885187,947,-1,1,0,-1,-3,-1,-1,0
4.905050,948,-2,-3,-3,-5,-2,-3,-1,1
4.905072,949,0,-1,0,-1,1,1,-3,-1
4.906433,950,0,-2,-7,-3,-2,-1,1,-2
4.906449,951,-1,-1,-1,-2,-2,-2,-2,-1
4.918840,952,0,-1,-2,2,0,0,0,-1
4.918858,953,-3,-2,-1,-5,-1,-2,-1,-2
4.929282,954,-3,0,5,4,1,-2,-1,0
4.929294,955,-2,-4,-3,-2,0,-2,0,-1
4.942689,956,-1,-1,0,-5,-2,0,-1,-2
4.942717,957,-2,0,-2,0,-1,-2,0,-1
4.944364,958,-1,1,-1,-3,1,-1,-1,-1
4.944375,959,-1,0,2,3,1,1,0,-2
4.964901,960,-3,-4,-8,0,-2,-1,-2,-2
4.964914,961,-1,1,2,-4,-2,0,-1,0
4.966436,962,2,0,3,1,-3,-3,-2,0
4.966482,963,-3,-1,0,0,-1,-2,1,0
4.978563,964,1,-1,3,2,1,1,-1,0
4.978605,965,1,-1,-5,-6,0,-2,-1,-2
4.987570,966,-4,-1,-6,-4,-1,1,-2,-1
4.987581,967,-3,-3,4,2,-1,-1,-1,-2
5.002545,968,0,0,-6,-1,-1,0,-3,0
5.002567,969,-1,-1,-2,1,0,-1,-1,1
5.004402,970,1,0,-1,1,0,-3,-2,-2
5.004418,971,-3,-2,-3,-3,-1,-3,0,-1
5.026057,972,1,1,0,-5,0,-2,-2,-4
5.026075,973,-3,-2,-2,-1,0,-1,0,1
5.026622,974,3,1,0,2,0,1,1,0
5.026638,975,-4,-3,-2,5,-2,-1,-2,-2
5.047569,976,-1,0,1,1,-1,0,-1,0
5.047588,977,-1,-2,-1,-2,-2,-2,-2,-4
5.049347,978,-3,-3,-2,-1,-1,-2,0,-2
5.049359,979,0,4,-1,-1,-3,1,-2,-1
5.062668,980,-1,1,2,-3,2,-1,-1,-1
5.062696,981,0,-3,-3,2,-1,-2,-1,0
5.063886,982,-2,-1,-1,0,-1,0,-1,-1
5.063898,983,-3,-2,5,-4,-1,2,-1,1
5.085002,984,2,-1,-4,4,-2,0,0,-1
5.085023,985,1,1,6,-1,-1,1,-1,0
5.086574,986,-5,-5,-11,1,-1,-1,0,-2
5.086633,987,1,0,-3,-4,-2,-4,-1,-2
5.107697,988,-4,-1,0,-4,-3,0,-3,-1
5.107721,989,-2,1,1,-5,-1,-2,-2,-1
5.109182,990,0,-1,5,4,-3,-1,-2,0
5.109203,991,-1,0,-1,-2,-1,-1,-1,0
5.122585,992,0,2,5,0,0,-1,0,0
5.122615,993,-1,-2,-8,-2,-2,-1,-2,-2
5.124712,994,0,-1,2,-2,0,-1,0,0
5.124732,995,1,-3,-6,-2,1,1,-1,0
5.145132,996,-3,-3,-3,-2,-2,-2,1,-1
5.145157,997,-2,1,3,-3,-2,1,-3,-1
5.146500,998,-1,-1,-1,-1,-2,-1,-1,-1
5.146512,999,-2,-1,3,-1,2,-2,-2,-3
5.167393,1000,-2,-3,-2,6,0,1,1,-1
5.167551,1001,-1,-4,-6,-1,0,0,1,2
5.168945,1002,-1,-3,0,-1,0,-2,-2,-1
5.168956,1003,-1,-2,-8,-9,-2,-2,-1,0
5.182380,1004,-2,-1,-4,-1,1,-2,-1,-2
5.182396,1005,-1,1,9,5,-1,-2,-1,-1
5.183897,1006,-2,3,1,0,-1,0,-1,-2
5.183943,1007,0,-1,-4,-1,0,-1,-1,-1
5.204972,1008,-2,-2,1,-2,0,-1,-1,-2
5.204993,1009,-1,-4,-3,-1,-2,0,0,-1
5.206481,1010,-3,-1,1,-5,0,-1,0,0
5.206494,1011,1,0,4,7,-1,-1,1,-1
5.227361,1012,-2,-2,-5,-3,-4,-1,-1,-1
5.227379,1013,1,-3,0,-1,0,1,-1,-1
5.229026,1014,1,7,3,-3,-1,-1,-1,0
5.229044,1015,-2,-3,-2,-2,0,0,0,0
5.241784,1016,-1,0,-2,1,0,-1,-1,-1
5.241835,1017,0,0,0,-3,1,0,-1,-2
5.248654,1018,0,-2,-2,5,1,-1,0,0
5.248677,1019,-1,1,2,0,-2,-2,-2,-1
5.264887,1020,1,-2,0,0,-1,0,-1,-1
5.264903,1021,-3,0,-6,-4,0,-1,-2,-2
5.266512,1022,0,-3,-4,-4,-2,-1,-1,0
5.266558,1023,0,-1,-1,-3,0,-1,-1,-1
5.287343,1024,-2,0,1,1,-1,-1,-2,-1
5.287355,1025,0,2,-3,0,-1,-1,0,-1
5.288880,1026,-5,-3,-2,0,1,-1,-1,-1
5.288893,1027,0,-1,-2,0,-1,-2,0,-2
5.301719,1028,-3,1,-1,-3,0,-1,-1,1
5.301734,1029,1,-4,-3,0,-3,0,-1,-2
5.308649,1030,4,0,1,3,0,-1,-2,-1
5.308675,1031,-2,0,-4,-4,-1,-1,-1,1
5.325017,1032,-3,1,7,4,-1,-4,-1,-1
5.325039,1033,-2,-2,-2,0,0,-2,-1,1
5.326558,1034,1,-3,-5,-7,-3,0,0,-2
5.326579,1035,-1,-1,0,3,-1,-1,0,-1
5.347560,1036,0,1,1,0,-1,0,1,0
5.347583,1037,-1,-5,-1,1,0,0,-2,0
5.349112,1038,-5,3,0,-4,-4,-1,-3,-2
5.349131,1039,-1,0,-3,-6,-2,-2,-1,-1
5.361832,1040,-5,-2,-1,0,-2,-1,-2,-1
5.361851,1041,6,1,1,-1,0,-1,0,1
5.368568,1042,-4,-3,-2,-1,0,0,-1,0
5.368590,1043,-1,-3,1,0,0,1,-2,-2
5.385138,1044,3,0,-1,-3,-2,0,-1,-3
5.385165,1045,-5,-1,-1,2,1,-1,1,-1
5.386657,1046,-1,-2,-1,-3,-2,-1,-2,-1
5.386684,1047,-2,1,-1,4,0,-1,0,-1
5.407826,1048,1,0,0,-5,0,-2,0,0
5.407853,1049,-4,-1,-5,2,-1,0,-1,-1
5.409685,1050,0,2,5,3,2,1,-1,-1
5.409699,1051,0,0,-3,-1,-2,-1,0,-2
5.422375,1052,-4,-4,-4,-4,-2,-1,-1,0
5.422415,1053,0,2,1,0,-3,-2,-1,-2
5.428679,1054,0,-2,-1,-1,1,-2,0,-2
5.428697,1055,-2,-1,-3,-1,-3,1,0,-2
5.444977,1056,2,1,-1,0,2,2,0,-1
5.444991,1057,-2,-1,-1,-3,-1,-2,-2,1
5.446381,1058,-1,-5,-11,0,-2,-2,0,-1
5.446393,1059,1,10,14,1,2,-1,-2,0
5.467372,1060,-2,-2,-2,-2,-3,-3,-1,-1
5.467390,1061,-2,0,-1,0,-1,1,0,0
5.468910,1062,-2,-5,-3,-3,-3,0,-1,-2
5.468923,1063,-2,-3,0,0,-2,-3,-1,0
5.482003,1064,2,-1,-4,-7,-1,0,-1,0
5.482019,1065,1,1,2,7,0,0,0,0
5.488615,1066,-1,-2,-3,0,-1,-1,-1,-2
5.488632,1067,0,-3,-2,-1,-1,0,-1,0
5.504892,1068,0,1,2,1,1,0,-1,1
5.504904,1069,-3,-4,-1,-6,-2,-3,-1,-2
5.506447,1070,-2,1,-1,-1,-1,-1,0,0
5.506456,1071,0,-2,-2,-2,-1,0,-1,-1
5.527606,1072,-1,-2,-4,0,0,-3,-1,0
5.527622,1073,0,2,-1,-5,-1,0,1,-2
5.528863,1074,-1,1,1,0,0,-2,-1,0
5.528873,1075,1,-2,-5,-1,1,0,-1,-2
5.541424,1076,-2,-4,-3,-3,-1,0,-1,-1
5.541442,1077,-3,0,-1,-2,-2,-2,-2,0
5.550056,1078,0,0,0,-3,0,0,0,0
5.550066,1079,-3,0,-2,-4,0,-2,-2,-1
5.565074,1080,-1,0,2,7,-1,0,-2,0
5.565091,1081,-1,0,2,0,0,0,0,-1
5.566396,1082,-2,-2,0,2,-3,-1,-3,-1
5.566401,1083,-2,1,-3,-5,-1,-1,1,1
5.587558,1084,3,2,3,3,-2,-1,-1,0
5.587580,1085,-1,-1,1,-3,-1,0,-1,0
5.589317,1086,-2,-2,2,-1,0,0,-1,-3
5.589329,1087,0,-3,-2,-1,-2,0,0,-1
5.601226,1088,-4,-2,-1,-5,-2,-2,0,-2
5.601248,1089,1,-1,-5,0,1,-2,-1,-1
5.611925,1090,0,0,1,0,-2,-2,-1,0
5.611946,1091,-4,0,0,0,0,-1,-1,-1
5.625006,1092,0,-3,-3,-4,0,0,-1,-2
5.625024,1093,-3,0,-2,-1,-2,-1,-1,-1
5.626837,1094,0,0,2,1,0,-2,0,1
5.626854,1095,1,2,4,3,1,0,1,1
5.647697,1096,-2,-2,0,-1,-1,-2,-1,-1
5.647760,1097,-2,0,-2,-6,0,-1,0,-1
5.649534,1098,1,-5,-10,-1,-1,0,-1,0
5.649544,1099,0,1,1,0,-2,-1,-1,-1
5.661142,1100,0,1,0,1,-1,-1,-1,0
5.661200,1101,1,-2,-1,0,0,-1,-1,0
5.670785,1102,-2,0,0,-2,-3,-1,0,-1
5.670800,1103,-1,-5,-6,-4,-1,-1,0,-1
5.684918,1104,0,-2,-2,0,-1,0,1,0
5.684943,1105,-1,2,3,2,-1,-1,-1,-2
5.687131,1106,0,-1,-2,-4,0,0,-1,-1
5.687143,1107,-3,-3,-3,1,-3,-2,0,-2
5.707547,1108,0,0,-2,-1,2,0,0,-1
5.707560,1109,0,-1,-2,0,0,0,0,0
5.708912,1110,-1,1,1,0,1,-4,-1,-1
5.708926,1111,0,0,3,0,1,1,-1,0
5.722092,1112,-2,-4,-5,-3,-1,-2,-1,0
5.722116,1113,-1,-2,-5,-4,-3,-2,-2,-2
5.730758,1114,-1,0,0,-3,-1,1,-1,0
5.730771,1115,1,-1,1,1,-3,-1,-2,-1
5.745043,1116,-3,5,0,-4,0,-2,-1,-1
5.745063,1117,-3,-5,0,4,-1,-1,-2,0
5.747482,1118,3,1,-2,1,1,-2,1,-3
5.747492,1119,0,-3,-3,-5,-2,-3,-1,-2
5.767896,1120,2,-1,-1,4,-1,-1,-1,-2
5.767911,1121,-4,-3,-3,-6,-1,0,0,-3
5.768944,1122,-2,1,-2,-5,-1,0,1,3
5.768955,1123,0,1,4,9,1,-1,-2,-1
5.781110,1124,2,1,-1,-3,-1,0,-2,0
5.781131,1125,-5,0,-1,-1,-3,-1,-2,-2
5.790246,1126,-2,-1,0,0,-2,-1,-1,1
5.790257,1127,-4,-4,-7,-5,-2,-3,-2,-3
5.805158,1128,-2,0,-1,0,-3,-1,-1,0
5.805186,1129,3,0,9,3,0,0,0,0
5.806418,1130,0,-2,-5,-2,-1,0,-1,-2
5.806426,1131,-1,0,1,-4,0,-1,-1,-1
5.827543,1132,-2,0,2,2,-1,-1,0,-2
5.827566,1133,-1,-2,-7,-3,-3,-2,1,0
5.829667,1134,1,1,1,1,-1,-3,-2,-3
5.829678,1135,1,-6,-4,-3,2,0,0,2
5.841164,1136,-3,0,0,5,-2,-1,-1,-3
5.841179,1137,0,0,0,-1,1,-1,0,-1
5.851951,1138,-3,-1,-1,0,2,-2,-1,-1
5.851964,1139,-2,-2,-5,-8,-1,-1,0,-2
5.865058,1140,2,-2,0,3,-1,1,-2,-1
5.865078,1141,0,3,4,-1,0,0,1,-1
5.866569,1142,1,-1,-4,3,0,-2,-1,-1
5.866583,1143,-1,-1,-3,-2,0,-2,-2,-1
5.887609,1144,1,-3,-2,-6,-3,0,-2,0
5.887630,1145,-1,-4,-7,-3,-2,-2,-2,-1
5.888882,1146,-3,-3,-2,-2,0,1,0,-1
5.888902,1147,-2,2,5,4,-1,-1,0,-2
5.901110,1148,-1,-4,-8,-4,-1,-2,0,-1
5.901135,1149,5,3,-6,-1,-2,-1,-2,-1
5.910288,1150,0,2,4,-1,-1,-1,-1,0
5.910299,1151,-1,-1,-2,-1,-2,0,0,0
5.924938,1152,-3,-5,-4,-5,1,-1,0,0
5.924956,1153,0,4,5,6,1,2,-3,-1
5.926437,1154,-1,-1,-3,-5,0,-1,-2,1
5.926495,1155,1,2,2,5,-2,1,-2,0
5.947827,1156,0,0,-3,-5,-2,0,0,1
5.947847,1157,-2,-4,-2,-2,-1,0,0,-1
5.949644,1158,-1,1,1,0,-1,-1,-1,-2
5.949659,1159,-2,-2,-2,-2,-2,-1,-2,-2
5.961465,1160,-3,-2,2,-1,1,-3,-2,-2
5.961495,1161,-3,0,0,-1,-1,-2,0,-1
5.971843,1162,-2,0,6,2,0,-2,-2,-3
5.971855,1163,0,-1,-2,3,-1,0,-1,1
5.985357,1164,-2,0,0,-6,1,0,-1,-2
5.985385,1165,-5,-3,-2,1,-2,-1,-1,0
5.987507,1166,6,0,-3,-1,-2,1,-2,-1
5.987523,1167,0,1,2,-2,-1,-1,-1,-2
6.007735,1168,-2,-1,1,2,-1,-2,0,-1
6.007817,1169,-6,-2,-2,-7,-2,-3,-1,-1
6.009026,1170,-1,-1,0,-3,0,0,1,2
6.010105,1171,1,-1,-1,-2,2,-1,-2,0
6.030053,1172,-2,9,5,-3,-1,-2,-2,-1
6.030081,1173,0,-7,-3,1,0,-1,1,0
6.032859,1174,0,1,9,3,0,1,1,1
6.032870,1175,-2,1,1,0,-1,-2,0,-2
6.045469,1176,-3,-3,-1,1,-2,-1,0,0
6.045496,1177,3,1,-4,-4,-1,-2,-1,-1
6.047092,1178,1,0,-4,-1,-3,-1,0,0
6.047105,1179,-3,-4,-1,-3,0,0,0,-2
6.067396,1180,-1,-2,-3,3,-1,0,0,-2
6.067409,1181,1,0,-2,1,-1,-2,-1,-1
6.068943,1182,-4,-3,-2,-2,1,0,-1,0
6.068958,1183,0,0,-3,-4,-2,0,-1,1
6.090030,1184,2,-3,-1,-3,-2,0,-1,-1
6.090046,1185,0,3,0,0,0,0,-1,-1
6.091895,1186,-4,-3,-1,-2,-1,-3,-1,-2
6.091910,1187,-1,1,-1,-2,-1,0,-1,-1
6.105138,1188,-2,-1,-4,1,-1,-1,-2,-2
6.105156,1189,1,-2,2,-1,-1,0,-2,1
6.106376,1190,-5,0,1,-3,0,0,-1,-2
6.106394,1191,-1,2,3,8,1,0,0,-1
6.127606,1192,2,-7,-8,-5,-3,-2,1,0
6.127634,1193,0,1,0,-6,-1,-1,-1,0
6.129575,1194,-4,-2,-7,1,-2,-1,-2,0
6.129586,1195,-1,-5,-3,-4,-1,-1,-2,-1
6.149879,1196,-2,0,3,1,0,-2,-1,-2
6.149902,1197,-2,1,-1,1,2,0,0,-1
6.151406,1198,2,-5,3,0,0,1,-2,0
6.151421,1199,0,-2,-3,-5,-2,-2,-2,-1
6.164463,1200,-3,-1,-1,-2,-1,1,-2,-1
6.164586,1201,-3,-3,-3,-5,-3,-1,-1,-1
6.171786,1202,-2,1,-6,3,0,0,0,-1
6.171824,1203,-2,1,0,1,-1,-1,0,-1
6.187597,1204,0,-2,-4,-4,-2,-1,-2,-3
6.189231,1205,-2,0,5,-1,-2,1,-2,-2
6.189243,1206,-1,-1,0,3,-2,0,1,-1
6.189244,1207,-1,0,-2,-5,0,-2,0,-1
6.210227,1208,-5,-1,1,2,3,-1,0,1
6.210295,1209,5,-5,-2,-2,0,-1,-2,-2
6.211478,1210,-4,0,-4,-8,-4,-4,-2,-2
6.211557,1211,1,2,-1,6,0,0,0,-1
6.224259,1212,1,3,3,-2,-1,-1,-1,2
6.224276,1213,-1,-4,-1,1,0,-2,-1,-1
6.231129,1214,-2,-2,1,0,-1,-1,-3,-2
6.231150,1215,0,-4,-3,-2,-1,0,0,-1
6.247732,1216,-1,-1,-2,-1,-2,-1,0,-3
6.247755,1217,-3,-1,-5,0,-1,-3,-1,1
6.249818,1218,5,0,-4,-5,-3,0,0,0
6.249832,1219,-1,0,-3,-3,-3,-2,-1,-1
6.270185,1220,-1,3,7,5,2,0,-2,0
6.270201,1221,-3,-1,4,3,0,1,0,0
6.271386,1222,1,0,1,0,1,0,-1,0
6.271398,1223,0,-5,0,2,-1,-1,-2,-2
6.284774,1224,-1,0,-4,-4,-1,1,-1,-1
6.284791,1225,-1,-2,-3,1,-4,-1,-1,-1
6.291475,1226,-4,-2,1,-4,0,-1,-1,-2
6.291496,1227,-5,-2,-6,-6,-1,0,0,1
6.315453,1228,5,-1,0,4,0,-1,-1,-3
6.315467,1229,-1,0,0,0,0,0,0,-1
6.316626,1230,-2,-8,0,-1,-1,-1,-1,-2
6.316649,1231,0,4,-4,-4,-2,-1,-3,-1
6.332020,1232,0,-3,-4,-1,2,0,1,0
6.332032,1233,1,-1,-2,-2,0,-1,-1,0
6.332034,1234,1,2,5,5,-1,-2,-1,-1
6.332035,1235,-4,-3,1,2,1,-1,-1,-1
6.344256,1236,-5,0,-1,-5,-2,-3,0,-3
6.344278,1237,-3,-2,-4,-4,-1,-2,-1,-2
6.351062,1238,0,1,-4,-2,0,0,1,-2
6.351083,1239,-2,-4,-1,-3,-2,-1,-2,0
6.367540,1240,0,-1,1,3,-1,0,0,0
6.367558,1241,-1,0,-1,-2,0,0,-2,-2
6.369202,1242,-6,1,-3,2,-2,-2,-1,-1
6.369217,1243,5,1,1,-1,-1,-1,-2,0
6.390031,1244,-1,-3,-1,-2,0,-1,-1,0
6.390052,1245,-3,-1,2,0,-1,1,-1,-2
6.392081,1246,3,-3,0,-5,0,1,1,-1
6.392098,1247,-1,0,0,3,1,0,-1,-1
6.404417,1248,-1,0,-7,-7,-3,-2,-1,-1
6.404444,1249,-1,-2,2,8,0,-2,0,-1
6.411250,1250,-3,4,1,3,2,0,-1,0
6.411272,1251,3,-1,2,1,0,-1,1,0
6.427459,1252,-1,-3,-3,-2,-1,-2,-2,0
6.427477,1253,0,0,-4,-5,-2,1,-1,1
6.428977,1254,-2,-6,-7,-4,-2,-2,-1,-1
6.428994,1255,-5,0,0,-4,-3,-1,-2,-1
6.450368,1256,-1,-2,-2,0,0,1,0,0
6.450397,1257,3,2,-3,-2,1,1,-1,0
6.452608,1258,-1,-3,1,2,-1,0,-2,-1
6.452623,1259,1,-1,-2,-2,0,-3,-2,-1
6.464444,1260,-2,1,-1,-1,-2,-2,0,1
6.464472,1261,-3,-1,0,-4,-3,-1,-1,0
6.471217,1262,-3,0,-1,-1,-2,-1,-2,-3
6.471237,1263,2,2,-1,-5,-2,-1,1,-1
6.487388,1264,2,-1,-2,5,-1,-1,-2,-1
6.487400,1265,2,-1,2,4,0,-1,0,-2
6.489069,1266,-2,0,1,2,-2,-2,-3,-1
6.489086,1267,0,-5,-10,-4,-1,-1,-1,-1
6.509926,1268,-2,6,11,2,-1,1,0,0
6.511265,1269,0,-3,-1,-1,-1,-3,0,-1
6.511427,1270,-1,-3,-3,-4,-2,-2,-2,-2
6.511439,1271,-1,-1,-2,0,0,-1,1,-1
6.524057,1272,-2,-4,-3,-5,-3,-2,-2,0
6.524089,1273,0,1,1,0,-2,-1,-2,-1
6.534255,1274,3,2,-1,-2,1,-2,1,0
6.534271,1275,-2,-2,0,2,-1,-2,0,-3
6.547588,1276,-2,-2,-4,-1,-1,-2,-1,-1
6.547697,1277,-2,-1,-3,-6,-1,-1,-2,0
6.549768,1278,-2,-1,3,-2,0,1,-1,-1
6.549783,1279,0,0,0,3,0,-2,0,0
6.570017,1280,-2,-4,-2,0,0,1,-3,-1
6.570037,1281,0,-3,-3,-2,-1,-2,0,-2
6.571433,1282,0,1,1,-2,0,0,0,-1
6.571486,1283,1,-3,1,-1,0,0,-2,-1
6.583932,1284,-2,-2,0,1,-1,-2,-1,0
6.583950,1285,-2,3,-3,-2,1,-2,-2,-1
6.593247,1286,1,-1,-3,2,0,-1,0,0
6.593257,1287,-2,2,1,0,-2,0,-1,-2
6.607597,1288,-1,-6,-6,-5,-1,-2,-1,0
6.607618,1289,-4,-1,0,-2,0,0,-1,0
6.609526,1290,-2,-1,-5,-1,-1,-1,0,-1
6.609541,1291,0,1,3,0,0,0,-1,-2
6.629921,1292,0,0,1,-1,-1,-1,-1,-1
6.629939,1293,0,-2,-2,-2,-2,-2,0,-1
6.631520,1294,-1,-2,0,-2,1,-1,0,0
6.631532,1295,-1,-2,-4,3,-2,0,-3,-1
6.643661,1296,1,1,-2,-5,-1,-2,-2,0
6.643675,1297,1,1,0,-6,-2,-3,0,-2
6.653693,1298,-1,1,4,8,0,-1,0,0
6.653705,1299,-2,-1,1,-4,-1,-3,-2,-1
6.667731,1300,0,0,1,2,4,2,1,-2
6.667816,1301,-1,-4,-4,0,0,-1,-1,-1
6.669224,1302,-2,0,-3,-5,-2,-2,-1,-1
6.669233,1303,-1,4,4,3,-1,0,1,-1
6.689917,1304,-2,1,1,-3,1,-2,-2,-2
6.689953,1305,-3,-4,-1,4,0,0,0,0
6.691421,1306,-3,-3,-2,-5,1,1,-3,-1
6.691427,1307,-2,-3,-6,-2,-3,-2,-2,0
6.704084,1308,0,0,2,-3,-3,-1,-1,1
6.704098,1309,0,1,2,0,0,2,0,-1
6.713517,1310,-1,-1,-2,-2,-1,1,-1,-3
6.713527,1311,0,-4,-4,-9,-1,0,-3,1
6.727750,1312,-1,2,3,9,-1,-1,1,-1
6.727768,1313,-4,-1,1,-1,0,-1,-2,-3
6.729365,1314,1,-3,-6,-3,-2,-1,0,2
6.729376,1315,2,3,0,-2,-2,-1,-1,-1
6.749904,1316,-3,-5,-5,-4,-1,-1,-2,-2
6.749926,1317,1,1,4,5,-2,2,-2,-3
6.752524,1318,0,2,-2,0,0,-2,0,1
6.752534,1319,-2,-2,-3,-2,-2,-1,0,-2
6.763967,1320,-2,-2,-4,-3,-1,-1,-1,-2
6.763988,1321,1,6,4,-4,-2,0,-2,2
6.774486,1322,-1,-3,3,-2,-1,0,-2,-1
6.774497,1323,-2,-1,-2,-1,-1,1,0,0
6.787941,1324,-1,0,-1,0,0,-3,-1,0
6.787973,1325,0,-3,-7,-5,-1,-1,0,0
6.790466,1326,0,1,0,0,-2,-1,-2,-1
6.790476,1327,0,-3,0,2,-2,0,2,1
6.810424,1328,-3,1,0,4,-1,1,-2,-1
6.810455,1329,-3,-1,-3,-1,1,-2,0,0
6.812558,1330,2,-2,-2,-7,-2,-1,-1,0
6.812570,1331,-2,0,2,4,0,0,-1,-1
6.823921,1332,2,0,-5,-3,-2,0,-1,-1
6.823950,1333,-1,1,4,1,0,-2,-1,-2
6.832780,1334,-1,-3,-3,-3,1,1,0,0
6.832805,1335,0,-2,-2,-3,2,1,-1,-1
6.847372,1336,-4,-2,4,0,-2,-1,0,-1
6.847390,1337,0,-3,-3,0,-1,-2,-2,-1
6.848943,1338,-2,-1,-7,-4,-4,-3,-1,-4
6.848956,1339,-1,4,3,-1,-2,-1,-2,-2
6.869983,1340,-1,0,7,1,1,-1,0,-3
6.870004,1341,1,-2,-4,-2,-1,-1,0,0
6.871900,1342,-3,-4,-2,-3,-3,-2,-1,-2
6.871911,1343,0,-2,-5,-1,-3,-1,-1,-2
6.883713,1344,-1,0,-5,-4,-3,-1,-2,-1
6.883736,1345,-2,0,2,-2,1,0,0,-3
6.892525,1346,0,0,3,1,2,0,-1,-2
6.892538,1347,-3,-3,2,0,2,-1,1,0
6.908714,1348,2,0,4,-4,0,0,-1,0
6.908725,1349,-1,-5,-4,0,-1,-2,0,0
6.908875,1350,-1,-2,-1,0,-2,0,-1,-1
6.908882,1351,-1,-2,-6,-6,-2,-2,-3,0
6.930402,1352,-1,-1,1,-2,-3,0,-1,-1
6.930429,1353,-1,1,-1,-4,-1,-1,-1,-3
6.931709,1354,0,0,4,10,3,0,-1,1
6.931717,1355,1,4,3,5,0,0,1,1
6.952643,1356,-2,-3,0,-5,0,-1,-2,-1
6.952663,1357,-1,-1,-4,-2,-3,0,0,0
6.954225,1358,-2,-3,-5,-6,-3,-2,-3,-1
6.954236,1359,-2,-4,1,-1,1,0,-2,-1
6.967580,1360,-3,0,-3,1,0,-1,1,0
6.967608,1361,2,0,0,-2,0,-1,-1,-1
6.969783,1362,-1,0,-2,-1,0,-2,0,-1
6.969794,1363,0,-1,-3,-3,0,-1,0,0
6.990216,1364,-3,-2,-3,-2,-1,0,-2,-1
6.990245,1365,-3,1,-1,1,-3,-1,-1,-1
6.991611,1366,-1,-4,-1,0,-1,-2,-2,0
6.991635,1367,-1,0,2,-1,-2,-3,-2,-1
7.013044,1368,0,-2,-7,-8,-1,-2,-1,-1
7.013083,1369,-3,-1,2,11,-1,-1,0,-1
7.015291,1370,-1,0,-2,-3,-1,0,-3,-2
7.015304,1371,-1,4,8,0,0,-1,-1,-2
7.027608,1372,-1,-1,-2,3,1,-1,0,1
7.027633,1373,0,-1,-1,-9,-3,-3,0,-1
7.029333,1374,0,-1,1,0,-2,-1,-2,-1
7.029343,1375,-2,-6,-4,0,-1,1,0,-1
7.049349,1376,1,0,-3,0,-2,-1,0,0
7.049372,1377,2,-1,1,-1,0,1,-1,1
7.052084,1378,-3,0,-3,2,-2,-1,-1,-1
7.052089,1379,0,-2,-4,-3,1,0,-1,-1
7.071750,1380,-2,-2,2,-4,-1,-2,-1,-1
7.071773,1381,-2,-4,-8,5,0,0,-1,0
7.073134,1382,0,2,1,-7,-1,-2,0,1
7.073146,1383,1,1,1,5,-2,-1,-2,1
7.087226,1384,0,2,3,2,-2,1,-1,0
7.087247,1385,-2,-3,-3,-2,-1,0,-1,-2
7.088385,1386,-2,0,-2,-1,0,1,-1,-1
7.088401,1387,-2,0,-4,-8,-2,0,-1,-2
7.110690,1388,-2,-2,-1,1,1,0,-1,-1
7.110701,1389,1,0,-1,-3,0,-2,-1,-3
7.110703,1390,1,-2,1,2,-1,-2,0,-1
7.110704,1391,-1,0,-2,-3,-1,-2,0,-2
7.131834,1392,-2,1,-2,-3,-1,-2,-3,-4
7.131854,1393,-3,-4,-8,-5,-1,-2,1,0
7.133675,1394,1,1,6,5,0,-2,-1,-1
7.133681,1395,-3,-3,-2,-1,0,-2,0,-1
7.146891,1396,1,-1,-1,-1,0,-2,-1,-2
7.146913,1397,-3,-1,-2,-2,-1,0,-2,0
7.149172,1398,3,0,-3,-3,-1,-1,-1,-1
7.149183,1399,0,-2,1,-1,-3,-2,-1,1
7.169261,1400,-2,1,1,2,-3,-2,-1,0
7.169322,1401,5,1,2,-3,-1,-1,-2,-2
7.170029,1402,-5,-6,-5,-1,-1,0,1,0
7.170034,1403,-3,-2,-1,-1,-1,-2,-2,-3
7.191922,1404,1,-1,-1,2,1,0,-2,1
7.191946,1405,-4,1,3,-1,0,0,-1,1
7.192588,1406,0,0,0,-4,-1,-2,-2,-2
7.192607,1407,-1,-2,-3,-1,-2,0,-1,-1
7.206931,1408,-1,-3,-1,3,-1,-2,0,-1
7.206955,1409,-1,0,3,-2,-2,-1,-1,-1
7.207806,1410,0,-1,-2,0,-2,-2,-1,-2
7.207817,1411,-2,-1,-3,-1,2,-1,-2,0
7.229323,1412,-1,2,2,2,0,0,-1,1
7.229345,1413,0,-2,3,2,0,-3,-1,-1
7.230618,1414,0,-2,-5,-1,-2,-1,1,-3
7.230630,1415,-3,-3,-3,-4,-2,-1,-2,0
7.251731,1416,2,0,1,-1,-1,-1,1,0
7.251749,1417,-1,3,-4,-4,-1,-2,-2,-2
7.252420,1418,-6,-6,3,4,1,0,-1,2
7.252433,1419,4,-1,1,2,1,-1,0,-1
7.266698,1420,-1,-4,-5,-2,-2,-1,0,-1
7.266710,1421,0,-1,1,-4,-3,-1,0,-1
7.267376,1422,-1,0,-4,-3,-2,0,-2,0
7.267391,1423,-1,0,0,-2,1,0,-1,1
7.289234,1424,1,-2,4,4,-2,-2,0,-2
7.289845,1425,-2,-4,0,-3,-1,-1,0,-1
7.289894,1426,0,-2,-7,0,0,-1,0,-2
7.289920,1427,-2,3,0,3,-1,1,0,-1
7.311775,1428,0,0,-3,-8,0,-1,-1,-2
7.311796,1429,-3,-1,-1,6,0,-1,-2,-3
7.312614,1430,0,1,3,0,0,0,0,0
7.312627,1431,-2,0,0,-2,-1,-1,-1,-2
7.326734,1432,-3,-5,-2,-1,-2,-2,-1,-1
7.327589,1433,0,-1,-2,-2,4,1,1,1
7.327597,1434,-1,2,3,2,0,-1,-1,-3
7.327599,1435,0,-3,-6,-6,-3,-1,-1,-1
7.349337,1436,-2,-1,-2,3,-1,-2,-2,-2
7.349361,1437,-1,-2,-4,0,-1,-2,-1,0
7.349959,1438,-1,-2,2,1,-1,-1,-1,-3
7.349976,1439,-1,-3,0,3,-1,0,-2,-2
7.371807,1440,0,1,0,-4,-2,1,0,0
7.371823,1441,-4,0,1,1,0,-1,0,-1
7.372687,1442,-1,1,-5,-5,0,-2,-2,-2
7.372698,1443,1,2,1,-1,-2,-1,-1,-2
7.386729,1444,-1,-1,1,-6,0,-1,-2,-1
7.386750,1445,0,0,6,6,-3,0,0,-2
7.387622,1446,-1,-1,-3,2,2,0,-2,0
7.387635,1447,-2,-3,-2,0,-1,-1,-2,-1
7.410011,1448,0,-2,0,-1,-2,0,-1,-3
7.410022,1449,-1,-2,-6,-8,-3,-2,-3,-2
7.410023,1450,-2,1,-1,-6,-2,-1,0,0
7.410025,1451,1,1,1,6,0,0,0,-1
7.431904,1452,-2,1,0,-2,-2,-2,-1,-1
7.431927,1453,0,-3,-3,1,-1,0,-2,-2
7.432876,1454,2,6,4,0,-3,-1,-1,1
7.432887,1455,-4,0,-1,-5,-2,-3,-3,-2
7.446077,1456,0,-4,-6,0,-1,-2,-1,0
7.446093,1457,1,-3,2,0,0,1,-1,-2
7.454275,1458,-2,-2,-3,-6,0,-1,-2,-2
7.454296,1459,-2,0,2,-1,0,-2,0,-2
7.469264,1460,0,-3,0,2,1,0,0,-3
7.470100,1461,-3,-1,-1,-2,1,-2,-1,1
7.470111,1462,-1,-1,-2,1,-2,-3,0,-1
7.470113,1463,-2,-2,-1,-6,-3,-2,-2,-1
7.491910,1464,-3,-2,-1,-1,-2,-1,1,1
7.491937,1465,0,1,0,1,-2,-2,-3,-1
7.492414,1466,-2,-1,3,3,-1,0,-2,1
7.492483,1467,-2,-1,-2,0,-2,-1,0,-3
7.506206,1468,2,-4,-6,-4,-2,-2,-1,-2
7.506227,1469,0,2,1,-2,-1,-2,-4,0
7.514396,1470,-1,0,-4,0,0,0,-2,-1
7.514418,1471,2,-1,-2,-2,-1,-2,-1,0
7.529382,1472,-1,-1,0,1,1,0,-1,1
7.530717,1473,-3,-3,-4,-3,-2,1,0,-1
7.530730,1474,0,1,1,-3,2,-2,-1,-1
7.530732,1475,-1,-2,2,8,0,0,0,0
7.551682,1476,0,3,1,1,-1,-2,-1,-1
7.551696,1477,1,-1,-1,-1,-1,-3,-1,-1
7.552370,1478,-2,-1,-1,-6,-3,1,1,-1
7.552382,1479,-3,-2,-6,-5,-3,0,-1,-1
7.566111,1480,-4,0,1,4,0,-1,-2,-1
7.566141,1481,0,1,-1,1,0,0,0,-1
7.574383,1482,-2,-2,-2,-1,-1,-1,0,-1
7.574398,1483,1,-2,0,-3,-2,0,0,0
7.589206,1484,-3,-5,-6,-3,-2,-1,-2,-1
7.589224,1485,-2,4,5,0,1,-1,0,-1
7.589978,1486,0,-4,-1,-1,-2,-3,-1,0
7.589990,1487,-1,2,-1,0,-2,1,-1,-2
7.611909,1488,1,-1,-3,-2,-3,-1,-1,-2
7.611925,1489,0,-2,0,-2,-2,-2,-2,0
7.612743,1490,1,0,-1,-2,-4,-1,0,-1
7.612753,1491,-5,-7,-6,-3,-1,-2,-1,-3
7.626089,1492,-2,-1,6,-1,2,1,-1,-1
7.626106,1493,0,-1,-3,5,-3,0,0,0
7.634434,1494,-2,0,2,0,-1,0,-1,-1
7.634461,1495,0,-2,-3,-2,0,-2,-1,-1
7.649329,1496,-1,0,-4,-3,-3,-2,-1,-2
7.649351,1497,-2,-4,1,-4,-1,-3,-1,-1
7.649987,1498,-1,1,0,0,-1,-1,0,0
7.650009,1499,-3,-1,-4,2,-1,-2,-1,-2
7.671901,1500,0,1,2,-1,-1,-2,-2,-1
7.671972,1501,-2,-2,1,-1,-1,2,-1,-2
7.673008,1502,-2,0,-3,-3,-3,0,-1,-2
7.673021,1503,2,-2,-1,2,-2,-1,-1,-1
7.686121,1504,-2,5,6,0,0,0,-2,0
7.686138,1505,0,2,-3,-4,0,-2,0,-1
7.694367,1506,-4,-6,-3,0,0,-2,0,-1
7.694387,1507,0,0,3,0,-2,0,-1,-1
7.709221,1508,-1,-1,-2,0,-1,-2,0,-1
7.709237,1509,-1,-3,-4,-2,1,1,0,-2
7.709905,1510,-1,0,1,-2,0,-1,-2,-1
7.709950,1511,1,1,1,-2,-2,0,-2,1
7.731906,1512,-2,2,-1,-3,-2,-3,-1,-2
7.731925,1513,-3,-2,0,0,2,-1,1,-2
7.734045,1514,-2,-3,-7,-1,-2,-1,-1,-1
7.734057,1515,-2,0,-2,-3,0,-2,-1,-2
7.746244,1516,-3,1,0,1,-2,0,-1,0
7.746264,1517,4,-1,-3,-3,-1,-3,0,-1
7.754496,1518,-1,0,3,-2,0,-2,0,0
7.754521,1519,-1,3,8,8,1,0,0,0
7.769182,1520,3,-3,-9,-5,-1,1,0,1
7.769202,1521,-2,-2,-5,-4,-4,-1,-1,0
7.770017,1522,1,1,1,1,-1,-1,0,-2
7.770037,1523,-1,-1,4,0,0,-2,-2,0
7.791851,1524,-3,-3,1,-2,0,-1,-2,-1
7.791873,1525,-1,-4,-5,0,-1,0,-2,1
7.793617,1526,-1,-3,-2,-1,-1,1,-1,-1
7.793628,1527,-2,0,-5,-5,-2,0,0,-1
7.806031,1528,-1,-2,-2,-4,-1,-1,0,-1
7.806047,1529,-3,-1,0,3,-1,-1,0,-1
7.821701,1530,1,0,-1,-5,-1,-1,-3,-1
7.821722,1531,-2,-3,-4,5,2,-2,-1,0
7.829249,1532,2,1,2,3,-2,-2,-2,-1
7.829271,1533,-1,-1,-1,-4,-2,-1,-1,-1
7.830028,1534,-2,-4,-1,-1,0,0,0,1
7.830037,1535,-2,3,-3,-1,-2,-1,0,0
7.851796,1536,-2,-5,-2,1,1,-1,0,-1
7.851874,1537,1,1,1,2,-1,-1,0,1
7.852607,1538,-3,0,4,0,-2,-3,-1,-2
7.852623,1539,0,-3,-6,-7,-1,0,-1,0
7.874947,1540,-3,1,-2,-1,0,-2,1,-1
7.874966,1541,-1,0,-1,0,-1,-1,-2,-2
7.876634,1542,1,-2,-5,-1,-3,-3,-1,-2
7.876646,1543,0,-2,0,-10,-2,-2,0,-3
7.889322,1544,-1,2,4,9,3,0,0,-1
7.889338,1545,1,0,-4,-2,-2,-1,-2,-3
7.891160,1546,-2,1,1,0,-1,0,-1,-1
7.891179,1547,-2,-1,3,3,0,-2,-1,-1
7.911702,1548,-1,0,2,-3,-2,2,0,0
7.911720,1549,1,0,0,-3,-1,0,-2,-1
7.912350,1550,2,0,1,1,2,-1,0,0
7.912366,1551,1,-3,-2,2,-2,0,1,0
7.934941,1552,-1,-2,2,-3,-1,-2,-2,-2
7.934964,1553,-4,-3,-4,1,-1,-2,0,1
7.935985,1554,1,-2,-4,-1,-1,-1,0,-2
7.936002,1555,-2,2,2,0,1,0,0,0
7.949507,1556,-3,-2,-1,-4,-2,-2,-1,0
7.950560,1557,-4,-2,-1,-8,-1,-2,-1,0
7.950571,1558,1,-1,-1,4,0,0,0,0
7.950573,1559,2,-1,0,4,-1,-1,0,2
7.971875,1560,-1,-1,-5,-3,-1,-1,-2,-2
7.971892,1561,-2,-3,1,0,1,0,-2,-1
7.973116,1562,-3,0,-1,-2,1,-3,-1,0
7.973128,1563,-1,-3,-3,-3,-1,-1,-2,-3
7.995043,1564,0,1,-1,-3,-1,-3,-2,0
7.995060,1565,-2,0,1,-2,0,-1,-3,-3
7.995646,1566,-1,-2,2,1,-3,-1,-2,0
7.995663,1567,0,-4,1,1,1,-1,-1,-2
8.009275,1568,-2,1,-2,-2,-1,-1,0,-1
8.009291,1569,1,2,3,0,-1,-1,0,-2
8.009941,1570,0,2,1,4,1,0,0,0
8.009954,1571,-3,1,-1,0,-2,-2,-1,0
8.031960,1572,-2,-6,-3,-7,-1,0,0,-1
8.031980,1573,-1,-4,-5,6,-1,-1,1,1
8.033722,1574,-1,1,-2,-5,-3,0,-2,-2
8.033734,1575,-2,1,0,0,-2,-2,1,0
8.062422,1576,1,1,-2,-1,-2,0,-3,-1
8.062442,1577,-2,-1,-2,-5,0,0,0,1
8.063540,1578,-3,-4,-2,-3,-1,-2,-2,-1
8.063553,1579,-2,-2,-4,-8,0,0,-2,0
8.069929,1580,0,-1,2,5,-1,1,0,1
8.069940,1581,1,0,2,1,2,-2,-4,-4
8.069942,1582,1,3,5,1,2,-1,0,0
8.069943,1583,0,-3,-5,-3,-2,0,1,-2
8.091834,1584,-2,2,-2,-5,-1,-1,-1,-1
8.091852,1585,-4,-2,-3,4,0,-1,0,-1
8.093130,1586,-2,-3,-4,-3,-4,0,-1,-1
8.093140,1587,1,0,4,-1,1,-1,-2,-2
8.115103,1588,-2,-2,-3,-2,-2,-1,0,-2
8.115120,1589,-2,-4,-4,0,-2,-1,-1,2
8.116786,1590,-1,-1,1,3,0,0,0,-2
8.116799,1591,0,-1,-5,-2,0,0,-2,-1
8.130012,1592,1,-1,-2,-3,-2,-2,-1,-2
8.130044,1593,-1,-1,-1,-2,0,-1,1,-1
8.131509,1594,-1,0,-2,-2,1,-1,-2,-1
8.131522,1595,-4,-1,1,-1,-3,0,-1,0
8.151789,1596,1,-1,0,1,0,0,-2,-1
8.151812,1597,-2,-2,-1,-1,-1,0,0,-1
8.152678,1598,-3,2,3,0,0,-3,-1,-2
8.152780,1599,1,0,0,-1,0,-2,-1,0
8.175176,1600,0,-2,-5,-1,-3,-2,-3,0
8.175260,1601,0,1,3,-5,-1,0,0,0
8.177020,1602,0,0,2,-1,-2,-1,0,-1
8.177030,1603,0,-3,-1,2,2,0,-1,-2
8.189393,1604,-1,-2,3,4,-1,-1,1,1
8.189415,1605,1,-2,-5,-2,-2,0,-2,0
8.190628,1606,0,-1,-2,-5,-1,-1,-2,1
8.190637,1607,-1,-1,-1,-3,-1,-1,0,-2
8.211841,1608,-3,-3,-4,-1,-2,-1,-1,-2
8.211858,1609,0,1,0,0,0,-1,0,0
8.212402,1610,-1,0,2,-1,-1,0,-1,-2
8.212414,1611,-2,-2,1,-1,-1,0,-3,0
8.235064,1612,3,-3,-3,5,2,0,-1,1
8.235088,1613,-3,4,5,-6,-1,-1,-1,0
8.236247,1614,-3,-5,-7,-1,-2,-1,-1,-1
8.236259,1615,3,1,1,1,-1,-2,-1,0
8.249306,1616,-1,-2,-3,-4,-1,-3,-1,-3
8.249335,1617,-1,0,2,-1,1,0,0,-3
8.250512,1618,-3,-3,-1,5,0,0,1,1
8.250535,1619,-2,-2,-3,-3,1,1,-1,0
8.272049,1620,0,2,2,2,-1,-1,-1,0
8.272076,1621,2,-2,-3,-1,-2,0,-1,1
8.272880,1622,-1,-2,-1,-1,0,-1,-2,-1
8.272887,1623,0,0,-1,-3,-2,-1,-1,-2
8.295283,1624,-1,-6,-2,-2,0,-1,-2,0
8.295305,1625,-2,4,0,-6,-2,-1,-1,-2
8.295696,1626,3,-2,-11,-5,-1,-1,-2,-2
8.295708,1627,1,0,4,5,-1,-2,0,0
8.309214,1628,-1,0,-1,-1,-1,0,0,0
8.309231,1629,-2,-3,0,2,-1,0,-2,-1
8.310076,1630,1,-2,-3,-1,1,-2,-1,-2
8.310115,1631,-1,0,-7,-8,0,-1,-1,-1
8.331849,1632,-1,-3,3,3,-1,-2,-1,-1
8.331870,1633,0,-3,2,0,-1,-1,1,0
8.332904,1634,-1,1,-1,-1,-2,-1,0,-1
8.332919,1635,-4,-3,-4,-3,-2,-1,-2,-2
8.354880,1636,1,2,-1,-5,-2,-2,-1,-1
8.354893,1637,-2,-2,0,-3,-2,-1,-2,-2
8.355585,1638,-1,4,5,-2,-2,-2,-2,-2
8.355605,1639,0,-3,-2,8,0,-1,1,1
8.369486,1640,-5,-5,-1,-2,-1,0,0,-1
8.369505,1641,5,2,-1,-1,-2,-2,-1,-2
8.370105,1642,2,2,2,-2,-3,-1,-3,1
8.370122,1643,-2,0,2,-3,-2,-2,-1,-1
8.391800,1644,-4,-1,-4,2,2,0,0,-2
8.392786,1645,0,-3,-3,-4,-1,0,0,1
8.392802,1646,-1,-1,-1,-2,0,1,-1,3
8.392806,1647,-2,1,-3,-2,0,-2,-1,-4
8.416121,1648,-1,3,5,1,1,0,0,0
8.416132,1649,-3,-2,-2,3,-1,-1,-2,-1
8.416134,1650,-5,-2,-2,0,-2,0,0,-1
8.416136,1651,-2,-1,-3,-6,-1,0,-2,-2
8.429447,1652,1,-2,-2,2,0,0,-1,0
8.429465,1653,-2,0,-1,-1,0,-1,-1,-2
8.431039,1654,-1,-2,-1,-2,0,-1,-1,-4
8.431050,1655,2,-3,-7,0,0,0,-1,0
8.451864,1656,3,0,1,-3,-2,-1,-1,1
8.451881,1657,-1,3,6,2,-1,-1,-1,-2
8.452575,1658,-1,-1,-2,-1,-2,-1,-1,-1
8.452595,1659,0,1,2,0,-1,0,0,1
8.474901,1660,-2,-1,0,-2,0,-2,0,-1
8.474918,1661,-6,-8,-8,0,0,-1,-2,1
8.475825,1662,-1,-2,0,-3,-2,-2,-1,-2
8.475835,1663,2,0,-1,-2,-2,-1,-1,0
8.488513,1664,-3,1,-2,-2,0,-2,-1,-1
8.488531,1665,1,0,1,1,0,0,-1,1
8.497033,1666,-1,1,0,1,0,0,-2,-1
8.498756,1667,-2,0,-1,-7,-4,-1,0,-3
8.511927,1668,0,0,-3,2,-2,-1,-2,-1
8.511951,1669,0,-1,-1,0,0,-1,1,-1
8.512555,1670,0,-4,-3,-2,-2,-3,0,0
8.512577,1671,-2,-1,-1,-1,-3,-1,0,0
8.535253,1672,0,-3,1,-1,-1,1,-2,0
8.536301,1673,0,6,1,-3,-2,0,-1,-1
8.536314,1674,1,-2,0,2,0,-1,-1,0
8.536316,1675,0,-3,-2,1,-1,-2,0,-2
8.548797,1676,-1,0,-6,-3,-2,-2,1,-2
8.549621,1677,3,-4,-2,-2,-1,0,1,-1
8.556746,1678,-3,-3,-2,0,2,-1,0,0
8.556760,1679,-3,-1,-1,0,1,-1,0,0
8.572638,1680,-2,0,0,-2,-2,-1,-1,0
8.572650,1681,2,-3,-4,-2,-2,-2,-1,0
8.572651,1682,0,1,-3,-4,0,0,0,-1
8.572653,1683,-2,-2,-1,-4,1,-2,0,-1
8.595103,1684,-1,1,4,8,0,1,-1,-1
8.596484,1685,0,-1,-4,0,-1,0,-1,-1
8.596504,1686,0,2,3,4,1,0,0,0
8.596506,1687,-6,-3,-3,-2,-3,-1,-4,-1
8.608764,1688,1,-6,-5,-5,-1,0,-1,-2
8.608789,1689,-2,1,-3,-5,-3,-2,-1,0
8.616914,1690,0,-1,4,2,0,-1,-1,-1
8.618508,1691,2,1,-2,-1,-2,0,0,-1
8.632015,1692,-1,3,2,0,0,1,-1,-2
8.634190,1693,-2,-2,-3,1,-1,0,-2,-2
8.634207,1694,-4,-2,-4,-4,-3,-2,-2,-1
8.634209,1695,-1,-4,-2,2,1,0,0,0
8.654925,1696,0,-1,-3,-4,-2,-2,-2,1
8.654944,1697,-2,-2,1,0,-1,-1,-1,-1
8.655738,1698,-1,-3,-3,-4,-2,0,-1,-1
8.657540,1699,0,-1,4,0,0,-2,-1,1
8.668541,1700,-5,0,1,0,-2,-3,-1,-1
8.668600,1701,2,-1,-5,-4,-3,-2,-1,1
8.676766,1702,1,1,0,-2,1,-1,0,0
8.676785,1703,2,0,1,7,0,1,-1,0
8.691813,1704,-3,-1,-4,-7,-1,-1,-1,-1
8.691845,1705,-1,0,2,6,2,0,0,-1
8.694056,1706,-1,0,0,-2,-2,-1,-1,-2
8.694078,1707,-1,0,-1,-3,-2,-2,-3,-1
8.714949,1708,1,0,-4,-4,0,0,0,-1
8.714962,1709,0,-1,-1,-2,0,-2,-1,1
8.715588,1710,-1,-4,-3,0,-1,1,-1,0
8.715626,1711,-2,6,8,2,0,0,-1,-2
8.730161,1712,-1,-1,-6,0,-1,-1,-2,-2
8.730181,1713,-4,-2,-4,-3,-1,-2,-2,-3
8.736888,1714,-2,0,-3,-3,-1,-1,-2,-2
8.736914,1715,-1,-5,-2,-3,-2,-1,-1,-2
8.752145,1716,-1,-2,2,-4,-1,-1,0,0
8.752170,1717,1,-1,-3,6,0,1,-1,-2
8.753651,1718,-1,-2,0,-1,0,-1,1,-2
8.753663,1719,0,2,0,1,-1,1,0,0
8.776107,1720,-1,1,0,0,-1,-2,-1,-2
8.776123,1721,-3,-3,-5,-5,-1,-1,-1,-1
8.776125,1722,0,0,-3,-6,-2,-2,0,-1
8.776127,1723,-1,1,1,3,2,-1,-2,-2
8.788661,1724,-3,-3,1,2,0,0,-1,0
8.789896,1725,2,-3,3,0,-1,0,-1,0
8.796955,1726,0,5,2,1,-3,-1,-2,-3
8.797919,1727,-1,-3,-3,-8,2,-1,0,-2
8.812308,1728,0,-2,-7,0,-4,-2,-1,0
8.812341,1729,-3,-4,1,-4,0,0,-2,-1
8.813397,1730,-1,-2,1,0,-2,0,0,0
8.813409,1731,1,0,-1,-5,-3,-1,-1,0
8.834964,1732,-1,1,1,2,-1,0,0,0
8.834983,1733,-3,1,-2,1,0,-2,1,-1
8.836759,1734,-1,-4,0,1,0,-1,-1,-1
8.836775,1735,-1,-1,-1,1,1,0,-1,-1
8.857483,1736,1,-3,-1,-5,1,-1,-3,-2
8.857502,1737,0,0,-1,-4,-1,-2,0,0
8.858071,1738,-3,-1,-2,-1,-1,-1,0,0
8.858120,1739,-4,-4,-5,-4,-1,-1,1,-1
8.872123,1740,1,-3,-2,-1,-2,0,-1,-1
8.872146,1741,-2,3,6,0,1,0,-1,-1
8.872542,1742,0,0,-1,6,0,1,-2,0
8.872554,1743,2,-2,0,0,0,-1,-2,1
8.895281,1744,-3,0,0,-1,0,-1,1,-3
8.896887,1745,0,-2,-6,-10,-3,-1,-3,-1
8.896896,1746,0,-2,-1,5,-1,-1,-1,-1
8.896898,1747,-1,1,1,-2,-3,0,0,-1
8.917367,1748,0,-3,-5,2,-1,0,0,-1
8.917383,1749,0,0,5,1,0,-2,-2,-2
8.918211,1750,0,0,-3,-4,-1,-1,0,-1
8.918226,1751,0,-1,-2,1,-2,-2,-1,-1
8.932329,1752,-2,1,0,-1,-1,-1,-1,0
8.932342,1753,0,2,-5,-2,-2,-1,-2,-2
8.932522,1754,-4,-6,2,0,-3,-1,-1,-1
8.932533,1755,-2,-1,-1,-3,-1,-2,-2,-3
8.955125,1756,-1,-1,-2,-1,-1,-1,-1,1
8.955142,1757,-3,-3,4,-4,2,-1,-1,-1
8.957012,1758,2,7,1,8,0,-3,-2,0
8.957029,1759,0,2,0,1,0,0,-1,-1
8.985125,1760,1,-2,1,-1,1,1,0,0
8.986651,1761,2,11,0,-2,2,-1,0,0
8.986662,1762,-3,-5,-4,-5,-2,-1,-1,-1
8.986663,1763,3,-21,-17,-2,-3,0,-1,0
8.991882,1764,-6,-4,-7,2,-2,-3,-3,-2
8.991903,1765,-1,5,14,6,0,-1,0,0
8.993763,1766,2,1,-6,-5,-1,0,1,-1
8.993777,1767,-2,11,6,1,-1,0,1,-2
9.014902,1768,2,-5,-11,-7,-3,0,-2,-1
9.014920,1769,-2,-4,-5,1,-1,0,-2,-1
9.015949,1770,0,-1,-3,-3,-1,0,-1,-2
9.015956,1771,2,-3,-3,-5,-2,0,0,0
9.037582,1772,0,2,3,6,0,-2,0,-3
9.037611,1773,-3,-2,0,-2,-2,-1,-1,0
9.039879,1774,3,1,2,3,1,0,0,0
9.039894,1775,-3,-4,-5,-3,0,-2,-1,-2
9.051939,1776,0,2,5,-2,-1,-1,-2,-2
9.053119,1777,-3,-4,-5,-2,-3,-1,0,-2
9.053130,1778,0,-5,-3,-5,0,-2,-3,0
9.053132,1779,-2,7,10,3,0,-2,-1,0
9.074951,1780,1,3,-3,0,0,1,-1,1
9.074965,1781,-1,-5,-8,-5,-2,-2,-1,-1
9.075733,1782,-4,-7,-1,-2,-1,0,-1,-1
9.075749,1783,-1,2,-3,2,-1,1,-1,0
9.097740,1784,-1,1,4,1,-1,-1,-1,0
9.097762,1785,1,-4,0,-4,-1,-1,-1,1
9.099089,1786,-1,1,3,2,0,-1,0,0
9.099099,1787,0,-2,-2,5,0,-1,-1,-1
9.112057,1788,0,-2,-3,-3,-1,-1,0,-3
9.112989,1789,1,-1,-8,-3,-3,-2,0,-2
9.112998,1790,-2,-7,-8,-7,-2,0,-1,-2
9.113001,1791,-2,4,8,-1,-3,-2,-2,-2
9.137002,1792,1,1,6,1,0,-3,1,2
9.137014,1793,-1,1,1,3,1,0,-3,0
9.137016,1794,6,2,0,-3,0,-1,-1,0
9.137018,1795,-3,-2,-1,2,-2,0,-3,-2
9.157510,1796,-4,-3,-3,-2,-2,-1,-2,0
9.157533,1797,0,1,-3,-5,1,-2,-3,0
9.158324,1798,-1,-4,-2,4,-3,0,-1,-2
9.158346,1799,-1,4,-1,-1,0,-1,-1,2
9.171994,1800,0,-1,2,-2,-1,-2,-2,-2
9.172100,1801,-1,-4,-3,1,-2,1,0,-1
9.172632,1802,0,3,-5,-2,-2,-2,0,0
9.172721,1803,0,-6,5,0,0,-1,0,-1
9.194987,1804,-1,-1,-2,0,-1,-1,-1,0
9.197164,1805,-4,-2,-2,-1,-1,-1,-1,-1
9.197177,1806,-4,-1,1,-5,-2,-2,-2,0
9.197178,1807,0,-3,-10,-2,-3,-1,-2,0
9.217484,1808,0,-1,-1,1,-1,-2,1,0
9.217500,1809,1,0,1,-1,0,-1,1,-1
9.218045,1810,-4,3,3,1,-1,0,0,-4
9.218084,1811,0,-1,-1,-2,1,-1,-1,1
9.231990,1812,-4,-1,-4,-7,-1,1,-2,-2
9.232083,1813,1,-4,1,7,0,0,-1,-2
9.232644,1814,-3,1,3,0,2,-1,-1,-1
9.232667,1815,-3,-3,-3,-4,-2,-1,0,1
9.255335,1816,1,-7,-4,-4,-2,0,-2,-1
9.255353,1817,0,4,1,-1,0,-1,-1,-2
9.257345,1818,-1,1,-2,0,0,-2,-1,-1
9.257356,1819,-1,-2,-1,0,-2,1,0,0
9.277568,1820,-2,0,2,3,1,-1,0,-1
9.277594,1821,-4,0,-3,-1,-2,0,-1,1
9.278325,1822,0,-6,-11,-4,-2,-2,-2,0
9.278348,1823,0,7,7,0,-1,1,0,-1
9.292542,1824,1,0,3,-5,0,1,-1,0
9.292556,1825,-4,-3,1,2,-2,-2,0,-2
9.292559,1826,-1,-1,-3,-3,0,-2,0,-1
9.292561,1827,-1,-3,-5,-3,-2,-2,-2,-2
9.315076,1828,0,0,0,-1,-2,-1,-1,0
9.315100,1829,2,0,-1,-2,0,0,0,-2
9.316288,1830,-4,-2,1,-3,-1,-1,0,-1
9.316305,1831,0,-2,-2,-4,-1,-1,-2,-2
9.337522,1832,-1,1,2,2,0,-1,0,-1
9.337545,1833,-3,0,0,-3,-2,-1,-1,-1
9.339480,1834,0,-2,-1,0,-3,0,-3,-1
9.339499,1835,-3,0,0,-1,2,-1,-2,-1
9.360152,1836,0,-3,-7,0,-1,-1,-2,0
9.360180,1837,1,-2,-1,2,1,-1,0,-1
9.360833,1838,-1,-3,-3,2,0,-1,-1,0
9.360855,1839,0,5,0,-2,-3,1,0,-2
9.374982,1840,-3,-10,-2,-5,-1,-1,-2,0
9.375039,1841,-2,1,-2,4,-1,-1,-2,0
9.375521,1842,-4,-5,1,-4,-1,0,-3,-3
9.375534,1843,1,-4,-5,0,0,-3,1,1
9.397482,1844,-4,9,6,-4,-2,-1,0,-1
9.397498,1845,8,-7,-8,-2,-1,2,-1,-1
9.399090,1846,4,3,2,0,1,1,0,1
9.399104,1847,-3,-3,-2,-1,0,-1,-1,-1
9.419974,1848,0,-1,1,1,-1,0,-1,0
9.419990,1849,-4,-1,-6,-6,-2,-2,0,-1
9.420569,1850,2,7,8,1,-1,0,1,-1
9.420582,1851,-1,-4,-5,5,-1,-1,-2,0
9.434871,1852,1,1,3,2,0,-1,0,-2
9.434887,1853,-1,-1,5,1,0,-2,-2,-1
9.435772,1854,0,-3,-2,-2,-2,-1,-1,0
9.435797,1855,-3,-2,-1,-6,-3,-2,-1,-2
9.457606,1856,-2,1,-3,1,-2,-3,-1,-2
9.458606,1857,-2,-1,1,-2,-2,-1,-1,0
9.458617,1858,-2,-2,-3,-3,-1,-2,-1,0
9.458618,1859,0,4,5,1,0,-1,-1,0
9.471150,1860,-2,-3,-6,-1,-1,-1,0,-2
9.471166,1861,-2,0,-1,-1,-1,0,0,-2
9.486695,1862,-3,-2,-2,-2,-1,-1,-1,-1
9.486711,1863,2,1,2,4,1,0,-1,0
9.498000,1864,-1,-2,-6,-5,-1,-2,0,-1
9.498015,1865,-3,-6,0,4,0,-3,0,0
9.498018,1866,-2,-3,2,0,0,-1,0,-1
9.498020,1867,1,-3,-2,-2,-2,0,-1,-2
9.517620,1868,-2,-4,-3,-4,-2,-1,-1,1
9.517643,1869,-3,-1,-8,-1,-4,-2,-1,-1
9.518262,1870,-1,13,-1,0,5,-1,-1,-1
9.518335,1871,-2,-11,7,3,1,-1,-1,-1
9.531227,1872,-1,2,4,2,0,-2,-2,-2
9.531245,1873,0,-5,-8,-4,-3,-1,0,2
9.539632,1874,1,-5,-7,-2,-3,-1,-1,-3
9.539653,1875,-1,3,0,-4,-2,-1,-1,-2
9.555018,1876,3,-1,-6,-2,-1,0,-2,-1
9.555039,1877,-4,-1,-1,-8,0,-1,-3,-4
9.556457,1878,-2,-4,2,5,0,0,-1,-1
9.556483,1879,0,1,7,2,0,1,-1,0
9.577596,1880,-1,-2,-1,-5,-2,-1,-1,-2
9.577648,1881,0,5,1,2,2,-1,0,1
9.578166,1882,-1,-3,-3,-2,-1,0,-1,0
9.578235,1883,0,-2,-5,-5,-3,-2,-1,-1
9.591011,1884,0,0,-3,1,-1,-2,-1,0
9.591025,1885,1,0,3,-2,0,-1,-2,-1
9.599304,1886,0,0,-3,-2,-2,0,-1,-1
9.599327,1887,-2,-2,-3,1,-1,-1,-2,-1
9.615080,1888,-1,2,5,5,-2,-1,0,0
9.615097,1889,0,-1,-5,-2,0,-1,-1,0
9.616103,1890,-4,3,10,1,-1,-3,-2,1
9.616115,1891,-2,-4,-7,-3,-1,-2,-1,-2
9.639354,1892,1,-2,-3,-3,-1,-2,-2,-2
9.639367,1893,-2,4,5,-1,-1,0,-1,-2
9.639370,1894,0,-10,0,-1,0,-2,-1,-1
9.639372,1895,-2,0,1,3,-1,1,-1,0
9.651380,1896,2,0,0,-1,1,-1,-1,1
9.653000,1897,-1,-3,1,0,-1,-2,0,-2
9.659325,1898,-1,1,-6,-3,-1,-1,-3,-1
9.659345,1899,-1,0,-3,-5,-1,-1,-1,2
9.674999,1900,0,-4,2,3,-1,1,0,0
9.675189,1901,-3,5,4,1,-1,1,-1,-3
9.676727,1902,1,2,-1,0,0,-1,-1,-2
9.676739,1903,-4,-4,-1,-6,-3,-2,-1,-1
9.697858,1904,-2,-2,-3,-2,0,-3,-3,-1
9.697884,1905,-2,-2,-2,-2,-1,0,0,0
9.699454,1906,-1,-2,-1,-2,-4,-1,0,-2
9.699468,1907,2,3,-3,-1,0,-1,-2,-1
9.711198,1908,-4,-1,0,-1,0,-1,1,0
9.712003,1909,1,-4,-1,1,0,-1,0,-2
9.719545,1910,-1,-6,-6,0,-3,1,-2,0
9.719576,1911,-2,0,-4,-3,0,-2,-2,-2
9.735228,1912,-1,-1,0,-4,-2,-1,-2,-3
9.735318,1913,1,-2,1,1,0,-1,-1,0
9.735674,1914,0,4,5,10,1,-1,1,0
9.735907,1915,-1,-2,-7,-3,0,-2,0,-1
9.757549,1916,-1,3,-4,-3,-1,-1,1,-1
9.759215,1917,1,-9,-2,-5,-2,-1,-1,0
9.759227,1918,-4,-3,-3,-7,-2,-1,-2,-1
9.759230,1919,1,-11,-4,0,-2,-1,0,-3
9.779981,1920,-1,0,5,3,1,-1,1,0
9.779997,1921,1,4,3,5,0,0,0,0
9.780675,1922,3,3,2,-3,1,-2,1,1
9.780687,1923,-4,1,0,-3,-2,1,-1,0
9.796435,1924,-4,-3,-17,-5,-1,1,-1,1
9.796450,1925,-1,3,8,-1,-1,-1,-1,-1
9.796452,1926,-2,-4,1,-5,0,-1,-1,-3
9.796454,1927,-3,0,-2,7,2,-1,0,-1
9.817579,1928,1,-1,-1,0,-3,0,-2,0
9.819272,1929,-4,0,-4,-3,-1,1,-1,-1
9.819285,1930,0,1,-4,-1,-1,-1,0,0
9.819287,1931,3,1,1,-4,-1,1,0,1
9.840025,1932,0,-2,-1,1,-1,-1,-2,0
9.841383,1933,1,-3,-4,-2,-1,-1,-1,0
9.841454,1934,1,-2,-3,-7,-1,-2,-1,-1
9.841509,1935,-1,2,5,3,0,-1,-1,-2
9.854279,1936,-2,-1,-1,2,1,0,0,0
9.854296,1937,0,1,-2,-1,-4,-2,-2,-1
9.855756,1938,-4,-2,-1,1,0,-3,-1,-2
9.855776,1939,-3,0,-4,-5,-3,-2,0,-2
9.877682,1940,0,1,1,-4,-3,-3,0,-2
9.877745,1941,2,-4,-1,8,-1,-1,-1,0
9.878191,1942,2,7,1,2,0,1,-1,0
9.878263,1943,0,-2,1,0,-2,-1,-2,1
9.900668,1944,-2,-3,-4,-7,-1,1,-3,-1
9.900703,1945,-2,-4,-2,-2,1,-2,-1,0
9.902672,1946,0,0,5,1,0,0,0,-2
9.902685,1947,2,-9,-5,-3,1,0,-2,0
9.914502,1948,0,2,7,3,-1,0,0,-1
9.916527,1949,-3,-2,0,-6,-2,-3,-1,-1
9.916538,1950,0,-1,-1,4,-2,-1,-1,1
9.916540,1951,0,2,-3,-3,0,-1,0,-2
9.937370,1952,0,-6,-3,1,-1,-2,-3,-1
9.937426,1953,0,-8,-11,-4,0,0,1,-1
9.938315,1954,-1,4,7,0,-1,0,0,-2
9.938333,1955,1,2,2,4,0,0,-1,-1
9.959993,1956,-2,-3,0,-1,-2,0,-1,-3
9.960016,1957,-1,1,-2,-3,-1,0,0,0
9.961180,1958,-4,-10,-6,-5,-1,-1,-1,-1
9.961191,1959,-1,-1,0,-2,0,-1,-2,0
9.973810,1960,-2,0,3,1,1,-2,-2,0
9.973829,1961,-4,0,-2,-5,-2,-1,0,-1
9.983448,1962,-2,-3,0,2,-1,-1,-1,0
9.983460,1963,0,2,-4,1,-1,-3,-2,-1
9.996811,1964,1,6,8,-2,1,0,0,0
9.996836,1965,-1,2,-1,-3,2,0,0,0
10.005304,1966,-2,-1,-2,4,-1,-1,1,-1
10.006771,1967,-1,-5,-5,-3,-1,-2,-2,-1
10.019918,1968,-1,0,-1,-2,-2,-1,1,-1
10.019939,1969,-2,3,3,4,-4,-1,-2,-1
10.022030,1970,1,-6,0,-2,0,-1,-1,-2
10.022040,1971,-3,-10,-1,-3,-2,-1,0,-1
10.033948,1972,0,-3,-7,-2,-2,-1,-2,0
10.033973,1973,1,-2,1,1,1,0,-1,-1
10.043254,1974,0,2,-4,-4,-1,-2,-2,0
10.043271,1975,0,4,4,1,-2,1,-1,0
10.057498,1976,-2,-2,0,0,1,-1,0,-2
10.059267,1977,-1,2,-2,-5,-4,-1,-1,0
10.059283,1978,2,2,-13,-6,-3,-2,-1,-1
10.059287,1979,-3,7,19,6,3,0,0,1
10.080054,1980,-3,-3,-1,5,0,1,0,2
10.080075,1981,1,-7,-4,-1,0,-1,-3,-2
10.081463,1982,-3,-2,-11,-2,-2,-1,-1,-2
10.081485,1983,-1,-2,-7,-5,-3,-1,-2,-2
10.093520,1984,2,1,-1,1,-1,0,0,0
10.093537,1985,1,3,6,-1,0,-1,0,1
10.104247,1986,-2,-5,3,-4,-2,2,-1,-1
10.104264,1987,-2,1,-4,0,0,-1,-1,-2
10.117468,1988,-2,-2,-1,-2,-3,-3,-2,-2
10.119260,1989,-1,-3,-5,-2,0,-2,0,0
10.119277,1990,-2,-2,3,-1,1,0,0,-1
10.119281,1991,-2,2,3,1,-2,-2,0,0
10.139940,1992,-2,-5,-6,-1,-1,-1,-1,-1
10.139956,1993,0,-1,-5,-2,-1,-2,-1,-2
10.141403,1994,-1,4,0,0,-1,-1,-1,0
10.141427,1995,0,19,14,2,-1,-1,-1,0
10.154119,1996,-2,-15,2,4,2,1,-2,0
10.154130,1997,-1,0,-1,2,-2,0,-1,0
10.163896,1998,-1,-6,-5,-2,0,0,-1,0
10.163914,1999,0,-3,-9,-9,-3,-1,-1,-2
10.177626,2000,1,9,-1,-7,-2,-2,-1,-1
10.177690,2001,-3,1,7,5,2,0,0,-2
10.179180,2002,0,1,1,2,-2,0,0,-1
10.179192,2003,0,-9,-10,-3,0,-1,-2,0
10.201297,2004,-3,1,-4,-4,-3,-2,-2,-2
10.201311,2005,-2,-1,2,2,-1,2,0,1
10.201498,2006,-2,2,5,2,-1,-2,-1,0
10.201515,2007,1,6,3,0,-3,-2,0,0
10.213716,2008,-2,-21,-11,-5,-2,-2,0,0
10.213750,2009,-2,8,1,-6,-1,-2,-2,-4
10.223244,2010,-2,-11,-2,-2,-1,-2,-1,-1
10.223256,2011,-1,-4,3,0,0,1,0,-1
10.237588,2012,2,7,1,-1,-3,-3,-1,-1
10.238610,2013,-1,-3,-4,0,-2,0,0,0
10.238876,2014,0,7,8,0,0,1,-2,-3
10.238926,2015,-3,-10,-12,-8,-1,-1,-2,-1
10.260766,2016,1,3,1,4,-2,-1,-1,-1
10.262972,2017,0,10,-2,0,0,-2,-1,0
10.262986,2018,-2,-15,-4,-8,-3,-1,1,-1
10.262988,2019,-1,-1,3,5,1,-1,-2,0
10.273926,2020,0,4,13,9,0,1,0,-2
10.273961,2021,-1,-3,-4,-4,-1,0,-1,1
10.283525,2022,0,5,-1,0,-2,-1,-2,-1
10.283538,2023,-1,-2,-2,-5,-1,-2,0,0
10.297526,2024,-4,-2,-6,-4,1,-1,-1,-3
10.297548,2025,0,-2,-2,0,0,1,0,0
10.298996,2026,2,4,5,0,-1,0,0,-2
10.299017,2027,0,-4,-2,-2,-2,-1,-2,0
10.320032,2028,-1,-4,-3,-2,0,-1,-1,0
10.320056,2029,-1,-4,-1,1,-2,0,0,0
10.321581,2030,-2,-2,-6,-3,0,-2,-2,1
10.321593,2031,1,-1,1,3,1,-2,0,-1
10.333782,2032,0,3,-3,-4,3,0,-2,-2
10.335122,2033,-1,-4,1,-3,-1,-2,0,-2
10.342835,2034,-1,0,-1,0,0,-2,-1,-3
10.342847,2035,-2,-1,-10,-5,-2,-3,-3,-3
10.357847,2036,-1,0,-3,-4,-2,1,0,2
10.357860,2037,1,-1,2,0,1,-2,0,0
10.359122,2038,-2,2,6,9,0,1,1,0
10.359186,2039,-1,-3,0,-1,1,0,1,-1
10.380459,2040,-2,-2,-6,-4,-1,-1,0,-2
10.381799,2041,-4,-4,-3,-4,0,-1,-2,-2
10.381811,2042,-1,-1,-4,-3,-1,0,-2,-1
10.381813,2043,-3,-5,-4,-2,-3,-2,0,0
10.393881,2044,-2,1,6,-3,-1,0,-1,-1
10.393899,2045,1,7,2,3,-1,-3,-1,-2
10.403863,2046,-3,-7,0,1,0,-1,-2,0
10.403880,2047,2,1,4,2,-1,1,-1,-1
10.417720,2048,0,10,-7,1,-2,-1,-2,0
10.417755,2049,0,-14,-2,-4,-1,-1,-2,-2
10.420564,2050,0,0,-4,-5,-1,-1,0,0
10.420578,2051,-5,0,-2,2,1,0,1,-2
10.440091,2052,1,0,3,-2,0,-1,0,-2
10.440114,2053,1,4,10,5,1,0,0,1
10.442125,2054,-2,-2,-3,1,-1,0,-1,0
10.442158,2055,-1,-2,-5,-3,-2,-1,-1,-2
10.453706,2056,-1,-3,-2,0,-2,-1,-1,-2
10.453726,2057,0,-5,-5,-3,-3,0,-1,-2
10.464029,2058,-2,0,-1,-3,-1,-1,-1,-1
10.464040,2059,0,3,0,-1,-2,-1,-1,0
10.477843,2060,-1,-3,1,3,-1,-1,0,0
10.479204,2061,-2,-2,-2,-1,-3,0,-3,-2
10.479216,2062,-3,3,0,-4,0,0,0,-3
10.479218,2063,1,2,3,0,-2,-1,0,0
10.499947,2064,-3,4,2,-3,0,-2,-1,-2
10.499961,2065,-2,-9,-7,0,0,-2,-1,0
10.501492,2066,1,2,3,0,0,-2,-1,-1
10.501557,2067,0,0,3,-1,-1,-1,0,1
10.514529,2068,-1,-1,4,3,1,0,-2,-2
10.514541,2069,-2,1,-7,-1,-2,-1,-1,-1
10.523414,2070,-2,-1,-4,-2,-2,-1,-2,-1
10.523426,2071,0,7,2,1,0,0,-2,-1
10.537713,2072,0,-10,4,-1,-3,0,-2,1
10.537736,2073,-2,-3,-2,-8,-1,-3,-2,-2
10.539072,2074,0,0,-3,3,-1,0,1,0
10.539085,2075,-2,-6,-4,-3,1,-1,-2,-1
10.560256,2076,0,1,-3,-2,-2,0,-1,0
10.560274,2077,0,3,5,3,1,1,0,-1
10.562128,2078,-2,-6,-6,-3,-3,-1,-2,0
10.562139,2079,-1,4,1,-6,-3,-1,-2,-1
10.573868,2080,-2,1,-3,3,3,0,0,-1
10.573886,2081,-2,2,1,2,0,-1,-1,0
10.584008,2082,0,-2,4,0,0,-1,-1,0
10.584020,2083,0,-4,-4,-1,0,-1,-1,-1
10.597631,2084,0,-5,-5,-2,-2,0,-2,-2
10.597654,2085,-3,6,2,-4,-2,-1,1,-2
10.599149,2086,0,-2,-6,-1,-2,-1,0,0
10.599168,2087,-3,-5,-2,-8,-2,-2,-1,-1
10.620010,2088,1,3,-3,4,-1,-2,0,-1
10.620035,2089,-1,-4,-3,-1,0,-2,-1,-1
10.621626,2090,-1,3,3,-2,-1,0,-2,-1
10.621645,2091,2,3,8,7,2,0,1,1
10.633805,2092,-5,-15,-3,-3,-2,-2,-1,0
10.633828,2093,1,-3,-2,-1,-2,-2,1,0
10.644236,2094,0,-7,-4,-1,1,-1,0,-1
10.644249,2095,-3,6,-1,-5,-2,-2,-2,-2
10.657832,2096,-2,8,6,-2,-1,-1,-3,-2
10.657850,2097,-1,-16,-8,1,-2,-1,0,0
10.659151,2098,-1,0,4,-6,1,-1,0,-2
10.659176,2099,0,-1,2,12,2,0,2,0
10.679852,2100,0,6,0,0,0,0,1,-1
10.679913,2101,0,2,-3,-3,-3,-2,-2,0
10.681415,2102,0,0,-3,0,0,0,-1,0
10.681432,2103,-3,-4,-3,-3,-2,-2,-1,-1
10.693599,2104,-3,-1,-3,-3,3,0,-2,-2
10.693617,2105,-2,-2,0,-3,0,1,-1,-1
10.702416,2106,0,4,-1,-1,-1,-1,-1,-1
10.702432,2107,-3,-5,-4,-4,-3,-2,0,0
10.717632,2108,0,-3,0,4,1,-1,0,0
10.717643,2109,-1,-2,0,0,1,-2,0,-1
10.718891,2110,0,1,0,1,-1,-1,0,-1
10.718904,2111,-2,-1,-2,-3,0,1,-3,-3
10.740255,2112,0,2,3,0,-1,-1,1,-1
10.741996,2113,0,0,-5,-4,1,-1,1,-1
10.742008,2114,-1,-1,-1,3,-3,-2,-2,-1
10.742010,2115,1,-3,-2,-3,0,0,-4,0
10.762637,2116,-1,-10,-6,-5,-3,-2,-2,-1
10.762660,2117,-4,4,6,3,0,-1,-3,-1
10.764314,2118,1,9,-1,-2,1,-1,0,1
10.764325,2119,-3,-24,-7,-3,-1,0,-2,-1
10.777391,2120,-2,0,1,0,1,-1,0,0
10.777410,2121,3,2,1,0,-2,0,-1,0
10.779025,2122,0,-4,-3,-1,-2,-1,-1,-2
10.779040,2123,1,5,-3,-2,-2,-2,1,-1
10.800194,2124,0,5,-1,0,-1,0,-2,-1
10.800303,2125,-4,-3,0,-4,-2,-2,-1,-2
10.802127,2126,-1,1,-2,0,0,-1,-2,-3
10.802139,2127,1,2,1,2,1,1,-1,0
10.822605,2128,-1,-2,-5,-6,-1,0,0,-1
10.822627,2129,0,6,3,-1,-1,0,-1,0
10.824242,2130,-3,0,3,4,-1,-1,-2,0
10.824253,2131,-2,6,5,-1,-1,-1,1,0
10.837925,2132,2,-9,4,4,2,0,-1,1
10.837966,2133,-1,0,-3,-3,-1,0,-2,1
10.839610,2134,-1,-6,-8,-4,0,-2,-2,-2
10.839621,2135,-1,-2,2,0,-1,-1,-1,-2
10.858982,2136,1,10,-2,-1,-2,-1,0,-1
10.859001,2137,0,-1,-3,0,-1,-3,-2,0
10.867775,2138,-1,-3,4,0,-1,0,0,0
10.867786,2139,-3,-3,-4,-1,0,-1,1,0
10.882783,2140,-2,-3,-1,-3,-2,-1,1,0
10.882806,2141,-2,11,-2,-1,-2,-1,1,-2
10.885393,2142,-1,-16,-7,-4,0,-1,-2,0
10.885407,2143,2,3,3,3,0,-2,-2,-1
10.897163,2144,-2,-4,-4,0,-2,0,-2,1
10.897192,2145,-1,-2,6,3,0,0,0,-1
10.904647,2146,0,2,0,1,0,-1,0,1
10.904658,2147,-1,-3,-1,-2,-2,0,1,-1
10.927623,2148,-2,11,-6,-6,-3,-2,0,-2
10.927648,2149,-3,-27,-10,-1,-2,0,1,-1
10.929596,2150,-3,2,0,-3,0,-1,-1,-2
10.929607,2151,0,-3,1,4,-1,0,-1,-1
10.942824,2152,1,0,1,-3,-1,-2,-1,-2
10.944481,2153,2,7,0,-1,0,-2,-1,-3
10.944493,2154,-1,2,5,7,-1,2,0,0
10.944495,2155,0,-3,-5,-2,-1,0,-3,-1
10.956822,2156,-1,-1,-1,-1,0,0,0,-1
10.958376,2157,0,0,-1,-4,0,-1,-1,-1
10.963698,2158,-1,-4,-3,-3,-4,-1,-1,-3
10.963724,2159,0,6,4,0,-1,-1,0,0
10.980013,2160,0,-5,-3,-4,-2,-1,-1,-1
10.980040,2161,-1,-6,-5,-1,1,0,0,-1
10.981873,2162,-1,5,5,0,-1,-1,-2,-1
10.981899,2163,-1,-7,-7,-4,-2,-1,-1,-2
11.002879,2164,-2,-2,1,-2,-3,-2,-2,-1
11.002925,2165,0,1,-4,-2,-3,-1,-1,0
11.005671,2166,-1,3,-6,3,-1,1,-1,-2
11.005689,2167,1,4,5,1,-1,0,-1,-1
11.017047,2168,-5,-20,-5,-5,2,0,0,0
11.017070,2169,0,2,5,7,-1,0,0,-1
11.023774,2170,-1,-2,2,-5,0,-1,-1,1
11.023798,2171,-2,2,-4,-3,-2,-2,-1,-1
11.040417,2172,1,4,-2,1,-1,-1,-1,-2
11.042122,2173,-1,-4,-3,-2,-1,-1,0,0
11.042138,2174,-1,1,-1,-3,-2,-1,1,0
11.042142,2175,-2,-2,-2,-2,0,-1,-3,-1
11.062531,2176,0,0,-3,0,-1,-3,-2,-1
11.062548,2177,-3,4,7,0,-3,-2,-2,-1
11.064075,2178,0,6,-1,-5,-1,-3,-3,-3
11.064104,2179,0,3,2,1,1,2,0,0
11.076920,2180,0,-1,4,9,2,0,-1,0
11.076953,2181,-1,1,-3,1,0,0,-1,-1
11.083695,2182,-3,-7,-3,-2,-2,-2,-1,-1
11.083720,2183,1,3,-6,-4,-2,-2,-1,1
11.100059,2184,-3,2,2,-1,-1,-1,0,1
11.100083,2185,-2,-2,0,-2,0,-1,-1,-1
11.102045,2186,-1,-3,-4,-2,0,0,0,0
11.102054,2187,-2,-2,-1,0,-1,-1,-2,-3
11.123395,2188,0,0,0,-1,-2,-1,0,-1
11.123430,2189,0,1,0,-1,2,-1,-3,0
11.123926,2190,-1,1,4,3,1,-1,-1,0
11.123940,2191,0,-3,-5,-1,0,-2,-1,0
11.138829,2192,0,-1,5,-1,-3,0,-2,-2
11.138842,2193,2,3,-8,-5,-3,-2,-1,-1
11.143902,2194,-2,-3,-5,-8,-1,0,-3,-2
11.143928,2195,-1,-1,2,6,1,-1,0,-1
11.160031,2196,-2,-1,-6,-3,-1,0,0,-1
11.160053,2197,-1,-1,8,2,0,0,1,-1
11.161520,2198,0,14,-2,0,0,-2,2,-1
11.161541,2199,-2,-18,-5,-6,-4,-2,-1,-1
11.182873,2200,2,-1,-2,1,1,0,-1,0
11.182956,2201,-1,-4,-5,-2,-2,-1,-1,-1
11.184744,2202,0,-2,1,-1,-2,-1,-1,-2
11.184755,2203,-2,6,2,-2,0,0,0,-1
11.196889,2204,-2,3,-4,-1,2,-1,0,-2
11.196913,2205,0,2,2,-1,1,-1,-2,0
11.203928,2206,0,-5,-1,1,-1,0,-1,1
11.203951,2207,-2,5,0,0,-1,-1,-1,-4
11.220172,2208,-1,-4,2,0,-2,1,-2,2
11.220206,2209,0,2,-6,-7,-2,-1,-1,-1
11.222383,2210,-3,-4,3,-1,-3,-1,-1,0
11.222397,2211,0,-2,0,4,-2,-1,-1,0
11.242413,2212,0,3,-1,-3,-1,0,0,-1
11.242430,2213,-2,-2,7,1,0,-1,-2,-2
11.243996,2214,0,-6,-9,-5,1,0,-1,-3
11.244016,2215,0,-2,2,-3,-2,0,-1,-1
11.256262,2216,-2,2,2,-1,-1,-2,1,-1
11.257505,2217,0,-1,-1,3,0,-1,1,0
11.266247,2218,0,-6,2,1,-1,-1,-1,0
11.266259,2219,-1,9,0,0,0,-1,-3,-1
11.280103,2220,-4,-8,-5,-3,-3,-2,-3,-2
11.280125,2221,-1,-5,-7,-4,-2,0,-2,-2
11.281522,2222,-2,0,2,1,0,0,0,-2
11.281539,2223,2,1,2,-5,1,0,0,1
11.309841,2224,1,2,4,5,-2,-1,0,0
11.309855,2225,-4,-4,-7,-2,1,0,-2,0
11.311382,2226,0,-1,-4,-9,-3,-2,-2,-1
11.311397,2227,-2,-1,-4,2,-1,-2,0,-1
11.316095,2228,-2,-1,6,-1,-1,0,-1,-2
11.317265,2229,0,-1,-5,-3,0,-2,-1,-1
11.326006,2230,2,12,1,1,-1,0,-1,0
11.326017,2231,-1,-15,-3,1,-1,0,-1,0
11.341547,2232,-2,-4,-7,-4,-2,-2,-2,-2
11.341563,2233,-1,1,4,-1,-1,1,0,-1
11.341566,2234,-4,-1,-1,-1,-2,0,-1,2
11.341627,2235,1,2,-2,-5,-1,-1,-2,0
11.362915,2236,1,2,4,1,1,-1,-1,0
11.362948,2237,-2,-2,-2,0,0,-1,-1,-1
11.364778,2238,-2,0,5,3,-1,-2,0,-2
11.364796,2239,0,-4,-9,-1,0,1,0,0
11.376322,2240,-1,-5,-2,-10,-3,0,0,0
11.376350,2241,1,2,-1,3,-2,1,-1,-2
11.386577,2242,-2,-6,0,2,-2,-1,1,0
11.386594,2243,-2,-1,2,-5,-2,-3,-2,-1
11.400009,2244,-1,6,1,2,2,-2,0,-2
11.402412,2245,0,-3,-2,0,-1,0,0,2
11.402429,2246,1,-2,-1,0,0,-2,-2,-2
11.402432,2247,-2,1,1,-2,0,-3,-1,-2
11.422528,2248,0,1,-2,0,-2,0,0,-2
11.422554,2249,-2,-3,2,1,-1,0,-1,2
11.424251,2250,-2,-3,-4,-3,-3,-1,0,-2
11.424265,2251,-2,4,-1,-6,0,0,0,-1
11.436216,2252,-2,-1,-6,2,-1,-3,-2,-1
11.436232,2253,-2,-1,-3,-1,-1,-1,0,-1
11.446117,2254,-1,-1,7,2,1,1,-1,-1
11.446128,2255,-4,-3,-1,-2,-4,1,0,0
11.459996,2256,0,-2,-2,5,-1,1,-1,0
11.460014,2257,0,3,-1,-3,-2,-1,-1,-2
11.461951,2258,-5,0,-3,-5,-1,-1,-1,-2
11.461962,2259,-1,0,6,4,0,-3,-2,-4
11.482396,2260,0,-4,-2,-2,-2,-1,-2,-1
11.482411,2261,-1,-4,-7,-2,-2,1,-2,-2
11.484063,2262,2,1,1,-3,0,0,0,3
11.484084,2263,0,1,5,5,-3,0,-2,0
11.498253,2264,-2,-2,-4,-4,1,-2,-1,-2
11.498265,2265,-4,-1,-3,-4,-2,-3,-2,-2
11.505999,2266,0,-13,0,1,0,0,-1,1
11.506022,2267,0,1,-1,0,-1,0,0,0
11.520439,2268,1,-1,-2,-2,0,-1,-3,-1
11.522103,2269,0,0,2,-3,-1,-1,-1,-1
11.522122,2270,-2,-1,-8,-4,-1,-1,-2,-1
11.522126,2271,1,-4,-3,2,-2,-2,0,-1
11.542386,2272,0,-1,0,-1,-1,0,-1,0
11.542405,2273,1,4,6,3,4,-1,-1,-2
11.544418,2274,-1,-1,-4,1,-1,0,-2,-1
11.544432,2275,-1,-3,-5,-5,0,-2,-1,-2
11.556078,2276,-4,0,2,0,-3,1,-1,-1
11.556105,2277,0,-3,1,-9,1,1,-1,-1
11.565478,2278,0,-1,-7,5,-2,-1,0,-1
11.565490,2279,2,7,12,3,-2,1,1,0
11.580007,2280,-4,-2,1,-1,-1,-1,0,-1
11.580034,2281,0,1,-2,0,-3,-1,-2,-1
11.582210,2282,-3,-7,2,0,0,-1,-1,-1
11.582227,2283,-2,-2,-6,-5,0,-1,0,1
11.602775,2284,-2,-3,-4,-5,-2,-1,-2,-1
11.604126,2285,0,-3,5,7,-2,-1,1,-1
11.604139,2286,0,4,-1,-3,-1,-1,-2,-1
11.604141,2287,0,-4,-11,-2,-2,-1,0,0
11.616512,2288,-2,-1,-1,-1,-1,-1,0,-1
11.616540,2289,-2,-1,1,1,-1,-1,0,-2
11.625468,2290,1,2,1,-3,-1,-1,-1,0
11.625484,2291,-1,1,7,-1,-1,-1,-1,-2
11.640084,2292,1,0,-4,7,0,-1,-1,-1
11.640152,2293,-1,-5,-7,-4,-1,0,0,0
11.641479,2294,-2,1,-2,0,-1,-2,-1,-1
11.641499,2295,-2,-2,-1,-2,-1,0,0,-1
11.662457,2296,1,0,-1,0,0,-2,-2,0
11.662474,2297,-2,5,6,1,0,-1,-1,1
11.663927,2298,-2,-2,-1,0,-3,-1,0,-1
11.663941,2299,-2,-1,-7,-12,-1,-1,-1,0
11.685715,2300,-1,-5,-8,0,-1,0,0,0
11.685761,2301,-1,-4,0,-2,0,-3,1,2
11.686656,2302,0,3,2,0,0,0,-1,-1
11.686674,2303,-1,-5,-4,0,-1,-2,-1,-1
11.701053,2304,-2,-1,2,-1,0,-1,-1,-2
11.701064,2305,0,-1,-3,-2,-2,-1,-3,-1
11.701377,2306,-4,-1,3,-1,0,0,1,1
11.701391,2307,-1,-1,-2,3,0,-1,-1,0
11.722582,2308,0,2,1,-3,0,0,1,0
11.722608,2309,-2,-1,-3,3,-2,-1,0,0
11.724000,2310,1,-4,-2,-3,0,-1,-1,-2
11.724013,2311,0,5,1,1,0,-1,-1,0
11.745242,2312,-1,1,-2,-5,-2,-1,-2,-1
11.745265,2313,-2,-4,-4,-2,-2,-2,-1,-2
11.746718,2314,0,-1,-3,0,-2,-3,-1,-2
11.746729,2315,0,-3,-4,0,0,-1,1,0
11.760581,2316,-5,-1,2,0,-1,-3,-1,-1
11.760605,2317,1,-1,1,-3,-1,-1,-2,-1
11.762428,2318,-2,-5,-7,4,-1,0,-1,-2
11.762445,2319,0,-1,-7,-3,-3,0,-2,-1
11.782896,2320,0,1,3,-4,-1,-1,-1,-2
11.782995,2321,-5,-2,-2,-1,-2,-2,-1,-2
11.783992,2322,-1,-1,-4,-8,-1,-2,0,-1
11.784009,2323,-2,-1,2,8,2,0,-2,0
11.805161,2324,2,0,2,0,-1,2,0,0
11.805183,2325,0,1,-5,-3,0,-2,-2,-3
11.807106,2326,-2,-7,0,-3,0,0,-1,0
11.807118,2327,-3,0,-1,0,-2,-1,-1,-2
11.819337,2328,-1,0,3,-1,-1,-1,0,1
11.820267,2329,-1,-1,1,0,-2,-1,-1,-1
11.826075,2330,-2,3,5,0,0,0,0,-2
11.826093,2331,0,-7,-14,-4,0,-1,-3,0
11.842420,2332,-2,-2,-5,-1,-2,-2,-3,-2
11.842432,2333,-1,-1,-3,-6,-2,0,0,0
11.843999,2334,-1,1,2,4,2,-1,0,1
11.844022,2335,-1,-1,2,-4,-2,-2,0,0
11.865301,2336,0,-2,-2,-3,-1,-2,-2,0
11.865329,2337,-2,-2,-5,-5,-2,-1,-1,-1
11.867565,2338,0,3,3,5,-1,-1,-1,-1
11.867581,2339,-2,1,3,1,-1,1,-1,-2
11.879816,2340,-1,-2,-7,-6,-1,-1,0,-2
11.879848,2341,-1,-3,7,3,0,-1,0,0
11.886034,2342,1,1,0,2,1,1,-1,-1
11.886059,2343,-1,0,-2,-4,-1,-2,0,0
11.902516,2344,2,-1,-5,-3,-2,-1,-1,-2
11.902540,2345,-3,-2,-1,-2,0,-1,-1,-2
11.904125,2346,0,-4,-6,-4,-1,-1,-1,-2
11.904201,2347,-1,3,7,5,-1,0,-1,-1
11.925106,2348,-1,1,0,-3,-2,-2,-2,1
11.925128,2349,1,2,-4,-4,-2,-1,-2,-1
11.926569,2350,-1,-4,1,-1,0,-1,-1,1
11.926591,2351,-3,1,4,1,1,0,0,-1
11.939197,2352,-1,-4,-3,-1,-1,0,-1,1
11.939216,2353,1,-1,-5,4,0,-1,-2,-1
11.946006,2354,-2,6,0,-4,-3,-3,-2,0
11.946026,2355,-1,-4,-4,-3,1,-2,0,-1
11.962507,2356,-1,-1,4,3,-1,0,0,-2
11.962525,2357,-3,-3,-3,1,0,-1,0,1
11.964101,2358,0,-2,-5,-5,-2,0,-1,-1
11.964177,2359,-1,1,1,-5,-2,-1,-2,-3
11.984914,2360,-2,-1,-7,2,1,-1,1,0
11.984931,2361,-1,-2,0,1,-2,-1,-1,-1
11.986785,2362,0,-4,1,2,1,-1,-1,-1
11.986813,2363,2,3,2,1,-4,-2,-2,-1
11.999282,2364,-4,-5,-4,-7,-1,-1,-3,-1
11.999301,2365,-1,-3,4,5,0,0,0,-2
12.006136,2366,-1,0,0,-1,0,0,1,0
12.006152,2367,-1,-4,-3,0,0,1,0,1
12.021599,2368,1,-1,0,0,-1,0,0,0
12.021623,2369,-1,2,-1,2,-1,1,0,1
12.029999,2370,-1,-8,-1,-1,-1,-1,-2,-1
12.030015,2371,-2,-2,-2,0,0,1,0,-1
12.045827,2372,-2,1,1,-4,1,0,-1,-3
12.045840,2373,-2,0,-1,1,0,-1,0,-1
12.046415,2374,-1,-1,-3,1,-2,-1,-2,-1
12.046430,2375,-2,5,0,-2,-2,0,-2,-1
12.059430,2376,0,2,3,4,0,0,0,0
12.059452,2377,-1,1,-3,-4,-1,1,-2,-2
12.066515,2378,-2,2,2,-8,-2,0,-1,1
12.068465,2379,-1,-5,-4,4,1,-2,-1,-2
12.082660,2380,-2,-1,0,1,0,0,-1,1
12.084586,2381,-1,4,9,-1,0,-2,-1,-2
12.084598,2382,1,-3,-10,-3,-3,-1,0,0
12.084600,2383,0,-2,-2,-3,0,1,-1,0
12.105292,2384,0,-1,1,0,-1,-1,0,-2
12.105328,2385,1,-1,0,-4,-1,0,0,0
12.106553,2386,-2,1,2,7,1,-1,-1,-1
12.106564,2387,0,-3,-4,-5,-4,-2,-2,-1
12.119362,2388,-1,8,6,3,-4,-2,-2,-2
12.119385,2389,-1,-14,-5,-4,-2,-1,-1,-1
12.126044,2390,-2,2,-1,-5,0,0,-2,-2
12.126067,2391,-3,0,0,1,-2,-1,1,-2
12.142345,2392,-1,0,-2,1,0,-1,1,-2
12.142358,2393,0,2,0,-2,-1,-1,-1,1
12.143881,2394,-1,0,0,1,-2,-2,-1,0
12.143896,2395,-2,-6,-2,-1,1,1,0,0
12.165241,2396,-2,0,-1,-1,0,-1,-2,-1
12.166420,2397,-1,-2,-3,2,-1,-1,-1,-1
12.166432,2398,-1,-1,0,-1,0,-2,-1,-1
12.166434,2399,0,0,-1,-3,-3,-2,-1,0
12.178847,2400,-2,-3,-4,-6,-1,-2,-1,-1
12.178923,2401,0,2,3,-1,0,0,-1,-2
12.187741,2402,3,1,-5,6,1,0,0,-2
12.187752,2403,-1,1,5,2,3,-1,0,-1
12.202559,2404,-1,-5,-2,0,-1,-1,-2,-3
12.202607,2405,-3,1,-4,-9,-1,-1,-2,0
12.204007,2406,0,1,-1,1,-2,0,-1,-2
12.204027,2407,-1,3,5,-2,-1,0,-3,-2
12.225286,2408,0,-3,-5,-2,-2,-1,0,1
12.225309,2409,-1,-1,-1,0,-1,-2,0,0
12.226975,2410,1,-1,1,-4,-1,-1,1,1
12.226987,2411,-1,-1,-5,-2,-3,-2,1,-2
12.238571,2412,-1,1,-2,0,-1,0,-2,-1
12.238587,2413,-1,-3,2,0,-1,-1,1,-2
12.248924,2414,-4,2,4,-4,0,-1,-1,-1
12.248937,2415,0,-8,-18,-3,-1,0,-1,1
12.262597,2416,-3,1,6,-1,-1,-2,0,-3
12.262620,2417,0,-3,-7,3,-1,-1,1,-1
12.264665,2418,-1,-5,-1,-2,-2,-2,-1,-1
12.264677,2419,0,2,4,-5,-2,-1,0,-2
12.285028,2420,1,1,-1,5,3,-1,-2,0
12.285046,2421,-3,4,5,1,1,0,-2,1
12.286831,2422,-1,-1,0,-5,-2,-2,-1,-1
12.286843,2423,-3,-4,-4,1,-2,1,-1,0
12.298633,2424,-2,-6,-4,2,-1,0,1,0
12.298650,2425,-1,0,0,-2,0,0,0,-2
12.308376,2426,-2,-2,-4,-4,-1,0,-1,-1
12.308387,2427,-2,-3,2,-2,0,0,-1,-2
12.322447,2428,1,-5,-7,-5,-2,0,0,-2
12.324180,2429,1,1,5,2,2,0,0,1
12.324195,2430,0,-1,-3,0,-2,0,-1,-2
12.324197,2431,-2,-3,-2,0,-1,-1,0,0
12.345625,2432,-3,-8,-7,-3,-1,-1,-1,0
12.345657,2433,-1,-1,-5,1,-1,1,1,1
12.347799,2434,-1,2,4,4,1,-1,-1,0
12.347811,2435,1,1,2,0,1,-1,-3,-1
12.358522,2436,-1,0,-5,-4,-4,-2,-2,-2
12.358553,2437,-3,-3,-2,-6,-4,-2,-2,-3
12.369071,2438,-3,-1,-3,1,0,0,-1,-1
12.369082,2439,0,4,3,5,0,0,-1,-1
12.382480,2440,-1,3,4,-1,1,2,1,1
12.382500,2441,-2,-5,-7,2,0,-1,-2,-1
12.383846,2442,-1,-2,-4,-2,-2,2,-1,-2
12.383861,2443,-1,-3,-4,-5,-2,-3,-1,1
12.404919,2444,0,-2,2,1,-1,0,-2,-3
12.404963,2445,-1,-2,-1,-5,-5,-2,0,1
12.406390,2446,1,-3,-1,-2,-1,1,0,0
12.406399,2447,-1,5,2,1,-1,-1,0,-1
12.418652,2448,2,0,0,-3,-2,-1,-1,-2
12.420614,2449,-1,0,-3,4,-1,-1,0,-3
12.428388,2450,-3,-1,-2,-3,-1,-2,-1,-1
12.428402,2451,0,-1,1,-2,0,-1,0,0
12.442555,2452,-2,0,-2,2,-1,-2,-1,1
12.442580,2453,1,0,0,0,0,-1,-2,-2
12.444260,2454,0,-3,-7,-1,-1,-1,1,0
12.444270,2455,-2,-1,1,-2,-2,-1,0,-2
12.465105,2456,-1,-1,-1,-6,-2,-2,-1,-1
12.466599,2457,1,0,-6,-6,-4,-1,-2,0
12.466613,2458,0,-2,5,6,3,1,1,-1
12.466616,2459,0,-1,5,6,2,0,-1,-1
12.478627,2460,0,-1,-1,-1,-2,0,1,1
12.478680,2461,-3,-1,-1,1,-2,0,-1,-1
12.488649,2462,-1,-5,-12,-9,-4,-1,-4,-2
12.488660,2463,-2,2,-6,-4,-3,-3,-2,-2
12.502926,2464,0,1,2,-3,3,-1,-1,-2
12.502955,2465,-2,2,4,0,-1,-2,0,-2
12.503972,2466,1,-1,-3,0,-1,0,0,-1
12.504099,2467,1,-3,-1,-5,-2,-1,1,1
12.525286,2468,-2,-1,-1,3,-2,0,-1,0
12.527460,2469,1,0,4,-4,-1,2,0,2
12.527471,2470,-1,0,2,1,-2,-1,0,0
12.527473,2471,-4,-4,-2,-1,-2,0,-2,-3
12.539123,2472,-3,0,-6,-2,-1,-2,-2,-1
12.539154,2473,-2,-3,1,1,0,-3,0,-2
12.548376,2474,-2,-4,-2,-5,-2,-1,-1,-1
12.548386,2475,0,7,11,9,2,-1,-1,-1
12.563382,2476,1,-10,-4,0,-1,0,-1,-2
12.563407,2477,-2,1,-2,-2,-1,-1,-2,-2
12.564660,2478,-3,-1,-3,-4,-3,-1,-1,-2
12.564679,2479,-3,-1,-2,-9,0,-2,0,0
12.584909,2480,1,1,2,3,0,-2,0,-1
12.584927,2481,2,-5,-6,-1,-2,-2,-2,0
12.586402,2482,0,3,5,1,-1,-2,-1,-2
12.586416,2483,-1,-5,-9,0,-2,-2,0,0
12.598830,2484,0,2,5,-2,-2,-3,-1,0
12.599867,2485,-2,0,-3,-3,-1,-1,-1,-2
12.607532,2486,-2,-1,-2,0,-1,-2,-2,0
12.607570,2487,-2,-2,-4,-2,-1,-2,-2,-1
12.623522,2488,1,2,9,7,1,2,0,1
12.623537,2489,-1,-3,-1,2,2,-3,-2,-3
12.623936,2490,0,3,2,-4,0,-1,0,-1
12.623951,2491,-2,-3,-2,0,-3,-3,-2,-3
12.645256,2492,-3,6,-1,-5,-1,-1,1,-1
12.646684,2493,0,-11,-3,-3,-2,-2,0,-2
12.646694,2494,-1,-7,-8,-1,0,0,-1,-1
12.646696,2495,2,0,-1,-3,0,1,0,2
12.667442,2496,-2,1,-1,-2,-1,-2,-2,-1
12.669102,2497,-2,4,0,-2,0,0,-1,-2
12.669114,2498,1,4,3,1,1,-1,-1,-1
12.669116,2499,-1,-3,-2,-1,-2,1,0,-1
12.682214,2500,-2,-4,-3,0,1,-1,-1,-3
12.682313,2501,0,3,-1,0,2,0,-1,1
12.688880,2502,-2,-1,-1,1,-2,1,-3,0
12.688901,2503,-2,1,0,1,0,1,-2,0
12.705027,2504,1,-8,-1,-4,-4,0,-2,-1
12.705045,2505,-2,3,3,-4,-1,-1,-1,0
12.707621,2506,0,3,0,5,2,-1,-1,0
12.707633,2507,-1,-2,0,2,-1,0,0,-2
12.727715,2508,-3,-3,-4,-3,-1,-2,-2,-1
12.727738,2509,-1,-3,-4,-1,-1,0,1,1
12.729171,2510,0,6,4,-1,-2,-1,-1,-2
12.729183,2511,-2,-4,2,-1,0,1,2,-1
12.742542,2512,0,1,3,2,0,-1,-1,-1
12.742567,2513,-4,-3,-3,0,-2,-1,-1,-2
12.743868,2514,-4,-4,-6,-6,-1,-2,-1,0
12.743881,2515,-1,1,-1,-1,-2,-1,-2,-1
12.765633,2516,1,6,-2,-2,1,2,1,-1
12.765681,2517,-2,-14,-1,-2,0,1,-1,-1
12.766496,2518,0,-1,0,-4,0,0,0,-1
12.766518,2519,0,3,-4,2,-3,-2,-1,-2
12.787816,2520,0,3,7,3,0,0,-1,1
12.787850,2521,3,3,0,0,1,0,0,0
12.789436,2522,-2,-7,1,-4,-4,-4,0,-2
12.789446,2523,0,-4,-8,-3,-1,1,-2,-2
12.802230,2524,-1,-1,-2,1,-2,-2,-1,0
12.802271,2525,0,1,1,0,-2,0,-1,-1
12.808534,2526,-1,-3,1,0,0,0,0,-2
12.808565,2527,-1,1,1,-4,-1,-2,-1,-2
12.826567,2528,-2,-5,-6,-1,-2,-2,0,-1
12.826586,2529,0,6,-3,0,0,-1,-1,-1
12.826589,2530,-3,-4,-1,0,-3,1,-1,0
12.826655,2531,0,-4,-3,-6,0,0,0,0
12.847438,2532,-3,-2,2,3,-1,-1,-1,-1
12.847461,2533,0,5,3,-3,2,-1,-1,-2
12.848952,2534,-1,3,4,7,2,1,0,-1
12.848989,2535,1,0,3,1,-1,0,-1,-1
12.862090,2536,-1,-6,-8,-8,-4,-1,-1,-3
12.862114,2537,-4,-1,-1,-1,-2,-2,-1,0
12.868614,2538,-1,1,-5,-2,-1,-1,0,0
12.870116,2539,-2,-1,2,-1,0,-1,-1,1
12.885125,2540,1,0,0,1,0,0,0,-1
12.885143,2541,-1,-3,0,1,0,1,1,1
12.887516,2542,-1,-6,-8,-3,0,-1,2,-2
12.887531,2543,-1,-1,2,-2,-2,-2,0,1
12.907844,2544,-2,0,-3,-1,-2,-1,-2,-2
12.907872,2545,1,-1,-1,1,-3,0,-1,0
12.909131,2546,-3,0,6,0,0,-1,1,0
12.909144,2547,-1,-3,-7,0,0,1,1,-2
12.921884,2548,-1,2,2,-1,-1,0,-3,-1
12.921979,2549,-3,-8,-7,-2,-2,-1,-2,-1
12.928560,2550,0,4,0,-1,-1,-1,-3,-2
12.928582,2551,0,7,-1,0,0,-1,-2,0
12.944878,2552,-1,-7,0,-2,-1,-1,-1,-2
12.944895,2553,-1,2,2,-1,-2,0,-1,-2
12.947082,2554,-1,-1,6,3,-1,-1,-1,-1
12.947093,2555,1,-2,-5,-2,-1,-2,0,1
12.967561,2556,0,0,-2,4,2,0,0,2
12.967641,2557,-2,0,-4,-3,-2,0,0,-1
12.968896,2558,-1,-5,-6,-6,-3,-1,-2,-1
12.968909,2559,-2,0,3,0,-2,0,-1,-2
12.981727,2560,-1,2,3,-6,-2,-2,-2,0
12.981739,2561,0,-3,-4,3,-1,-1,0,1
12.988609,2562,-3,5,1,0,0,-1,0,-1
12.988634,2563,-3,-8,-4,1,0,-2,-1,-1
13.005092,2564,-2,3,-4,0,-1,-1,-1,-1
13.006706,2565,-2,0,3,-2,0,-3,0,-2
13.006720,2566,1,1,1,0,-1,-1,-2,-3
13.006722,2567,0,-2,1,0,-1,-1,-2,0
13.028793,2568,-1,0,0,-2,-3,-2,0,-2
13.028815,2569,-1,-1,-2,1,0,0,-2,0
13.029015,2570,0,-3,-4,-1,-1,1,-1,-1
13.029023,2571,-1,3,3,-2,0,-2,-1,-3
13.041920,2572,1,-4,-4,0,-2,-1,-1,-2
13.041939,2573,2,-2,-6,1,-2,-1,-1,1
13.048681,2574,0,0,3,0,0,-1,-2,1
13.048709,2575,-3,-4,-2,0,-2,0,-2,-1
13.065176,2576,-2,0,2,-1,-1,1,-1,-3
13.065197,2577,-1,2,0,1,-1,-1,-1,-2
13.066617,2578,-2,-1,-1,-1,-2,0,-2,0
13.067508,2579,-1,-5,-7,-4,1,-1,-2,-2
13.087410,2580,-2,5,0,-3,0,0,1,-2
13.087434,2581,-3,-6,0,-1,0,-1,0,-1
13.089843,2582,0,-1,-5,-3,-2,-2,-1,-1
13.089866,2583,0,1,7,2,-1,-1,0,-1
13.102043,2584,-2,-2,-4,0,-2,-1,0,0
13.103656,2585,-2,2,2,-4,-2,-1,-3,-3
13.108622,2586,-2,4,1,0,0,-2,-1,-1
13.108640,2587,-2,-8,-13,-6,-2,-1,1,0
13.125281,2588,-2,0,4,-1,-1,-4,-2,1
13.125362,2589,3,-1,-5,3,0,2,0,0
13.126418,2590,0,-5,5,3,0,-1,0,1
13.126456,2591,-3,1,1,1,0,0,0,0
13.147469,2592,-1,0,0,-3,1,0,-1,0
13.147486,2593,-1,-4,-2,-2,-1,0,-1,-1
13.148933,2594,-1,3,-2,-3,0,0,-1,-1
13.149005,2595,-3,-2,1,0,-2,0,-2,1
13.161434,2596,-2,-3,-2,-2,-3,-1,-1,-2
13.162270,2597,-2,-4,0,-3,-2,-2,0,-2
13.170185,2598,0,-3,-4,0,1,0,0,-1
13.170198,2599,-2,2,3,-3,-1,-1,-2,-2
13.185900,2600,1,-7,-6,1,0,0,-1,-1
13.185953,2601,-1,7,0,0,-1,-1,-2,1
13.186403,2602,-1,-2,-1,-3,-2,-1,-1,-2
13.186425,2603,2,1,1,3,-3,-3,-1,-2
13.207599,2604,1,-5,-9,-3,-2,0,-1,0
13.207625,2605,-2,4,0,2,1,-2,0,0
13.209122,2606,0,0,3,0,1,0,0,0
13.209134,2607,-1,2,2,-1,0,0,-1,-1
13.221220,2608,-1,-2,2,-1,-1,-2,-1,1
13.221243,2609,-3,-4,-4,-5,-3,-1,-2,-2
13.230684,2610,0,-3,-8,-2,-2,-1,-1,0
13.230696,2611,-2,0,2,-2,-1,-1,-1,-2
13.244959,2612,0,0,1,1,2,-1,-2,-1
13.244976,2613,-1,-3,-1,-3,-1,-2,0,-1
13.246748,2614,-2,0,-4,-4,-3,0,0,-2
13.246803,2615,-2,-7,3,-4,-2,-1,-2,-1
13.267379,2616,-2,-3,1,9,1,0,0,0
13.267396,2617,0,2,4,-2,-1,-1,-1,-1
13.269817,2618,0,-6,-8,-1,-2,-2,-1,1
13.269827,2619,1,2,-3,-2,-1,0,0,-1
13.281484,2620,-2,2,2,-4,-2,-1,-1,-2
13.281511,2621,-2,-2,-3,-3,1,0,-1,0
13.290994,2622,-2,3,7,7,0,0,-1,-3
13.291012,2623,0,-3,-2,-2,0,-1,-1,-1
13.304936,2624,0,0,-2,-3,-1,-1,-1,-2
13.306757,2625,1,-2,-3,1,1,-1,-1,-2
13.306771,2626,-1,-1,-4,-3,-1,-2,-2,-2
13.306774,2627,-2,-1,-5,0,-2,1,-1,1
13.327403,2628,0,-3,0,-1,-2,-1,1,-2
13.327426,2629,0,1,8,-1,1,-2,1,-1
13.329047,2630,1,1,1,1,-1,-2,-1,0
13.329075,2631,0,2,-4,5,3,-1,-1,-1
13.341315,2632,-3,-6,-6,-4,-1,0,-3,-1
13.341343,2633,-2,-2,0,-1,-2,0,-2,-1
13.351648,2634,-3,-5,-2,-3,0,0,-1,0
13.351666,2635,-1,2,-1,-3,-3,-3,0,-1
13.365046,2636,-1,-1,0,2,-1,-2,-1,-1
13.365069,2637,0,7,4,-2,-1,-2,2,-3
13.366647,2638,-2,-1,-3,-3,-1,-2,0,-1
13.366663,2639,0,0,-1,-2,-1,1,-1,-1
13.387492,2640,-3,-2,2,-4,-1,-1,-1,-2
13.387507,2641,0,-3,-2,-1,-1,1,0,1
13.388916,2642,-3,-1,0,-4,-2,0,1,-1
13.388939,2643,0,-3,-1,3,0,-2,-1,1
13.401094,2644,1,-1,-5,-5,0,-1,0,-1
13.401115,2645,-1,7,8,2,-1,-2,-4,-2
13.410934,2646,0,-4,-6,5,0,1,-1,-1
13.410949,2647,-2,0,6,1,0,0,-2,0
13.424959,2648,-2,5,3,0,-1,1,-1,1
13.424979,2649,-1,-6,-9,-6,-3,-2,0,-1
13.426474,2650,0,6,-4,-2,0,-2,-2,0
13.426490,2651,-2,-8,5,0,-1,-1,0,-2
13.448509,2652,-1,-4,-5,4,1,-1,0,1
13.448527,2653,-2,3,4,-1,1,0,-1,-2
13.448921,2654,-3,-1,0,-4,-2,-2,-2,0
13.448934,2655,-1,1,-6,-2,-2,-2,-1,-1
13.461198,2656,-1,-2,-1,-4,-2,-1,-1,-2
13.461215,2657,-3,-5,-6,-2,-3,0,-2,-1
13.471213,2658,-1,-3,2,-2,0,0,0,-1
13.471224,2659,2,3,-1,4,0,0,-2,0
13.485285,2660,-2,-1,-6,-5,-4,-1,1,0
13.486366,2661,1,-13,-8,3,1,-2,-2,0
13.486427,2662,0,9,10,5,2,-1,2,-1
13.486942,2663,-2,-9,-1,-7,-1,-3,0,0
13.507765,2664,-2,0,1,-2,-2,-1,-2,-1
13.509257,2665,-3,3,-3,-7,-3,-1,-1,-2
13.509270,2666,-2,-11,-2,3,1,-1,1,1
13.509272,2667,-2,0,1,0,-1,0,0,1
13.521227,2668,1,4,2,-3,-1,-2,-1,0
13.521244,2669,-3,-7,-3,3,0,0,-1,-1
13.531358,2670,-1,2,-4,-3,-2,-1,-3,-1
13.531374,2671,0,4,-2,-2,-1,-1,0,-4
13.544983,2672,2,-4,-1,-2,1,-1,-3,-1
13.544999,2673,2,4,-1,-2,-2,-1,0,0
13.547329,2674,-3,-3,-2,-2,-1,0,-1,1
13.547341,2675,-1,-7,-5,-3,-1,-2,0,0
13.567721,2676,-3,6,5,3,0,-1,0,-1
13.570050,2677,0,0,-1,0,-2,-3,-2,-2
13.570068,2678,-3,5,12,-2,-1,-1,-2,-1
13.570072,2679,1,4,-2,-3,-2,0,0,1
13.589839,2680,-4,-8,-4,-2,-3,0,-1,-2
13.589857,2681,0,0,-4,2,1,0,-1,1
13.591354,2682,2,-13,0,-2,1,0,0,-1
13.591368,2683,-2,2,-5,0,0,0,-1,-1
13.605072,2684,0,6,3,-1,-1,-1,0,-1
13.605142,2685,-1,-4,-5,-4,0,0,1,0
13.606412,2686,-3,-1,-5,-2,-2,-2,-4,-2
13.606427,2687,-2,-2,-1,-2,-1,0,-2,-1
13.627744,2688,0,-3,-2,0,-1,-2,-1,0
13.627774,2689,-2,0,1,-2,-1,-2,0,0
13.629458,2690,-1,-1,-4,-5,-2,-2,1,-2
13.629475,2691,-1,0,2,7,1,0,-2,-2
13.650000,2692,-3,-2,-3,-4,-1,-1,-2,0
13.650024,2693,-1,0,-1,-3,-2,-1,-2,-1
13.651508,2694,1,1,1,-2,-1,-1,0,1
13.651528,2695,-2,-2,-1,-4,-3,0,0,-2
13.665375,2696,3,6,-2,3,2,-3,-2,-2
13.665390,2697,-4,-7,0,2,1,0,-1,-2
13.666391,2698,-4,-1,5,5,2,0,-1,-1
13.666409,2699,2,0,4,0,0,0,0,-1
13.687504,2700,-1,1,-1,-3,-4,0,1,-1
13.687565,2701,-1,2,-2,-3,-2,-1,-3,-1
13.689065,2702,-1,-1,-7,-5,-1,-3,-1,-3
13.689077,2703,-2,1,2,-3,-2,-2,-3,-1
13.709877,2704,-2,-4,-3,2,-1,-1,-1,0
13.709895,2705,-2,3,11,-2,-2,-2,0,-1
13.711451,2706,0,7,-18,-2,-3,0,-1,-1
13.711467,2707,-2,-25,0,-3,2,0,1,-1
13.724312,2708,4,-5,0,8,-3,-1,1,1
13.724335,2709,-5,-1,3,3,-3,2,0,0
13.731316,2710,-5,1,1,-10,-19,-7,-4,-3
13.731346,2711,13,9,-4,5,3,0,0,-1
13.747691,2712,5,1,-2,-5,-2,0,-1,-2
13.747720,2713,-11,-3,-1,3,3,0,0,-1
13.749102,2714,-1,-2,-4,-8,-4,-1,0,-2
13.750357,2715,-3,3,-2,3,-3,-1,0,0
13.770342,2716,-2,2,7,-2,-1,0,-2,0
13.770373,2717,5,10,-3,-2,-2,-1,-1,-3
13.771960,2718,-1,-4,2,8,4,0,1,0
13.771971,2719,-6,-12,-4,-6,-2,-2,-2,-3
13.784353,2720,-2,-4,-6,1,3,-1,0,0
13.784377,2721,-2,2,2,-5,-3,-3,-1,-1
13.791089,2722,1,2,0,0,2,0,-1,0
13.791114,2723,1,6,-4,-2,-2,-3,0,-1
13.807372,2724,-6,0,3,-2,-1,0,-2,-2
13.807386,2725,1,-7,-5,2,0,-1,-1,0
13.808989,2726,0,8,-1,0,1,0,-2,0
13.809066,2727,-6,-15,-1,0,1,-1,1,0
13.830008,2728,0,-7,2,-4,1,-1,-1,-1
13.830032,2729,2,-15,-16,-7,-2,-2,0,0
13.832008,2730,2,-3,12,5,3,2,2,0
13.832030,2731,-4,16,12,-2,-4,-1,-1,0
13.844455,2732,5,8,-3,5,2,-2,-2,-1
13.846083,2733,-23,-10,-3,-2,0,1,0,-1
13.851372,2734,0,-4,-7,-4,-1,-2,-1,-1
13.851396,2735,-2,0,-9,-8,-2,-1,-2,-1
13.867695,2736,-4,-2,-1,-3,-1,-1,0,-2
13.867726,2737,9,6,4,2,-2,-1,-1,0
13.869479,2738,1,-6,-2,-3,0,-1,0,0
13.869491,2739,-2,-1,1,3,0,-2,-2,-2
13.890420,2740,-2,-3,-6,-3,-3,-3,-1,1
13.890450,2741,0,2,-3,-2,2,-1,-2,-3
13.891909,2742,-4,0,0,3,3,0,0,0
13.891920,2743,3,3,5,-1,-1,-2,1,-1
13.904291,2744,-6,-16,-1,-7,-4,-3,0,0
13.904307,2745,5,19,-4,4,-3,-2,-1,-2
13.911166,2746,-1,-20,6,2,1,-1,0,0
13.911183,2747,-2,-2,-5,-3,-2,1,0,0
13.927497,2748,-4,8,-7,-14,-4,-2,-3,-1
13.927515,2749,3,-8,4,8,3,-1,-2,2
13.929339,2750,1,18,-16,4,-1,-1,0,-2
13.929350,2751,0,-4,36,7,-1,0,-1,-3
13.949969,2752,-8,-7,-23,-9,0,0,-1,-2
13.950100,2753,2,14,35,5,6,2,-1,-1
13.951308,2754,3,1,-4,-7,-4,-2,-2,0
13.951321,2755,-8,-1,-10,6,-1,0,-2,1
13.964258,2756,1,2,3,2,0,-1,0,-3
13.964275,2757,0,-9,-18,-9,-5,-1,0,0
13.971207,2758,-4,-4,0,-2,1,-1,1,1
13.972682,2759,0,-3,-8,-7,0,0,-2,-1
13.987895,2760,2,2,4,2,-1,1,-2,0
13.987928,2761,-1,-6,-9,-1,-3,-1,-2,-1
13.989287,2762,-2,-6,6,-4,-2,-2,-2,-2
13.989299,2763,2,16,-2,3,-1,-1,-1,-1
14.009880,2764,-2,0,6,4,0,0,-1,-2
14.009897,2765,1,-4,0,-1,0,0,0,-1
14.011435,2766,-1,-3,-1,-3,-9,0,-2,0
14.011454,2767,-1,-5,-15,-16,-10,-2,-3,0
14.026180,2768,0,16,0,14,12,0,-1,-2
14.026193,2769,-2,-14,1,1,5,-1,0,-2
14.031204,2770,-4,-21,-18,-10,1,4,2,0
14.032623,2771,11,10,-37,-2,-5,-8,-3,-2
14.047617,2772,-3,16,41,18,1,3,3,0
14.048830,2773,-18,-4,23,1,-3,0,-1,0
14.048909,2774,4,10,9,8,5,-1,0,-1
14.048985,2775,-5,-22,-10,-11,-5,-1,1,-1
14.070223,2776,2,2,-27,-18,-7,-2,-3,-2
14.070241,2777,7,8,-7,2,-2,-1,-1,1
14.072471,2778,-6,-7,5,2,-3,-2,-1,-1
14.072482,2779,-1,9,2,1,0,1,0,-2
14.083660,2780,2,-10,-6,-8,-1,-3,0,0
14.084789,2781,0,-1,-1,-1,-1,0,1,-3
14.093197,2782,0,-3,-1,1,-2,-3,-2,-2
14.093207,2783,-2,0,4,1,4,0,-1,0
14.107779,2784,-5,-8,3,-2,-1,0,0,-2
14.107814,2785,3,-6,-17,-6,-6,-3,-4,-1
14.109381,2786,-2,6,-1,-5,-1,-2,-1,0
14.109393,2787,4,-9,18,14,5,0,1,1
14.130227,2788,-3,-11,-1,-1,-3,-2,0,0
14.131394,2789,2,1,-11,-7,-2,-3,-1,-1
14.131469,2790,-1,30,7,-4,-1,-1,-1,-2
14.131512,2791,-4,-15,2,-10,1,0,-1,-1
14.144430,2792,1,-6,-2,-3,-2,-1,0,0
14.144464,2793,0,5,4,9,3,1,-1,1
14.153178,2794,-1,-2,-19,0,-14,-8,-3,-1
14.153192,2795,-7,10,7,-3,3,0,0,-2
14.167528,2796,-5,-6,11,6,0,0,0,-1
14.167539,2797,13,-26,-28,-7,-1,0,1,0
14.168994,2798,2,22,52,13,1,2,-1,0
14.169006,2799,-12,-15,-18,-4,-5,-1,-1,-4
14.190014,2800,5,7,-5,-2,-3,-2,-1,-1
14.190074,2801,-4,1,2,-9,0,0,2,0
14.191526,2802,1,-13,-13,-1,3,0,0,-1
14.191539,2803,2,5,0,-1,-2,0,-1,-1
14.203686,2804,0,-3,2,4,5,2,0,1
14.203704,2805,-2,0,-3,-1,-3,-1,-1,-2
14.214100,2806,-2,-8,-12,-6,1,1,0,0
14.214120,2807,-1,4,3,-7,-1,-2,-1,-1
14.227208,2808,4,16,6,9,-3,-2,-1,-1
14.227249,2809,-8,-16,-4,-3,0,-2,-1,-1
14.234257,2810,-3,-8,-3,0,0,-2,-1,-2
14.234299,2811,-5,-13,-5,6,1,1,-3,-2
14.249992,2812,-1,4,0,-11,-4,-4,-2,-2
14.250012,2813,4,15,12,5,1,-2,-1,1
14.251515,2814,9,-2,7,1,1,2,-1,-2
14.251527,2815,-7,-2,-13,-6,-6,-3,-2,1
14.263738,2816,-13,-25,-17,-9,-2,0,-2,-3
14.263770,2817,-3,2,-13,-4,-6,-3,-2,0
14.272743,2818,4,5,23,11,8,2,3,1
14.272757,2819,-4,4,2,0,1,-1,0,0
14.287452,2820,-2,5,0,4,-1,-2,-1,1
14.287478,2821,1,-11,2,-5,-2,0,-1,-2
14.288958,2822,2,-7,-21,-5,-3,-3,-3,3
14.288977,2823,5,13,13,4,-1,0,1,-1
14.310022,2824,-2,5,-4,-15,-2,0,0,0
14.310048,2825,-6,-36,-15,5,-2,-2,-2,-1
14.311645,2826,-5,10,2,-2,-2,-2,-3,-1
14.311671,2827,2,16,27,10,5,0,1,-2
14.333142,2828,-2,-11,-6,1,-1,-1,0,0
14.333161,2829,3,24,-22,-19,-7,-4,-3,-2
14.334666,2830,-5,-56,25,22,6,0,-1,-3
14.334685,2831,-1,-9,-14,-2,-1,-1,-1,0
14.347415,2832,3,-7,-19,-9,-10,-5,0,-3
14.347436,2833,-1,22,33,15,6,2,2,-2
14.348885,2834,-15,-1,-25,-12,-2,-2,-2,-1
14.348924,2835,-1,10,0,-5,-1,-2,1,-1
14.371904,2836,2,-11,9,11,0,1,0,0
14.371917,2837,6,0,-16,-11,-3,-3,-2,-2
14.371920,2838,-14,7,-6,-9,-2,-1,-3,-1
14.371922,2839,4,3,5,5,-1,1,-1,0
14.383570,2840,-1,-1,-2,3,1,0,-2,0
14.383588,2841,0,8,16,0,1,-2,-2,-1
14.392912,2842,-2,17,-4,-6,-5,0,1,-3
14.392923,2843,7,-23,-15,0,-4,-3,-3,-3
14.407555,2844,3,11,13,8,5,2,-1,0
14.407644,2845,-5,-5,-31,-14,-1,3,1,2
14.408980,2846,6,-42,1,-21,-15,-6,-3,-3
14.409796,2847,-4,22,52,26,12,4,2,1
14.430132,2848,1,-4,-5,-4,-1,-2,-2,-1
14.430155,2849,1,6,17,7,-2,0,0,0
14.431942,2850,-4,3,-35,-9,-4,0,-1,-1
14.431953,2851,14,2,-24,-15,-6,-2,0,-3
14.444210,2852,-14,-7,10,1,2,-1,-1,-1
14.444235,2853,-6,-1,-1,3,1,2,0,-1
14.453254,2854,9,8,-5,-2,3,0,0,0
14.453265,2855,-2,-12,-6,-4,-3,-3,-3,-1
14.467462,2856,0,1,-5,4,0,1,1,0
14.467548,2857,-4,25,13,-1,-2,-2,-3,-1
14.469327,2858,4,-1,12,8,3,0,-1,-1
14.469475,2859,-5,-3,0,-1,1,1,-1,-1
14.490110,2860,-4,-7,-11,-10,-5,-2,-1,-2
14.490134,2861,2,-3,3,-7,-1,-2,0,0
14.492172,2862,-1,4,4,14,1,0,-1,1
14.492185,2863,-3,13,-12,-18,-2,-2,-2,0
14.512514,2864,4,-6,7,7,2,-3,-1,0
14.512536,2865,-2,-12,9,8,1,-1,-1,0
14.513987,2866,-3,12,4,1,0,0,-1,-1
14.514005,2867,1,-7,-17,-8,-3,0,0,1
14.527356,2868,4,-4,-13,-8,-2,0,-3,-2
14.527368,2869,-5,14,2,-5,-1,-4,-2,-3
14.533551,2870,-2,-11,3,-4,2,-1,-2,1
14.533569,2871,-7,-14,-8,3,-6,0,-1,-2
14.549922,2872,1,5,6,-23,-2,-3,-2,-2
14.551565,2873,2,9,-5,3,1,0,-1,1
14.551577,2874,-2,-13,-11,-4,1,1,1,-2
14.551578,2875,-5,10,0,-3,0,-1,-3,-1
14.572646,2876,-2,-4,1,7,2,2,0,0
14.572671,2877,-2,-2,-1,2,-1,-1,0,-1
14.574593,2878,4,18,-2,1,2,-1,1,1
14.574605,2879,2,1,5,6,0,1,0,1
14.587773,2880,-10,-6,-7,-1,-2,0,-1,-2
14.587803,2881,2,-11,-8,-2,0,-1,-2,-1
14.589477,2882,-1,4,2,1,-2,0,-2,-1
14.589488,2883,1,-7,0,-1,-1,-2,-2,-1
14.610176,2884,3,7,0,5,-1,-3,0,0
14.610197,2885,-1,-13,3,3,-1,0,0,-2
14.611687,2886,-3,0,-2,-5,-1,-1,-1,0
14.611698,2887,-4,-3,-8,-5,-1,-4,-2,-1
14.632613,2888,3,15,5,-2,-4,-3,0,-1
14.632639,2889,-4,-32,0,5,-1,0,-1,-2
14.634301,2890,1,-5,-7,-5,-3,-2,0,-1
14.634312,2891,-6,11,13,4,0,0,0,-2
14.647500,2892,1,5,7,6,1,-2,0,-2
14.647518,2893,5,2,-6,-1,-1,-1,-1,-2
14.649882,2894,-1,18,16,-1,0,-2,-5,-1
14.649893,2895,-2,-18,-9,-5,-3,1,0,-1
14.669963,2896,0,-1,-8,2,0,-1,0,-2
14.669976,2897,-1,3,6,-5,-1,-2,-1,-1
14.671530,2898,1,-4,-6,2,0,1,1,-1
14.671601,2899,-1,1,1,1,-3,-1,-2,-2
14.692486,2900,-1,-4,1,-4,-4,1,-2,0
14.692568,2901,-2,-2,-6,-2,-3,-1,-1,-3
14.693923,2902,-3,-3,-2,2,-1,-2,0,0
14.693939,2903,-1,9,5,-1,-2,-1,-1,0
14.706848,2904,2,-2,8,3,1,-1,-1,1
14.706885,2905,-2,1,3,0,-2,-1,0,0
14.721367,2906,-1,-9,-15,-6,-2,-1,-1,0
14.721389,2907,-2,4,-5,3,0,-3,0,0
14.730710,2908,0,4,1,-3,0,-1,-1,-1
14.730735,2909,-4,0,5,4,2,0,-1,1
14.731547,2910,1,1,0,1,-1,-1,-2,-2
14.731563,2911,2,-4,-7,-3,-2,0,-1,-1
14.761491,2912,-1,-3,-9,-5,-4,-2,-2,-2
14.761506,2913,0,4,3,2,1,0,-1,-2
14.761510,2914,-1,-2,-2,0,-2,0,-1,-1
14.761512,2915,2,3,-3,-3,-1,-2,-1,0
14.767031,2916,-3,-16,1,-1,-1,-2,-2,-1
14.769047,2917,-1,3,-6,-3,-1,-1,-1,-2
14.773445,2918,-1,1,3,-2,-3,-2,1,1
14.773463,2919,2,4,3,1,0,0,-2,0
14.790055,2920,-1,-12,-7,-3,-1,-1,-1,0
14.790085,2921,0,8,5,-2,-1,-2,-1,-2
14.792136,2922,-2,-8,5,-1,0,0,-1,-1
14.792150,2923,-1,-11,-6,-3,1,2,1,-2
14.812476,2924,-1,17,6,2,-1,0,-2,-2
14.812501,2925,2,0,1,4,0,0,0,1
14.814811,2926,-2,4,0,1,-1,-2,-2,-2
14.814823,2927,-2,-6,5,-2,-3,-2,-1,-1
14.826789,2928,-3,-6,-8,-4,-1,0,-1,1
14.826815,2929,0,-1,0,-3,-3,-1,0,-3
14.833551,2930,-1,0,-3,0,0,0,-2,-2
14.834591,2931,-1,6,-4,-1,-1,0,0,0
14.850292,2932,0,-14,-6,2,0,0,-2,-1
14.850323,2933,-3,0,0,0,-1,-2,-1,1
14.852025,2934,-1,-1,-2,-4,-1,-1,-1,-1
14.852044,2935,-1,-1,-7,0,-4,-2,-1,-1
14.872751,2936,-1,-5,7,-2,-1,0,-2,-3
14.872762,2937,-1,-2,-3,-2,-1,0,0,-3
14.873877,2938,-2,-8,1,1,2,1,-1,1
14.873894,2939,0,6,9,3,0,-2,-1,-1
14.887317,2940,0,6,-3,3,0,-2,-1,0
14.887331,2941,0,-5,-8,-4,-3,-1,-1,0
14.893851,2942,1,1,-11,-6,-5,-1,-1,-2
14.893881,2943,-4,-2,-1,-1,2,0,0,-2
14.909902,2944,0,1,3,2,0,0,0,0
14.909919,2945,-1,-4,2,1,0,1,-1,-2
14.911392,2946,0,3,2,0,-2,-2,0,-1
14.911411,2947,-1,-4,-6,-1,0,-2,-1,2
14.932390,2948,0,13,-2,-11,-2,-2,-1,0
14.932412,2949,-1,-15,-6,1,-2,-3,-3,-1
14.934422,2950,1,-7,10,7,1,-1,1,-1
14.934433,2951,-2,-7,-3,-1,-3,-1,0,-1
14.946894,2952,-3,2,-2,-1,0,-2,-1,0
14.946919,2953,-1,2,0,-3,-3,0,-1,0
14.953914,2954,0,4,-8,-5,-1,-1,-1,0
14.953934,2955,-1,-7,3,-2,-1,-1,-1,-1
14.970634,2956,0,1,2,1,-3,-1,-1,-2
14.970657,2957,1,2,1,-2,0,-2,-2,0
14.971639,2958,-2,0,2,4,0,-2,0,-1
14.971663,2959,0,-2,0,-2,0,-1,-1,-2
14.992718,2960,-1,-1,-4,-4,-3,-1,-1,-1
14.994513,2961,-2,1,2,-2,-1,-2,-2,0
14.994531,2962,0,-4,-8,-3,-1,0,0,-1
14.994535,2963,0,-2,-2,-1,-1,-2,0,-1
15.006246,2964,-1,2,1,0,1,2,1,-2
15.006272,2965,-1,-3,2,2,1,0,0,1
15.015032,2966,-3,4,3,-1,-2,0,-2,0
15.015046,2967,-1,-5,-5,0,0,-1,-1,-1
15.029457,2968,-1,8,-5,-6,-2,-2,-2,-2
15.029469,2969,1,-17,2,4,-1,0,2,8
15.029894,2970,0,1,-5,-1,-2,-3,-4,-6
15.029929,2971,-1,-2,-3,-2,-1,-3,-1,1
15.052355,2972,-2,5,0,-1,1,-1,-2,0
15.054006,2973,1,-5,-2,-3,-2,-1,0,0
15.054022,2974,-4,0,-2,-1,-2,-1,-1,-1
15.054024,2975,-2,-3,5,-3,-2,-1,-2,-1
15.075506,2976,2,-2,-1,4,-2,-1,0,0
15.075517,2977,0,4,-12,-3,-1,-1,-2,-5
15.075519,2978,0,3,7,1,0,-2,0,1
15.075521,2979,-1,-1,-5,-6,-3,0,-3,-1
15.089349,2980,-2,-6,0,2,-1,-1,1,-2
15.091114,2981,-1,3,3,-1,-1,-1,-2,-3
15.091125,2982,0,-8,-6,-2,-1,0,0,-1
15.091126,2983,-1,7,4,-1,-2,-2,0,1
15.111926,2984,0,-6,-3,-2,1,-3,-3,-1
15.111948,2985,-1,6,-1,0,0,0,-1,-2
15.113453,2986,1,3,-3,-4,-3,-2,1,9
15.113465,2987,-4,-22,-5,3,2,-2,-5,-18
15.134198,2988,-1,-6,0,1,-2,0,-1,0
15.134215,2989,-3,1,-4,-4,-3,-4,-1,-3
15.135282,2990,-1,0,0,-1,-1,1,0,-1
15.135291,2991,0,4,2,2,-1,0,0,4
15.149400,2992,1,1,1,0,2,1,1,-1
15.149422,2993,-2,-1,-1,-3,-3,-1,-1,-1
15.150694,2994,-3,-1,3,-4,-1,-1,0,-1
15.150706,2995,3,4,-1,3,-2,0,1,1
15.174917,2996,-4,-9,-5,-5,-1,0,-1,-6
15.176578,2997,-2,-2,-5,-3,0,-2,-1,2
15.176590,2998,-2,2,-1,-5,-3,-2,-1,0
15.176592,2999,3,-13,0,2,2,-1,-2,-5
15.194177,3000,1,-2,-2,-2,-3,-2,0,1
15.194239,3001,-1,1,3,1,0,0,0,-2
15.195389,3002,0,-1,1,0,-1,-1,-3,0
15.195396,3003,1,7,9,3,1,2,3,13
15.209172,3004,3,-3,-5,1,-4,-3,-6,-6
15.209192,3005,0,-6,-3,-2,-4,-1,-1,-2
15.210654,3006,-3,-3,-1,2,0,0,-3,-6
15.210664,3007,1,5,0,-4,-3,-2,1,5
15.231678,3008,-1,2,4,-1,0,1,1,2
15.231694,3009,-2,2,2,3,-1,0,-2,-4
15.232359,3010,5,2,-4,-2,-1,-2,-1,3
15.232377,3011,-3,-2,-7,-9,-3,-2,-3,-5
15.254619,3012,-2,-5,7,4,0,-1,-1,1
15.256200,3013,0,2,1,7,2,-1,-1,-2
15.256212,3014,-2,-2,-2,-2,0,-1,1,-1
15.256214,3015,-4,-4,-4,-4,-3,-2,-3,-3
15.269304,3016,-2,0,-4,-6,0,-2,-3,-2
15.269328,3017,0,1,-3,-4,-2,0,0,3
15.270467,3018,2,-2,2,2,-3,-2,-2,-2
15.270482,3019,-5,-2,0,-2,0,0,-1,-2
15.292964,3020,0,3,-1,0,0,-1,0,0
15.292976,3021,-2,-3,-1,-3,-1,-2,-2,0
15.292978,3022,-1,0,-1,-2,0,-1,0,-4
15.292979,3023,0,0,4,1,0,0,0,-1
15.314350,3024,0,-2,-5,-3,0,0,0,-1
15.316024,3025,1,-2,0,5,1,1,-1,-1
15.316041,3026,-1,0,0,-1,-1,0,0,-1
15.316044,3027,0,3,2,0,-2,-3,1,1
15.329593,3028,-1,-6,-4,-7,-2,-2,-2,-1
15.329626,3029,-3,3,-7,2,-1,-2,-2,1
15.331163,3030,0,0,2,-1,0,-1,0,0
15.331175,3031,2,-1,0,2,1,0,-2,-1
15.352019,3032,-1,2,1,-2,-3,-1,0,-2
15.352043,3033,-1,-2,-4,-9,-4,0,0,-2
15.353971,3034,-2,-2,-3,-2,-1,-1,-1,-2
15.353991,3035,-2,-3,4,0,-1,-1,-2,0
15.374114,3036,0,7,0,3,0,0,0,1
15.374130,3037,0,-14,0,0,0,-1,-2,-1
15.374804,3038,-1,1,-2,-1,-2,0,-1,0
15.374821,3039,-13,-15,-9,-3,-2,-2,-2,-7
15.389304,3040,0,3,0,4,-3,0,-1,-1
15.389325,3041,-3,4,3,-1,-2,-3,0,-4
15.390755,3042,0,-2,1,3,1,-2,-3,0
15.390768,3043,2,0,-5,-2,-3,-1,-1,0
15.412287,3044,-2,-1,2,-8,-1,-2,-1,-1
15.412326,3045,1,-2,-7,7,2,-3,0,-1
15.414257,3046,-2,-1,-3,1,-1,-1,-2,-2
15.414265,3047,1,0,-3,-3,-1,-2,-1,2
15.434291,3048,0,-5,-5,-2,-2,-1,-1,-1
15.434307,3049,3,10,9,-4,0,-1,0,0
15.434910,3050,0,-1,-1,-1,1,0,-1,1
15.434970,3051,3,1,-1,-1,0,0,-1,-1
15.450158,3052,0,-5,-7,0,-2,1,0,0
15.450172,3053,0,-3,0,-7,-1,-3,-2,-2
15.450174,3054,0,0,1,5,1,-1,-2,-2
15.450175,3055,0,-1,3,1,0,-2,0,-3
15.471713,3056,1,-3,-4,-3,-1,1,0,3
15.471730,3057,-5,-1,-5,0,0,0,-2,-3
15.473220,3058,-4,-4,-4,-6,-3,-1,-2,-3
15.473237,3059,1,3,-1,-4,-3,-2,-1,2
15.494165,3060,2,1,3,5,1,-2,0,2
15.494184,3061,0,8,5,-1,0,-1,-2,-1
15.495219,3062,-1,-7,-3,1,-1,-1,0,-1
15.495323,3063,-2,1,-3,-2,-2,0,0,-1
15.509342,3064,-3,-3,-3,-4,-3,-2,-1,-2
15.511112,3065,-1,1,5,-2,-2,-2,-2,-2
15.511124,3066,0,-1,-3,-2,-2,-1,-1,-2
15.511125,3067,-1,4,3,-3,0,-1,0,-3
15.532040,3068,-2,1,1,2,0,-1,-1,-2
15.532063,3069,1,-2,-1,2,0,0,0,1
15.532466,3070,0,1,-2,-7,-2,-2,2,4
15.532479,3071,-5,1,1,7,3,-1,-6,-13
15.554420,3072,0,-7,-3,-3,-2,-1,0,-1
15.554453,3073,-3,-3,-5,-3,0,0,-1,-1
15.556319,3074,-1,-3,0,-1,-2,-1,-1,0
15.556337,3075,4,3,2,-1,0,1,1,4
15.569447,3076,-3,1,4,1,1,-1,-2,-1
15.569465,3077,0,-5,-5,-1,-1,-1,0,-3
15.570516,3078,-2,3,2,0,-1,0,-1,-1
15.570526,3079,1,-3,-7,-5,-1,0,-1,-1
15.591768,3080,-1,0,3,4,2,-1,-1,-3
15.591785,3081,-2,-1,2,-9,-3,-1,-1,2
15.592549,3082,-2,-1,-8,2,0,-2,-3,-3
15.592573,3083,-2,-8,-5,1,-1,-1,1,1
15.614393,3084,0,1,6,2,1,0,0,1
15.614418,3085,0,-3,-2,1,-3,-2,-1,0
15.616323,3086,-2,-2,0,-8,-3,2,-2,-4
15.616335,3087,6,0,-2,-5,-4,-2,-2,6
15.629198,3088,-1,4,-3,5,4,1,-1,-5
15.629216,3089,1,-2,3,0,-1,-1,-1,0
15.630792,3090,0,-2,-2,0,-2,-3,-1,0
15.630809,3091,1,-2,-1,0,-1,-1,-1,0
15.651665,3092,-3,-2,-2,-6,-4,-1,0,1
15.651690,3093,-2,0,-5,-1,-2,0,0,-1
15.653062,3094,0,0,2,1,1,0,0,-2
15.653073,3095,-1,4,3,3,1,-1,-1,0
15.674188,3096,-2,-2,0,-3,0,-2,-2,-1
15.674208,3097,0,-3,-8,-3,-2,0,-1,-2
15.675833,3098,-2,-3,-3,-4,0,-2,-1,-1
15.675844,3099,-3,0,-3,2,0,0,0,-4
15.689369,3100,-1,-2,-1,-1,-1,-1,-2,0
15.689465,3101,0,1,4,2,1,0,-1,1
15.690785,3102,-1,2,6,-3,0,-1,-2,-2
15.690794,3103,-5,-7,-9,-1,-2,-2,0,-3
15.712242,3104,-9,-10,-3,1,-1,0,-1,-5
15.712265,3105,-1,1,1,0,-1,-1,0,2
15.713861,3106,0,-1,2,0,-1,-2,0,-2
15.713874,3107,-1,-2,-2,-4,-1,-1,-4,-2
15.734582,3108,0,2,-3,-9,-4,-4,0,1
15.736002,3109,0,0,1,5,2,0,0,-2
15.736014,3110,2,1,4,6,4,2,-3,0
15.736016,3111,1,0,3,1,-1,-1,-1,2
15.749302,3112,0,-1,-3,-3,-3,-1,-2,-2
15.749320,3113,0,0,-2,-5,-1,-1,-2,-2
15.750434,3114,0,1,-5,-2,-3,-2,0,0
15.750445,3115,-1,-1,2,2,-1,-1,0,0
15.771844,3116,-1,1,1,-1,0,0,-1,-1
15.771870,3117,-3,-2,-3,-4,-1,-2,0,-3
15.773723,3118,0,-1,-6,-2,-1,1,-1,1
15.773734,3119,-1,1,2,-4,-3,-2,0,-4
15.794148,3120,-1,-2,5,8,-2,-1,-1,-1
15.794164,3121,0,0,0,1,-3,-3,-1,0
15.794869,3122,-2,-1,-3,-1,-1,-1,0,0
15.794884,3123,0,-2,-8,-4,-1,-2,-1,-1
15.809407,3124,2,4,-1,0,1,0,0,5
15.809426,3125,-3,-6,-2,3,0,-3,-2,-7
15.810456,3126,-3,-3,-3,-7,-3,-1,-2,-5
15.810471,3127,-1,0,2,5,0,0,1,-2
15.831884,3128,1,-1,-2,-1,-2,-1,-2,1
15.831909,3129,-1,-2,0,-2,-1,1,0,3
15.833387,3130,-7,2,-1,-4,-2,-1,0,1
15.833400,3131,1,-1,0,-2,-3,-1,-1,0
15.854207,3132,1,-1,-3,-2,0,1,-1,0
15.854225,3133,-2,-2,-4,-1,0,0,-1,-2
15.856025,3134,2,0,-4,-5,-1,-2,-1,1
15.856037,3135,-2,1,1,1,1,-1,0,-1
15.869375,3136,0,-1,-1,-3,-2,-3,-1,-1
15.869397,3137,1,1,0,-1,-2,-2,-1,-1
15.871036,3138,1,-1,4,4,1,0,0,0
15.871051,3139,-1,0,-1,-3,0,-1,-2,0
15.891889,3140,0,-3,-4,-2,0,-3,-1,-2
15.891910,3141,-1,0,1,3,-2,-1,0,1
15.892614,3142,-3,-2,2,3,-2,-1,-1,0
15.894661,3143,1,-2,-3,-2,-1,-2,-2,-1
15.914241,3144,-3,-1,-1,-4,0,-1,1,-1
15.914259,3145,2,4,0,-3,-1,0,1,6
15.922156,3146,-1,-8,0,3,-1,1,-1,-4
15.922182,3147,-1,-1,0,-3,0,-1,-1,1
15.929607,3148,0,-2,-3,-4,-2,-1,-2,-2
15.929636,3149,0,-1,-2,-3,-2,0,-1,2
15.930754,3150,1,0,-1,2,0,-1,0,-1
15.930767,3151,-2,-2,-1,-1,-2,-2,-1,0
15.951874,3152,-1,-2,1,-1,0,-1,-1,-1
15.951969,3153,-1,-3,-4,1,1,1,0,-3
15.952733,3154,1,0,-1,-5,0,-2,0,1
15.952786,3155,-2,0,2,1,0,2,-2,-2
15.974942,3156,2,2,-1,-5,-2,0,1,5
15.976382,3157,-16,-4,-3,3,3,1,-5,-18
15.976399,3158,-3,-6,-2,2,-1,-2,-1,0
15.976403,3159,0,0,3,3,0,-2,1,2
15.989203,3160,-1,-5,-2,0,0,1,-1,-2
15.989220,3161,1,0,-3,-8,-3,-1,1,5
15.990164,3162,1,1,-2,-2,-1,-1,-1,-1
15.990174,3163,-4,-2,0,-1,-1,-1,-2,-5
16.013665,3164,1,3,1,0,-1,0,-1,1
16.013686,3165,0,-3,0,0,0,-1,-1,-1
16.013691,3166,-3,0,1,0,-1,-1,-1,-2
16.013696,3167,1,-1,-2,-2,0,-1,-1,2
16.034732,3168,-2,0,-1,0,0,-2,-2,-3
16.034768,3169,2,1,-2,-3,0,-2,0,0
16.036559,3170,1,-1,-2,-2,-1,-2,-1,-2
16.036575,3171,-2,0,-1,-1,-2,-1,-1,-2
16.048763,3172,-3,-1,-1,0,-2,-1,-1,-3
16.048787,3173,-1,-2,-2,-4,-1,-2,-1,-1
16.056922,3174,0,1,-1,-4,0,0,1,2
16.056946,3175,2,1,1,7,0,0,0,1
16.072149,3176,-3,-5,-1,-1,-3,0,-1,-4
16.072179,3177,1,-1,-2,-1,-3,-2,1,1
16.073965,3178,-1,1,-2,-5,-1,-1,-2,-3
16.073978,3179,-1,-3,-1,-1,-1,-2,1,1
16.094289,3180,0,1,5,8,2,1,0,0
16.094306,3181,5,4,-5,-5,-3,1,0,9
16.095009,3182,-4,-4,-2,5,1,-1,-3,-8
16.095029,3183,-1,-2,-1,-6,-3,-1,-3,0
16.108655,3184,0,-3,-5,-4,-1,-2,-2,0
16.108672,3185,0,-2,-1,-3,-3,-3,-1,1
16.116926,3186,2,1,1,-1,-1,-1,0,4
16.116942,3187,-2,-2,-4,-2,-1,0,0,-1
16.132207,3188,-1,-2,0,-4,-1,-1,-1,-2
16.133626,3189,-1,-2,2,7,-1,0,-2,-3
16.133638,3190,-3,-1,-2,-2,-2,-2,0,0
16.133640,3191,-1,0,0,2,0,-2,-2,-3
16.154144,3192,-2,1,-1,-3,2,-2,-1,-1
16.154160,3193,-2,-2,1,-2,1,1,-1,-1
16.154835,3194,-2,-1,-2,2,-3,0,-2,-1
16.154874,3195,0,-2,-4,-3,-2,-2,-1,-2
16.169717,3196,-1,-1,3,1,-1,-1,-2,-3
16.169729,3197,0,0,-2,-1,0,-2,-2,-1
16.177124,3198,-1,-2,-2,-1,-2,-1,1,0
16.177990,3199,-3,-2,-3,-3,0,-2,1,-1
16.192268,3200,-1,-1,-2,2,-2,-1,-2,1
16.192404,3201,-9,-6,-3,-6,-2,-1,-2,-6
16.193634,3202,-3,-3,2,-2,-2,1,-1,2
16.193649,3203,1,1,-1,2,0,-1,-1,0
16.215610,3204,-2,-2,3,3,1,-1,0,-2
16.215622,3205,1,0,-1,0,-1,-2,-1,1
16.215624,3206,0,0,-7,-7,-2,-2,-1,0
16.215625,3207,0,-1,4,2,-1,1,-1,-2
16.228586,3208,1,1,-2,0,-3,-2,0,-1
16.228611,3209,0,0,-1,-3,-1,0,-1,0
16.236847,3210,0,0,0,-3,0,-1,0,-1
16.236863,3211,-2,-2,-3,-6,-1,-1,-2,-1
16.251996,3212,-1,0,-1,0,-2,0,0,-1
16.252018,3213,-2,0,2,2,-1,-2,-2,-2
16.253259,3214,-3,-2,-2,-4,0,-2,-2,0
16.253272,3215,-1,-1,3,4,0,1,-1,1
16.274260,3216,-2,-1,-5,-3,0,-2,-1,1
16.274277,3217,-4,-3,-3,-4,-2,-1,0,-3
16.275817,3218,2,3,0,1,0,1,1,-1
16.275830,3219,-2,0,0,-2,-1,-2,-3,-3
16.289106,3220,-1,-2,-6,-2,0,-1,0,-1
16.289131,3221,1,0,1,1,-1,-1,-2,-1
16.296771,3222,1,0,0,-2,-1,-1,0,-2
16.296788,3223,-2,-1,-3,-3,-2,0,-1,-2
16.312067,3224,-1,-1,2,4,-2,-2,-2,-2
16.312144,3225,0,1,-3,-3,1,-1,0,0
16.312612,3226,-1,-5,0,-1,0,-2,0,-1
16.312676,3227,-1,-1,-3,-2,-3,0,1,0
16.334240,3228,-2,-3,-1,-8,-3,-1,1,-1
16.334261,3229,-1,1,1,5,-1,-2,-1,-1
16.335073,3230,-1,1,1,6,0,1,-2,-1
16.335083,3231,-1,0,-5,-3,0,0,0,-1
16.348773,3232,-1,-1,-2,-3,0,-1,-2,-1
16.348809,3233,1,0,5,0,2,1,-1,1
16.356663,3234,-1,0,-3,-2,1,0,-1,0
16.356679,3235,0,-2,1,-2,0,-2,-2,0
16.371705,3236,-1,-4,-5,-3,-2,-1,-1,0
16.371726,3237,0,-1,0,0,0,-1,-1,-1
16.372581,3238,-2,0,2,1,-2,-2,-1,-1
16.372596,3239,-1,-3,-5,-6,-1,-1,-1,-3
16.394274,3240,0,0,1,5,0,0,-2,-1
16.394297,3241,-1,-2,-3,-2,0,-1,-1,0
16.395481,3242,-2,0,0,-2,-2,-1,0,-1
16.395492,3243,-2,1,3,4,-2,-2,0,-2
16.424955,3244,-2,0,2,-2,0,-2,0,-2
16.424978,3245,-2,-3,-3,0,-1,-1,0,-1
16.426250,3246,1,-1,-4,-5,-2,-2,-1,-2
16.426264,3247,-1,-1,0,-5,-3,0,0,0
16.432057,3248,-1,1,1,1,1,0,-2,1
16.433867,3249,-1,0,-2,0,-1,0,1,-2
16.433879,3250,-1,-1,-5,-1,-2,-2,0,-2
16.433881,3251,1,2,-1,0,0,-1,-2,0
16.454592,3252,0,-2,-2,-5,-2,1,-1,-2
16.456472,3253,2,1,0,-2,0,0,-1,0
16.456483,3254,1,-1,3,4,0,-2,-1,0
16.456485,3255,-1,-2,-2,3,-2,0,-1,-2
16.478104,3256,-1,-1,-1,-6,-2,-1,-3,0
16.478140,3257,1,-1,1,2,-1,-3,0,-1
16.480307,3258,0,-3,-5,-3,0,-1,-1,2
16.480320,3259,-4,0,5,0,0,-2,0,-3
16.492038,3260,-1,-1,-1,-1,-1,-2,-1,-1
16.492068,3261,-1,-1,-5,-3,-3,-1,-3,-1
16.493404,3262,-1,0,-3,-2,-1,-1,-1,0
16.493417,3263,0,0,2,0,2,-2,-1,0
16.514237,3264,0,1,0,1,-2,-2,-1,-1
16.514257,3265,-2,0,-1,-1,0,-2,-2,-1
16.514927,3266,0,0,-1,1,0,0,-1,-2
16.514944,3267,-2,-2,-2,-2,0,-1,-2,0
16.537574,3268,-1,-2,-6,-4,-1,0,0,0
16.537597,3269,-5,-3,-1,-2,-2,-2,-1,-3
16.539862,3270,0,1,5,4,1,0,-1,0
16.539873,3271,-1,-3,-3,-4,-1,-1,0,-1
16.551856,3272,2,-1,2,-1,0,-1,-2,-1
16.553341,3273,1,-4,-8,-2,-2,0,0,-1
16.553351,3274,-3,-1,-1,-2,-1,0,-1,-2
16.553353,3275,-1,-2,0,1,-2,-1,-2,0
16.575124,3276,-2,-1,-3,-3,-1,0,-2,1
16.575136,3277,0,-1,1,-2,-1,0,-2,0
16.575138,3278,-2,-2,-3,-3,-2,-2,-1,-1
16.575140,3279,1,1,-1,0,-1,-1,1,1
16.597506,3280,-2,-1,0,2,-2,-2,0,-2
16.597529,3281,9,4,0,-4,-3,-2,0,6
16.599130,3282,-13,-1,0,4,2,0,-2,-16
16.599140,3283,-3,-3,0,4,0,0,0,-1
16.611783,3284,0,-2,-1,1,0,-1,0,0
16.611808,3285,0,2,4,3,0,0,-2,-1
16.612648,3286,2,-1,-4,-11,-2,-1,-2,4
16.614192,3287,-1,-1,-4,-4,-2,-1,-2,-3
16.634270,3288,-4,0,3,0,-1,-2,-1,-4
16.634288,3289,-1,0,-1,-1,0,-2,2,0
16.635980,3290,1,-1,-1,0,0,-1,0,1
16.635995,3291,-3,-2,-4,-7,-2,-1,-1,0
16.665038,3292,1,0,-2,3,-3,-1,-3,-1
16.665067,3293,-3,-2,-1,-2,0,-1,-1,-3
16.666954,3294,-1,0,2,0,-1,-1,-2,0
16.666966,3295,0,0,-2,1,1,-1,-1,-1
16.672115,3296,0,-3,-1,-1,-1,0,0,0
16.673709,3297,-4,-3,-2,-6,-1,1,-2,-3
16.673720,3298,-2,-1,-1,6,0,0,-3,-1
16.673722,3299,2,0,-3,-2,-1,-3,0,2
16.694184,3300,-1,-1,1,0,1,-2,-1,1
16.694308,3301,-1,0,-1,3,0,-3,0,-1
16.695887,3302,2,-1,-2,-7,-1,-2,0,2
16.695902,3303,-2,-2,0,2,-2,-1,0,-2
16.717423,3304,-1,-1,-4,-4,-2,-1,-1,-2
16.717447,3305,1,0,2,0,-1,-1,-1,-2
16.718158,3306,0,-2,-8,-5,-2,-1,2,0
16.718178,3307,-1,1,2,-1,1,0,-1,-1
16.731934,3308,-2,1,4,2,2,-1,0,-2
16.731951,3309,-2,-2,-1,1,-1,1,-2,-1
16.732573,3310,2,-2,-3,-2,-3,0,0,2
16.732597,3311,-1,-1,-1,-9,-1,-1,-2,-1
16.754408,3312,0,0,-3,3,0,-1,-3,0
16.755439,3313,-2,-1,-1,1,1,0,-2,0
16.755453,3314,-3,0,1,1,0,0,0,0
16.755455,3315,-1,-2,-5,-3,-1,-2,-1,-2
16.777471,3316,1,0,2,-2,1,1,-1,0
16.777508,3317,-1,0,2,2,-2,-1,1,0
16.778125,3318,-1,-2,0,-2,-3,0,-2,-1
16.778132,3319,-2,-1,-1,-2,0,-1,-1,0
16.793290,3320,-3,-1,-4,-3,-3,-2,-1,-2
16.793302,3321,-1,-2,-4,-2,0,-1,0,-3
16.793304,3322,1,-1,0,-1,-1,-1,-3,-1
16.793306,3323,0,-1,2,1,-2,-2,-1,-3
16.814801,3324,-1,-3,-3,-9,-1,-1,-2,0
16.816054,3325,-2,-2,2,2,-1,-1,0,-1
16.816071,3326,0,1,1,1,1,-1,-2,0
16.816076,3327,0,1,0,4,0,0,0,0
16.838490,3328,-1,0,-2,-2,-2,-2,-2,-2
16.838503,3329,-2,-4,-5,-2,-2,-1,-2,0
16.838505,3330,-2,-3,-1,-4,-3,-1,-1,-2
16.838507,3331,-1,-3,-4,-1,0,0,-1,0
16.852064,3332,-2,0,-1,-1,-1,-2,0,-1
16.852084,3333,-2,1,0,-3,0,-2,-1,-2
16.854211,3334,0,3,7,2,-1,-2,-1,-1
16.854226,3335,0,2,-1,3,2,-1,-2,0
16.874489,3336,0,-3,-2,-1,0,-1,1,0
16.874512,3337,-2,-2,-5,-1,-2,-1,-1,-2
16.875067,3338,0,-2,-4,-5,-1,-1,0,-3
16.876137,3339,1,2,2,4,-3,1,-1,1
16.897538,3340,-4,-1,1,0,-1,0,-2,-2
16.899588,3341,1,0,-1,-1,-1,0,-2,0
16.899604,3342,-1,-2,-2,-3,-1,0,-1,-1
16.899607,3343,-3,-1,0,0,-1,-2,-1,-3
16.911921,3344,-1,0,1,0,-1,-1,0,2
16.911945,3345,-1,-2,-3,-5,-1,0,0,-1
16.913732,3346,-3,0,-2,-1,0,-1,-2,0
16.913747,3347,-1,-2,-3,-3,-2,-1,-2,-2
16.934430,3348,-1,0,-3,0,-2,-2,-1,-3
16.934453,3349,-1,0,0,-1,-2,-1,-2,-2
16.934862,3350,0,-1,-1,2,-1,-1,0,0
16.934879,3351,-1,-2,-1,-2,0,0,-1,-1
16.957698,3352,0,0,0,4,-1,-2,0,0
16.957720,3353,-3,-2,-2,-10,-2,0,0,-1
16.959250,3354,0,-1,0,5,-1,-1,-1,0
16.959265,3355,-1,0,2,1,1,-1,-3,1
16.971776,3356,0,-2,-1,-2,0,0,0,1
16.973341,3357,0,-2,1,-2,-3,-2,0,-2
16.973349,3358,-1,0,2,4,0,-1,0,1
16.973351,3359,-3,-1,-4,-5,0,-2,1,-2
16.994165,3360,-2,-2,-3,-4,0,0,-1,-2
16.994179,3361,-3,-1,-4,-1,-1,-1,-2,-2
16.994929,3362,-3,1,0,-11,-2,-1,-2,-2
16.994967,3363,0,-1,2,6,-2,0,-1,0
17.016503,3364,0,0,1,2,0,-1,0,0
17.016528,3365,1,0,0,-2,-1,-2,0,0
17.026239,3366,-12,-8,-6,0,-2,-3,-1,-5
17.026250,3367,-2,-4,-5,-6,-2,-2,-2,-2
17.031358,3368,-1,-2,-2,-4,-1,0,-1,2
17.031384,3369,-1,1,2,3,0,1,-2,-2
17.039383,3370,3,1,1,1,1,-1,-2,-1
17.039400,3371,-2,-1,-3,-6,-2,-1,-1,1
17.054354,3372,0,0,3,2,-1,0,-2,-2
17.054389,3373,2,-1,-5,-4,-1,-1,0,2
17.056160,3374,2,1,-1,4,1,-1,-3,0
17.056172,3375,-2,-1,0,-1,0,-2,-2,-3
17.077560,3376,1,-1,-3,-5,-3,-1,-2,-1
17.077588,3377,0,2,0,0,2,-1,-2,-2
17.078226,3378,1,0,2,4,0,-1,-2,-1
17.078243,3379,-1,1,-1,-3,-3,0,-1,-2
17.090995,3380,1,-3,-2,0,0,-2,-2,-1
17.091022,3381,-3,-2,-2,-3,-2,-1,-1,-1
17.099332,3382,3,-2,-1,-5,0,0,1,2
17.099356,3383,1,1,1,3,0,0,0,1
17.114228,3384,-3,0,-1,-2,-2,-2,0,-1
17.114246,3385,-2,0,1,2,0,0,-1,-1
17.116039,3386,2,0,-1,-1,-1,-1,0,2
17.116050,3387,0,-3,-1,0,-1,1,0,0
17.137711,3388,-1,-2,-5,-2,-2,-2,0,-3
17.137793,3389,-2,-1,0,-8,-2,-2,-2,0
17.138145,3390,-1,-1,-1,7,1,0,0,-2
17.138160,3391,0,-2,-1,0,-1,-1,0,0
17.151014,3392,-1,-1,2,-1,0,-1,-2,-1
17.151026,3393,5,-2,-4,2,-1,0,-1,2
17.159222,3394,-8,4,2,0,0,-2,-6,-4
17.159240,3395,0,-1,0,-1,0,-1,3,3
17.174557,3396,-1,-2,-3,-3,-1,0,2,-1
17.174581,3397,1,1,1,2,0,0,-1,0
17.176347,3398,-7,-4,-3,-3,0,1,-1,-2
17.176356,3399,0,0,0,0,-1,-2,-3,-1
17.197497,3400,-3,0,2,0,0,-1,-1,0
17.197551,3401,-4,1,0,1,0,-1,0,-2
17.198288,3402,1,-3,-6,-3,-2,-1,-2,1
17.198309,3403,-1,-2,-3,-4,-2,-1,-1,0
17.212094,3404,-1,1,2,0,1,-1,0,0
17.212105,3405,0,0,0,7,2,1,-1,0
17.219480,3406,1,-2,-4,-6,-1,0,-1,1
17.219507,3407,-2,-7,-11,-3,-1,0,-2,0
17.234371,3408,2,1,-1,-2,-4,-4,-1,0
17.235863,3409,-2,0,2,6,0,-2,0,-1
17.235874,3410,1,2,2,3,1,0,1,-1
17.235875,3411,0,-1,-1,-3,-2,-1,-2,0
17.258007,3412,0,0,-4,-4,-2,0,-1,-1
17.258022,3413,-4,-3,-3,-3,-3,-2,-2,-1
17.258143,3414,4,1,0,-3,-2,0,2,3
17.258177,3415,-1,0,1,-2,-1,-2,-2,-5
17.271151,3416,-1,-2,-2,2,-1,1,-1,-2
17.272491,3417,0,-1,1,1,0,-1,-2,1
17.279283,3418,-1,-1,-3,-8,-1,-1,0,-1
17.280534,3419,-3,0,0,4,-2,-1,-1,-3
17.293941,3420,-3,-1,-1,3,1,0,-2,1
17.293960,3421,-1,-4,-2,0,0,0,-1,1
17.303279,3422,0,0,2,-1,0,-2,0,3
17.303291,3423,0,0,-1,-6,-2,0,0,2
17.318742,3424,1,-2,-2,2,-1,-1,1,5
17.318756,3425,-1,1,-1,-7,-2,-2,-3,-5
17.318758,3426,-2,-1,2,6,-1,-1,-1,-1
