timestamp,emg1,emg2,emg3,emg4,emg5,emg6,emg7,emg8,label
10.008850,92,-69,-27,-17,-42,-13,-24,-64,3.824784508
10.008933,38,-1,3,17,18,5,-5,16,3.824784508
10.028461,-80,16,5,-17,17,-27,-1,-50,3.824784508
10.028479,89,12,0,-4,-86,-15,14,30,3.824784508
10.029982,-4,-11,16,71,9,-101,7,65,3.824784508
10.030000,-86,4,-7,-58,-34,93,20,-39,3.824784508
10.042730,124,7,-28,-63,28,-77,14,-2,3.824784508
10.042742,-1,-51,-7,33,86,28,-40,24,3.824784508
10.049806,16,11,12,2,-26,-50,50,16,3.824784508
10.049838,-7,12,0,40,115,18,-14,-6,3.824784508
10.065818,-15,23,-1,-32,-62,0,-1,-28,3.824784508
10.065836,26,13,0,6,-6,26,-6,-38,3.824784508
10.067455,-37,-11,-10,-13,-79,-36,-17,-10,3.824784508
10.067473,-39,7,4,-8,-62,26,-24,-3,3.824784508
10.089803,12,15,4,18,37,18,32,-17,3.824784508
10.089818,-18,-45,-12,-6,21,-21,16,17,3.824784508
10.090030,1,30,10,-37,-64,73,6,-35,3.824784508
10.090039,-31,57,16,43,-117,-62,-36,72,3.824784508
10.102448,91,-107,-35,16,113,14,-13,-67,3.824784508
10.102480,9,17,23,-36,-88,-9,-5,19,3.824784508
10.112036,-28,-58,-34,-49,127,8,0,-103,3.824784508
10.112048,49,27,16,3,-2,-103,60,59,3.824784508
10.125996,31,31,15,7,-46,51,28,-24,3.824784508
10.126014,39,113,5,39,29,6,3,-32,3.824784508
10.127728,-63,-33,9,40,-40,53,-3,52,3.824784508
10.127743,-14,-4,-8,-18,-88,-44,-17,-11,3.824784508
10.149843,7,-39,-9,-38,-70,-6,-29,-25,3.824784508
10.149859,13,7,-5,-3,57,-2,2,6,3.824784508
10.149866,-17,3,-4,-1,-51,34,-11,4,3.824784508
10.149871,-73,16,19,43,100,23,21,3,3.824784508
10.163119,-49,-16,-12,12,-70,-28,-3,-3,3.824784508
10.163151,12,-17,-7,-5,70,-49,-3,-55,3.824784508
10.170324,52,36,3,-32,101,-114,-19,3,3.824784508
10.170358,-12,-55,-21,-14,110,99,24,18,3.824784508
10.186281,-66,21,8,-31,16,-102,-2,44,3.824784508
10.186309,-17,-50,-17,-3,110,36,-29,-46,3.824784508
10.188921,-16,-22,2,-4,-128,-59,28,31,3.824784508
10.188934,53,68,11,-19,96,-49,27,-4,3.824784508
10.208445,32,10,0,25,11,66,1,-50,3.824784508
10.208463,-30,27,13,-7,-108,-2,23,42,3.824784508
10.210338,-11,-4,-18,-14,27,-61,-67,19,3.824784508
10.210354,50,-41,-18,-10,-74,28,-17,-15,3.824784508
10.222764,-41,10,14,13,36,10,-4,-8,3.824784508
10.222783,5,5,-1,-1,-20,1,19,46,3.824784508
10.240568,10,23,12,25,60,82,19,-5,3.892438962
10.240585,-65,-17,11,-51,-120,-39,-16,-14,3.892438962
10.246108,58,8,-2,97,99,13,-18,13,3.892438962
10.246132,70,11,4,-18,-117,-34,-3,-11,3.892438962
10.248188,-5,8,-10,-34,-34,93,-17,-48,3.892438962
10.248195,-27,-46,-14,-12,-16,-52,-4,11,3.892438962
10.268697,-3,16,19,9,34,-25,3,36,3.892438962
10.268731,-5,12,6,-8,12,-51,11,-55,3.892438962
10.270728,-6,98,25,114,116,-9,-16,70,3.892438962
10.270739,18,-108,-25,-14,-102,-82,-10,-19,3.892438962
10.282124,-36,-22,-15,-41,-80,2,-31,-9,3.892438962
10.282141,82,17,-4,11,-6,-49,5,-27,3.892438962
10.291396,-31,-18,-3,-30,-64,31,4,21,3.892438962
10.291415,-14,30,19,53,61,32,0,9,3.892438962
10.307529,71,103,19,13,4,-18,13,-7,3.892438962
10.307545,-12,-92,-17,-26,5,31,-23,57,3.892438962
10.307633,-43,-64,-10,-4,-7,12,10,-50,3.892438962
10.307705,31,19,1,18,89,27,12,16,3.892438962
10.328435,48,50,4,-45,-66,-56,-15,-8,3.892438962
10.328455,-107,-28,11,-6,-9,-10,1,-8,3.892438962
10.329853,79,-3,-21,-54,27,-63,-63,-44,3.892438962
10.329865,43,-13,-17,55,113,79,-6,-7,3.892438962
10.342208,-54,37,34,64,-84,-85,41,58,3.892438962
10.342227,26,-10,-22,2,127,-59,-6,-59,3.892438962
10.352757,85,-22,-17,-53,17,38,0,66,3.892438962
10.352766,-12,13,-3,-39,-79,-57,-41,-58,3.892438962
10.366319,-49,-22,-10,-16,7,-2,-13,-37,3.892438962
10.366337,38,76,30,47,-52,26,30,29,3.892438962
10.368776,-35,38,-1,8,-66,-8,14,-55,3.892438962
10.368787,21,-77,-20,-8,1,-6,-10,-30,3.892438962
10.388683,-9,-17,-2,-8,25,54,2,2,3.892438962
10.388709,-6,3,-6,-15,-40,-14,-11,-25,3.892438962
10.390009,-57,18,11,-5,-10,27,22,4,3.892438962
10.390029,-3,22,8,-2,-22,-10,1,31,3.892438962
10.402236,-28,-19,-3,-13,5,11,4,7,3.892438962
10.402261,45,-15,-5,8,-72,-32,17,65,3.892438962
10.412129,54,-19,-12,3,102,-1,-29,-69,3.892438962
10.412142,-40,-45,4,42,91,-48,45,-14,3.892438962
10.425918,24,-27,-13,-10,-23,88,80,87,3.892438962
10.425937,20,14,4,-12,-68,63,8,1,3.892438962
10.427522,-58,-8,2,1,41,46,-10,25,3.892438962
10.427533,62,73,22,19,-38,-117,17,89,3.892438962
10.448564,24,21,-10,-49,-51,12,-33,-57,3.892438962
10.448608,-107,-49,-8,7,24,-15,-15,-12,3.892438962
10.449872,121,24,6,22,-62,10,23,35,3.892438962
10.449887,-51,6,4,-14,1,33,-29,-47,3.892438962
10.462028,-55,10,6,15,20,-19,-19,-14,3.892438962
10.462072,19,19,12,3,22,-12,-13,48,3.892438962
10.473856,37,12,4,9,-67,-23,4,-33,3.892438962
10.473870,-36,18,-4,-51,-120,31,0,-7,3.892438962
10.485954,127,-33,3,47,111,-8,-4,0,3.750216784
10.485971,75,16,-17,10,-103,-46,-27,29,3.750216784
10.487785,22,61,31,64,21,103,25,5,3.750216784
10.487798,81,-12,-12,-26,-1,-13,-17,-26,3.750216784
10.509838,34,-18,-17,4,-45,-7,2,-2,3.750216784
10.509864,-27,-15,0,-27,82,28,7,10,3.750216784
10.514700,-6,40,7,23,54,-115,-3,-10,3.750216784
10.514791,31,46,2,17,-14,-25,18,51,3.750216784
10.522453,-83,-45,-4,-12,-21,-20,-21,-27,3.750216784
10.522475,15,-7,4,13,41,34,36,46,3.750216784
10.532277,-41,4,-7,-26,-128,-44,-13,-64,3.750216784
10.532284,-2,-37,-3,-12,15,28,-31,15,3.750216784
10.545974,-91,-5,-4,-11,55,-12,4,0,3.750216784
10.545992,0,6,-1,-36,-128,21,-4,-87,3.750216784
10.547372,27,-38,-13,40,32,57,21,-6,3.750216784
10.547405,-6,35,0,-34,-102,-97,-8,14,3.750216784
10.568681,32,37,18,27,27,52,23,-3,3.750216784
10.568713,34,-73,-7,-44,30,89,35,-15,3.750216784
10.571219,37,-37,-12,-22,5,-44,42,32,3.750216784
10.571227,112,74,25,111,6,-64,102,10,3.750216784
10.582434,-48,-25,-27,-59,61,4,-80,-21,3.750216784
10.582465,-91,71,2,5,-56,-105,-39,-29,3.750216784
10.592364,21,-50,-16,-34,-27,7,-11,-3,3.750216784
10.592377,-28,-19,-10,-27,-115,-8,-45,0,3.750216784
10.606148,1,13,1,-7,-52,4,15,36,3.750216784
10.606168,-27,-7,-6,18,19,25,-17,43,3.750216784
10.607471,-100,-21,1,-8,-11,-1,10,-18,3.750216784
10.607486,23,7,5,-6,11,23,-27,15,3.750216784
10.628768,70,-4,0,-4,-27,-7,-32,23,3.750216784
10.628800,22,-9,-7,7,93,9,-5,72,3.750216784
10.631210,23,83,18,-17,-21,-58,19,29,3.750216784
10.631219,-47,-85,-22,47,109,122,8,-84,3.750216784
10.642074,-1,15,-23,-25,-45,68,-56,-33,3.750216784
10.642091,46,11,13,43,65,-24,61,-49,3.750216784
10.650885,-43,7,10,44,-120,104,9,79,3.750216784
10.650896,-29,7,-4,-104,-15,28,16,24,3.750216784
10.667540,25,-39,-5,67,114,31,54,34,3.750216784
10.667554,-45,14,-14,-12,-108,-41,-50,-26,3.750216784
10.672817,-13,2,-6,7,-84,-54,-20,-11,3.750216784
10.672849,94,33,9,21,-59,-17,-17,-5,3.750216784
10.688678,-8,-68,-2,-16,-86,-26,21,13,3.750216784
10.688702,30,-17,3,-10,27,12,-9,-13,3.750216784
10.690782,-62,-46,5,9,59,-24,18,36,3.750216784
10.690794,108,61,7,-1,17,7,-15,49,3.750216784
10.713322,29,58,22,-17,46,-36,-6,33,3.750216784
10.713335,41,-21,-8,-6,44,11,5,-31,3.750216784
10.713338,33,-20,10,51,-60,-96,0,-5,3.750216784
10.713340,-31,-31,-11,-41,48,121,-15,-5,3.750216784
10.725443,34,104,9,-22,-27,-69,18,25,3.750216784
10.725470,-42,-51,-8,13,0,-31,-36,-19,3.750216784
10.732561,1,-3,3,-2,53,-29,31,-15,3.750216784
10.732592,-11,-16,-7,-18,-96,6,-22,-12,3.750216784
10.747891,44,29,11,27,81,-9,19,15,3.637689200
10.747910,60,-3,-9,-23,-7,-1,2,60,3.637689200
10.749942,-2,18,-1,-17,-27,4,-15,21,3.637689200
10.749952,33,-16,3,45,-12,-18,-26,-3,3.637689200
10.770500,19,1,6,-25,-72,-14,-5,76,3.637689200
10.770529,-58,9,-9,2,57,63,24,-75,3.637689200
10.773273,-96,-39,6,16,2,-33,-69,22,3.637689200
10.773289,-40,8,14,49,69,-4,55,-5,3.637689200
10.793431,21,-6,-8,-28,-104,-3,23,-46,3.637689200
10.793452,7,-24,5,28,52,-21,-1,-12,3.637689200
10.794328,55,26,1,1,-95,23,-21,-21,3.637689200
10.794347,-46,-2,-10,-26,126,35,11,-5,3.637689200
10.807785,-31,-16,3,19,-21,-55,0,-39,3.637689200
10.807802,17,59,12,30,20,-96,-10,18,3.637689200
10.808528,71,25,-4,-59,11,127,40,29,3.637689200
10.808544,-80,-20,-1,-18,64,-114,-60,21,3.637689200
10.830410,56,-21,-21,47,102,89,54,3,3.637689200
10.830427,-7,8,-12,-43,45,-61,-43,4,3.637689200
10.832456,12,14,-6,26,96,-16,32,-68,3.637689200
10.832468,-32,22,22,-1,-42,46,6,-15,3.637689200
10.845285,68,8,-4,-15,33,-42,-37,-38,3.637689200
10.845305,19,-11,-10,-5,-69,31,5,-16,3.637689200
10.847139,0,-37,0,-20,16,-53,-28,-6,3.637689200
10.847151,9,49,13,17,-128,-23,25,3,3.637689200
10.868026,-24,-85,-29,-14,82,38,-25,-47,3.637689200
10.868035,86,12,-3,-5,-102,0,-9,10,3.637689200
10.868385,-21,9,-1,23,52,-70,-74,-29,3.637689200
10.868417,43,7,-1,3,-55,22,34,10,3.637689200
10.890397,-121,-62,7,-41,-81,11,-5,-16,3.637689200
10.890415,82,105,26,-72,-38,-63,-14,33,3.637689200
10.891947,-82,-108,-60,32,47,83,64,-68,3.637689200
10.891963,33,-18,-22,2,-61,-102,-14,-5,3.637689200
10.905548,16,48,10,9,-6,-71,-4,0,3.637689200
10.905576,-6,46,24,-1,-61,-47,-8,17,3.637689200
10.907551,-121,-7,9,-48,75,44,23,26,3.637689200
10.907565,85,-53,-27,-17,3,5,-28,8,3.637689200
10.929406,-54,-6,0,0,-22,20,13,11,3.637689200
10.929418,-47,-34,5,23,6,15,15,7,3.637689200
10.929421,42,15,13,5,-21,-7,-4,-7,3.637689200
10.929423,-1,45,-1,-8,-29,17,6,-24,3.637689200
10.950587,6,7,12,-14,-12,-33,-38,67,3.637689200
10.950604,-90,-115,-29,67,73,42,-16,-1,3.637689200
10.952307,60,-21,-10,-3,-105,1,43,-4,3.637689200
10.952314,56,33,15,4,69,-120,-30,-23,3.637689200
10.965424,-9,48,10,-47,34,97,-12,-19,3.637689200
10.965443,64,6,-9,-10,-19,41,80,0,3.637689200
10.966824,15,13,-5,-92,70,-33,10,40,3.637689200
10.966838,-79,-17,-11,59,9,-59,-26,-90,3.637689200
10.988144,-80,65,4,38,68,-74,43,63,3.637689200
10.988175,-55,-53,-8,-14,-37,50,-11,50,3.637689200
10.990847,85,27,11,-39,-112,15,4,20,3.637689200
10.990860,48,32,9,30,99,20,16,56,3.637689200
11.010195,-25,-28,-5,-1,-60,4,-20,-4,3.548857801
11.010211,-18,39,7,10,-5,11,-8,-14,3.548857801
11.011140,-25,-12,-10,-2,-28,-30,-13,-2,3.548857801
11.011199,-43,-35,-9,-40,-33,32,-14,31,3.548857801
11.025483,73,3,-1,42,-49,-21,-22,-20,3.548857801
11.025500,-40,1,2,-6,-34,-81,-5,9,3.548857801
11.026681,58,10,-6,7,125,97,-24,-13,3.548857801
11.026699,3,-34,-1,-17,40,-46,-17,-32,3.548857801
11.047886,-40,20,15,-18,-46,-50,50,2,3.548857801
11.047905,81,4,-20,30,73,111,-9,-34,3.548857801
11.049552,20,34,8,46,-7,-99,17,24,3.548857801
11.049562,-41,-24,-2,-16,20,-7,2,-5,3.548857801
11.070699,-4,18,3,-36,-63,-50,-40,-25,3.548857801
11.070707,-12,-19,0,38,48,57,10,0,3.548857801
11.071327,-55,-20,-4,-4,-18,-40,-28,-23,3.548857801
11.071335,50,9,-8,-14,-24,48,26,-7,3.548857801
11.086522,-18,-17,-1,17,-78,-33,-20,-1,3.548857801
11.086532,-87,25,4,-33,35,-1,0,-86,3.548857801
11.086534,68,37,21,1,-33,13,2,28,3.548857801
11.086537,-40,-61,-15,-16,-104,-10,1,-15,3.548857801
11.107886,77,30,-5,20,67,-22,2,-9,3.548857801
11.109284,8,-25,-11,-67,-91,61,-19,-8,3.548857801
11.109298,9,-24,-3,30,106,16,0,4,3.548857801
11.109300,36,50,17,11,92,73,38,44,3.548857801
11.130577,53,-23,-14,-33,-80,127,0,-54,3.548857801
11.130612,-1,13,-3,-4,101,-18,36,-28,3.548857801
11.132770,-14,6,7,27,-18,-70,-20,9,3.548857801
11.132781,-10,7,-1,-2,-7,-28,-17,-20,3.548857801
11.145364,-34,-3,13,22,-59,55,15,30,3.548857801
11.145421,100,5,-9,-16,-35,-67,1,-37,3.548857801
11.146337,32,95,4,-17,0,40,-7,-13,3.548857801
11.146344,-42,-107,-22,3,0,-45,-16,-48,3.548857801
11.168274,-17,-6,-5,29,21,-27,9,-23,3.548857801
11.168301,-16,66,24,-25,-78,-48,-5,51,3.548857801
11.168689,-39,-30,3,22,-92,-18,1,16,3.548857801
11.168704,-9,22,-6,-23,-13,-39,27,20,3.548857801
11.190709,-50,16,-1,-16,30,-2,-22,42,3.548857801
11.190730,85,-45,-13,23,106,105,-1,3,3.548857801
11.192341,21,3,-14,-51,-51,-39,-47,-9,3.548857801
11.192359,-25,-5,15,4,-52,-99,14,31,3.548857801
11.204721,5,-21,-4,14,-41,6,14,4,3.548857801
11.204736,-99,-4,13,59,51,-44,-9,5,3.548857801
11.213014,27,-8,-4,-39,-36,-9,-12,38,3.548857801
11.213037,-23,75,-1,-12,-16,11,-15,11,3.548857801
11.227799,-62,-92,-15,-16,61,-6,-22,-20,3.548857801
11.227842,61,16,6,5,-15,-40,-4,-53,3.548857801
11.228468,1,-23,-10,5,0,19,20,-6,3.548857801
11.228503,86,62,15,-27,-96,-5,-8,15,3.548857801
11.250359,5,3,2,26,115,69,-30,55,3.472207990
11.250379,-68,-34,-4,14,-36,-49,65,37,3.472207990
11.251336,3,-15,0,9,42,-8,21,-20,3.472207990
11.251341,19,22,9,0,-77,-56,21,0,3.472207990
11.264933,-16,-23,-17,-3,57,53,-37,-41,3.472207990
11.264957,-48,25,6,-16,-61,-38,12,31,3.472207990
11.274395,69,6,0,21,-23,-14,-16,-7,3.472207990
11.274408,-106,5,-1,16,-67,86,-3,-9,3.472207990
11.290790,56,-26,-2,-4,42,-45,7,-33,3.472207990
11.290804,-6,36,20,1,-120,-55,-13,24,3.472207990
11.290807,52,4,-12,4,126,56,-16,15,3.472207990
11.290810,-69,-78,-22,-13,-58,5,-41,13,3.472207990
11.310353,69,-41,-21,-22,-118,-95,4,16,3.472207990
11.310379,40,4,-11,1,-1,12,-24,25,3.472207990
11.311468,-72,18,27,8,-74,-14,26,24,3.472207990
11.311487,85,26,15,22,74,30,11,3,3.472207990
11.324870,-58,-37,-18,-13,15,-10,-18,-53,3.472207990
11.324888,-14,-35,-5,-19,-27,-25,1,-35,3.472207990
11.333096,-44,2,4,11,18,21,7,-10,3.472207990
11.333132,17,-32,-3,34,100,90,27,-1,3.472207990
11.348249,22,-8,13,-24,44,-128,-24,-16,3.472207990
11.348268,17,4,3,57,-18,101,-23,1,3.472207990
11.349250,-71,-11,-15,-51,48,78,61,-26,3.472207990
11.349256,38,8,-6,22,-62,-15,-26,13,3.472207990
11.371070,-17,24,-3,-15,29,80,60,38,3.472207990
11.371090,-43,-13,2,48,127,-12,26,31,3.472207990
11.371164,65,74,2,-1,-58,-60,-44,7,3.472207990
11.371222,53,-67,-24,-37,-46,2,15,63,3.472207990
11.384870,59,26,3,12,-84,-23,9,30,3.472207990
11.384901,-60,28,6,-34,-38,12,-31,21,3.472207990
11.392889,73,-60,-16,12,-9,20,37,32,3.472207990
11.392907,-48,32,7,-5,23,-38,-32,-76,3.472207990
11.408031,10,23,11,7,-26,-16,-11,-8,3.472207990
11.408062,51,30,3,12,62,4,17,0,3.472207990
11.409746,-19,14,17,-30,-52,-107,-90,-31,3.472207990
11.409754,-25,-57,-14,23,124,100,73,-20,3.472207990
11.430520,13,19,6,41,-89,-44,-23,-16,3.472207990
11.430532,8,-5,-5,-33,38,-38,26,-25,3.472207990
11.430943,-32,-3,-4,58,75,58,-29,-18,3.472207990
11.430951,33,27,7,-43,-104,-67,-20,25,3.472207990
11.445202,-118,13,1,10,-46,38,3,17,3.472207990
11.445227,97,-34,0,6,4,-17,12,72,3.472207990
11.452946,-12,18,-21,-40,61,15,-26,-4,3.472207990
11.452967,-36,6,3,3,64,42,-1,63,3.472207990
11.468314,-24,35,1,6,20,-13,31,-6,3.472207990
11.468343,19,13,11,-3,-43,-18,-15,16,3.472207990
11.469701,-54,22,5,-10,-53,55,24,32,3.472207990
11.469707,104,-38,-24,-21,65,-53,-33,-39,3.472207990
11.492680,27,43,6,-3,-18,-63,9,5,3.472207990
11.492692,-9,-46,-10,43,-1,47,-36,-79,3.472207990
11.492695,-90,-40,-8,-42,-2,63,25,-18,3.472207990
11.492697,-9,39,11,-36,87,-30,47,-13,3.472207990
11.504746,34,19,7,32,-54,-10,14,-6,3.472207990
11.504762,-16,-5,-15,-8,34,-77,-29,0,3.472207990
11.513153,6,-18,10,34,-47,-36,46,6,3.442143849
11.513220,8,26,16,28,-82,4,-51,-1,3.442143849
11.528064,-57,-64,-7,-24,-20,44,8,-41,3.442143849
11.528127,1,-1,-17,-40,-53,8,-15,14,3.442143849
11.528686,61,-19,1,-5,-61,-51,-18,-95,3.442143849
11.528702,-58,-46,-11,12,10,3,12,-11,3.442143849
11.550574,-6,23,9,7,127,12,13,69,3.442143849
11.550604,5,6,-3,-23,-90,85,31,13,3.442143849
11.552949,-97,-37,5,2,59,-41,5,11,3.442143849
11.552961,38,70,9,-12,-111,-53,13,-6,3.442143849
11.565046,92,-18,-11,-1,8,74,-40,-38,3.442143849
11.565078,-118,-42,-3,3,-13,-21,-32,2,3.442143849
11.572974,53,-40,-7,-51,-2,13,23,27,3.442143849
11.572998,-32,7,-3,64,100,58,53,11,3.442143849
11.587846,24,6,5,-4,-55,-17,-9,2,3.442143849
11.587884,-25,19,-5,4,-115,-59,-35,-18,3.442143849
11.588531,-9,41,8,18,1,61,23,-11,3.442143849
11.588553,-114,-66,0,-25,6,36,-31,36,3.442143849
11.610378,43,20,-7,-8,14,28,3,-7,3.442143849
11.612461,58,-2,-4,8,40,27,10,-7,3.442143849
11.612478,86,4,0,-15,-32,-54,-24,-25,3.442143849
11.612483,-67,4,5,4,13,-9,-9,-45,3.442143849
11.633789,8,12,-6,-39,-111,2,-15,-66,3.442143849
11.633798,-18,-1,14,49,74,-4,-2,50,3.442143849
11.634120,18,-24,2,-19,-90,-44,23,-3,3.442143849
11.634156,-15,-54,-11,-5,3,-17,-61,-54,3.442143849
11.649812,-21,-17,-3,31,70,70,-7,-3,3.442143849
11.649819,-19,-1,-23,-72,-25,32,-39,-62,3.442143849
11.649821,-28,28,2,2,-1,13,60,-18,3.442143849
11.649824,46,2,-1,18,88,-18,8,-8,3.442143849
11.670390,-9,4,7,-23,-105,-22,4,6,3.442143849
11.670412,-31,-6,2,5,126,-19,1,33,3.442143849
11.671094,-23,50,-1,44,18,24,-18,26,3.442143849
11.671112,34,-58,-16,-32,-120,6,7,53,3.442143849
11.693552,64,-31,1,-5,38,-23,-31,-10,3.442143849
11.693573,123,22,0,-20,-64,-35,17,-17,3.442143849
11.694810,-39,-4,2,21,-17,-23,2,-38,3.442143849
11.694825,122,53,-1,-56,-62,9,23,87,3.442143849
11.707911,-19,-26,-6,28,106,-52,-10,-68,3.442143849
11.707935,14,2,8,-1,31,-11,18,81,3.442143849
11.709596,-37,-6,7,16,48,-107,-14,16,3.442143849
11.709604,-9,23,5,14,-115,39,-76,-11,3.442143849
11.730618,-23,13,-2,32,39,33,62,12,3.442143849
11.730649,17,42,-5,-101,-65,-70,-15,6,3.442143849
11.730971,-22,-29,-7,64,127,-85,39,28,3.442143849
11.730986,-17,7,-7,-40,-102,43,-1,-29,3.442143849
11.753806,-4,-4,1,21,76,15,-17,-6,3.442143849
11.753831,-38,48,9,10,-99,112,61,48,3.442143849
11.756429,-56,-81,-9,-6,44,65,39,50,3.442143849
11.756444,65,22,1,25,19,-54,-1,-24,3.442143849
11.767866,6,-7,2,-8,-26,-18,12,14,3.520686469
11.767897,26,-43,-19,-23,-59,-16,-15,-64,3.520686469
11.769270,111,-26,-17,-19,-84,-10,-47,27,3.520686469
11.769280,-63,-4,5,10,-8,22,35,-57,3.520686469
11.790331,16,28,6,-15,11,-8,0,63,3.520686469
11.790349,-22,23,10,-12,-75,-68,-13,-40,3.520686469
11.791099,42,23,11,80,8,25,-21,52,3.520686469
11.791197,-26,31,6,11,1,54,54,-37,3.520686469
11.813859,2,4,8,-62,-128,-92,-35,28,3.520686469
11.813880,30,2,8,81,127,118,60,43,3.520686469
11.814845,-24,-2,-11,-39,-68,35,-19,-74,3.520686469
11.814851,94,53,1,-4,121,28,6,59,3.520686469
11.827799,-70,-77,-12,-23,-128,-8,1,-18,3.520686469
11.827819,101,19,3,23,45,-53,-41,-28,3.520686469
11.830171,-15,-48,-28,-36,-19,-25,-26,-42,3.520686469
11.830180,1,101,24,27,47,-9,10,-11,3.520686469
11.852489,-22,-51,-21,-10,0,10,10,-93,3.520686469
11.852498,38,-13,-7,2,1,-17,-16,-44,3.520686469
11.852500,-28,32,4,7,23,3,-15,17,3.520686469
11.852502,-46,-10,-3,-86,-76,-49,-46,-87,3.520686469
11.873590,-56,17,10,54,127,21,-4,16,3.520686469
11.873613,-58,1,-1,25,18,-39,82,25,3.520686469
11.874901,37,-2,8,28,-4,17,-25,-2,3.520686469
11.874980,-6,-31,-15,-82,39,78,13,36,3.520686469
11.888179,-30,104,34,54,-20,-79,78,55,3.520686469
11.888196,37,-114,-29,-59,-64,-76,-79,-49,3.520686469
11.890136,-13,60,-12,26,-31,53,-22,-43,3.520686469
11.890149,-24,-49,-2,29,-34,-46,-20,-22,3.520686469
11.910390,-8,9,2,5,23,28,9,56,3.520686469
11.910414,-53,95,25,-1,8,18,32,75,3.520686469
11.912388,-36,-87,-16,-38,-53,-36,3,5,3.520686469
11.912401,29,-27,1,31,12,-41,-11,7,3.520686469
11.934160,5,34,-9,10,-67,10,-18,-43,3.520686469
11.934194,-85,30,21,-30,-75,-41,-1,-42,3.520686469
11.934502,-19,-49,-4,-34,-82,-48,4,-22,3.520686469
11.934524,-52,-24,-21,46,-4,81,-21,-66,3.520686469
11.948025,37,-2,-8,-58,70,-106,16,57,3.520686469
11.948109,-41,1,6,33,-18,99,-13,-13,3.520686469
11.948542,15,45,14,-20,42,-110,15,54,3.520686469
11.948557,-8,-15,-5,1,84,46,37,73,3.520686469
11.970838,59,22,-2,5,54,67,-64,-47,3.520686469
11.970881,-48,-49,-6,1,-15,-60,12,39,3.520686469
11.973709,43,66,13,-4,-46,-6,-7,-32,3.520686469
11.973724,126,7,-5,4,-90,-98,-16,12,3.520686469
11.993535,-95,-33,-10,-16,84,114,7,3,3.520686469
11.993576,80,-13,-6,-12,-16,8,-9,63,3.520686469
11.994180,-43,15,6,28,30,18,15,-11,3.520686469
11.994190,-68,-27,-17,-28,26,-107,-21,4,3.520686469
12.008776,20,13,11,21,-63,54,23,-1,3.520686469
12.008788,-57,-9,-1,-6,-54,-18,-3,-49,3.520686469
12.008791,-10,-16,-1,-24,112,111,45,6,3.520686469
12.008824,9,32,22,66,-4,0,6,-15,3.520686469
12.030325,-15,-26,-13,-13,94,-22,-13,13,3.530754420
12.030344,21,10,5,9,46,46,-2,-16,3.530754420
12.031273,7,7,-3,-10,0,-61,-6,-21,3.530754420
12.031278,50,29,3,-14,86,106,9,-6,3.530754420
12.055434,10,-50,-12,-13,-39,-46,13,15,3.530754420
12.055452,15,6,-3,-18,-9,-54,-14,-66,3.530754420
12.055457,-9,14,2,25,44,37,-7,37,3.530754420
12.055463,-34,-27,2,6,-57,-100,-36,19,3.530754420
12.068378,78,45,12,49,-35,-84,-5,41,3.530754420
12.068410,-63,-51,-23,-62,-70,-65,-24,-46,3.530754420
12.070771,-96,-35,-11,-35,-48,79,16,-6,3.530754420
12.070779,-10,34,20,69,-30,-36,22,22,3.530754420
12.090585,-27,16,-1,-52,62,-80,-52,-37,3.530754420
12.090604,65,21,5,24,-49,100,64,73,3.530754420
12.091408,-23,-2,1,11,-23,14,-18,70,3.530754420
12.091482,-61,-80,-16,-69,-114,-17,-14,-52,3.530754420
12.113729,8,6,3,31,22,9,17,-3,3.530754420
12.113761,17,16,6,48,79,7,-26,-18,3.530754420
12.116164,18,12,9,-19,-6,-47,4,-7,3.530754420
12.116174,-37,15,-4,11,-35,9,1,41,3.530754420
12.127923,19,-2,-22,-46,-47,-34,-34,-29,3.530754420
12.129462,-15,-12,-5,0,24,15,1,-8,3.530754420
12.129475,55,28,12,7,-103,-77,-12,-17,3.530754420
12.129477,-81,-42,6,24,127,13,26,35,3.530754420
12.150733,19,28,-3,27,-128,62,-72,6,3.530754420
12.150755,17,-8,-2,-9,123,46,46,13,3.530754420
12.151225,55,-17,-4,35,-22,-68,-65,-24,3.530754420
12.151241,20,19,2,-1,-22,73,47,64,3.530754420
12.173758,-16,0,5,-14,-68,10,6,19,3.530754420
12.173776,-83,-31,2,19,-28,-6,-14,16,3.530754420
12.175351,-69,32,7,-5,-15,40,-2,41,3.530754420
12.175365,60,-35,-10,-12,35,-36,-21,-54,3.530754420
12.188223,-8,13,8,4,-7,28,54,7,3.530754420
12.188255,0,6,-1,-3,-51,-15,-18,15,3.530754420
12.191131,98,15,-3,-13,32,-9,-3,-30,3.530754420
12.191144,-43,19,-21,-4,-34,-51,-53,-7,3.530754420
12.210431,54,-7,12,-13,24,-12,50,11,3.530754420
12.210452,-27,7,-9,-71,1,-63,-45,-31,3.530754420
12.211100,41,-29,-16,3,112,47,40,-6,3.530754420
12.211111,44,46,6,59,-70,-106,-42,-8,3.530754420
12.233559,-24,-40,-11,-31,-88,46,-9,5,3.530754420
12.233582,-32,19,-1,22,16,45,-3,9,3.530754420
12.235002,-56,12,15,8,-10,30,7,53,3.530754420
12.235015,-24,6,9,-16,51,16,26,48,3.530754420
12.247267,-28,-51,-20,-11,-31,-67,-24,-70,3.530754420
12.247290,39,11,-2,7,27,12,-11,-40,3.530754420
12.257565,12,-15,-1,-10,19,37,27,-5,3.530754420
12.257582,-8,16,7,34,35,-46,-16,-38,3.530754420
12.270744,-7,20,14,-19,4,9,12,-15,3.530754420
12.270778,-28,-14,-7,16,17,37,12,-40,3.530754420
12.273517,-53,12,9,-19,-104,-82,5,9,3.530754420
12.273531,88,-11,-5,-24,-96,109,-17,-34,3.530754420
12.293703,21,-5,-11,11,82,-86,-27,18,3.496021347
12.293729,32,-22,-6,4,-66,-116,-9,-3,3.496021347
12.294411,-55,50,2,-26,-51,72,45,1,3.496021347
12.294430,-22,-24,0,18,93,-45,-6,12,3.496021347
12.307569,1,-57,-24,-22,-25,1,-14,-16,3.496021347
12.307745,35,14,7,23,127,8,22,16,3.496021347
12.315762,11,13,3,-13,-3,-30,-20,-37,3.496021347
12.315794,-47,24,13,-10,-40,12,3,45,3.496021347
12.330628,38,23,8,8,31,27,11,-19,3.496021347
12.330652,-28,-1,4,19,-7,-1,-33,-28,3.496021347
12.333011,-9,-26,-6,-1,-34,13,-21,-26,3.496021347
12.333028,25,5,0,6,39,21,12,64,3.496021347
12.353912,15,-4,4,12,-18,50,8,44,3.496021347
12.353936,12,8,2,-70,-128,9,38,22,3.496021347
12.355738,-30,39,19,106,86,-107,-22,23,3.496021347
12.355752,-29,-56,-29,-84,86,87,20,-6,3.496021347
12.367550,-127,-73,-41,-14,106,-115,-30,-72,3.496021347
12.367634,42,16,1,-22,3,9,26,58,3.496021347
12.375588,45,6,7,42,51,-61,-21,33,3.496021347
12.375608,-69,84,54,20,-35,-6,17,18,3.496021347
12.390629,106,2,-17,-9,62,76,19,-50,3.496021347
12.390657,-110,-51,-19,18,28,12,-29,-9,3.496021347
12.392338,-46,-58,-13,-11,32,-20,-11,3,3.496021347
12.392351,-21,23,1,12,-50,-55,-8,-5,3.496021347
12.413679,-16,32,13,-12,-87,13,14,-8,3.496021347
12.413693,36,10,1,-2,-16,-22,-5,11,3.496021347
12.414278,47,2,-5,-10,-18,24,-8,7,3.496021347
12.414287,11,-19,-11,-18,-26,3,24,36,3.496021347
12.427119,-18,16,13,15,-23,11,7,48,3.496021347
12.427134,28,3,0,15,39,22,7,37,3.496021347
12.435509,-29,-15,2,-31,27,26,8,-87,3.496021347
12.435528,9,-21,-7,-5,25,13,-15,-54,3.496021347
12.450596,-26,26,1,-1,-64,-89,-61,23,3.496021347
12.450722,-68,20,17,61,86,85,-70,15,3.496021347
12.451750,57,-60,-25,-10,79,52,-2,-34,3.496021347
12.451754,75,-9,-2,8,-19,-118,20,21,3.496021347
12.474834,-62,22,13,-13,10,0,-6,-54,3.496021347
12.474848,-57,-11,-6,-17,-61,2,-1,-27,3.496021347
12.474850,48,2,-8,-32,-93,-47,-37,-1,3.496021347
12.474853,-17,11,6,23,99,-32,-11,33,3.496021347
12.487633,28,-21,4,13,-33,0,5,57,3.496021347
12.487665,22,83,15,0,-5,-23,24,58,3.496021347
12.495526,-85,-35,-1,2,-14,28,15,19,3.496021347
12.495552,85,-52,-40,-54,-26,11,-33,-128,3.496021347
12.510440,-24,34,12,-2,-58,44,45,24,3.496021347
12.510506,37,-5,-4,31,60,-128,15,-43,3.496021347
12.511206,11,26,11,41,47,-24,-40,36,3.496021347
12.511276,-7,24,7,2,-77,103,40,-10,3.496021347
12.533910,-22,-36,-4,-51,100,-8,-26,-23,3.449841279
12.533935,64,-6,-4,47,88,-6,31,13,3.449841279
12.536372,-9,-8,-7,-29,-117,-34,38,43,3.449841279
12.536383,-37,9,3,1,-30,-37,-33,27,3.449841279
12.547268,-60,4,2,7,-39,4,2,-43,3.449841279
12.547287,8,-8,-9,-30,-3,-14,-12,-31,3.449841279
12.555848,52,5,3,-4,-17,13,1,13,3.449841279
12.555881,36,-15,-9,-11,-2,17,-4,-35,3.449841279
12.570517,20,10,12,33,-65,23,33,125,3.449841279
12.570540,12,-3,2,-7,-6,21,16,-4,3.449841279
12.571395,-43,12,-8,2,40,-56,-46,-92,3.449841279
12.571420,-10,-4,-6,-36,-51,28,-29,-40,3.449841279
12.593677,25,-22,-4,25,-91,46,-13,-16,3.449841279
12.593706,-1,0,14,23,-55,-65,-31,-22,3.449841279
12.595903,-12,10,-13,-55,59,-10,56,33,3.449841279
12.595919,-67,-21,-3,-12,83,34,-15,-5,3.449841279
12.616200,68,38,9,37,4,6,-18,31,3.449841279
12.616240,-66,-45,-10,-22,-57,-35,1,-7,3.449841279
12.616719,38,7,5,-12,-128,26,5,-44,3.449841279
12.616753,-56,20,12,51,69,-62,1,17,3.449841279
12.630520,-16,18,1,5,101,-53,7,17,3.449841279
12.630532,103,7,-13,-36,-45,72,1,-51,3.449841279
12.631148,-54,-12,3,6,4,-5,-5,37,3.449841279
12.631188,-34,17,10,5,-46,12,36,79,3.449841279
12.653859,64,-23,-11,12,-20,-45,-3,-40,3.449841279
12.653892,-19,21,1,-40,-72,15,10,-39,3.449841279
12.657111,-6,-21,-13,-25,19,16,-19,-21,3.449841279
12.657129,65,30,23,111,54,-37,37,15,3.449841279
12.676166,-128,-3,-3,-38,-93,109,-5,-14,3.449841279
12.676179,83,-3,-16,-34,10,-86,10,1,3.449841279
12.676767,-38,-2,-1,-23,31,3,-51,-2,3.449841279
12.676777,-24,-19,-13,-64,-128,-98,-15,45,3.449841279
12.692304,16,-19,-3,37,8,-43,-16,-73,3.449841279
12.692316,-7,57,21,48,91,74,15,-19,3.449841279
12.692318,-56,-71,-8,-21,-54,94,21,19,3.449841279
12.692321,116,-7,-13,9,43,-67,-21,12,3.449841279
12.713783,41,4,-5,-18,0,-25,4,-17,3.449841279
12.713803,-35,-13,-6,-8,-46,100,3,24,3.449841279
12.714733,-17,68,15,16,53,11,31,43,3.449841279
12.714739,2,11,15,-31,-51,23,5,-15,3.449841279
12.736309,100,-20,-12,31,-41,-54,23,4,3.449841279
12.736333,-48,-37,-4,-7,-114,-16,9,15,3.449841279
12.738780,26,20,-2,19,41,-55,-7,4,3.449841279
12.738793,-21,100,28,5,17,-32,-19,-11,3.449841279
12.751058,-1,-68,-39,-39,111,70,-60,-65,3.449841279
12.751088,23,-26,-16,-17,127,-12,4,11,3.449841279
12.753158,40,62,21,4,-48,-35,22,27,3.449841279
12.753164,44,-22,-5,15,-80,-35,1,-39,3.449841279
12.773599,-127,-65,-10,-5,14,54,24,-53,3.449841279
12.773617,38,17,8,15,-38,9,-15,47,3.449841279
12.774418,-19,-32,-19,10,10,-12,-11,-22,3.449841279
12.774434,1,33,8,-24,31,56,27,0,3.449841279
12.796167,-3,57,27,0,23,-6,7,111,3.485818198
12.796190,16,-48,-15,26,-31,-101,-45,64,3.485818198
12.797309,10,16,6,0,70,91,40,-67,3.485818198
12.797317,-41,-33,-8,8,11,7,8,-31,3.485818198
12.810485,5,6,8,5,83,-20,5,6,3.485818198
12.810512,-43,2,2,-61,-83,40,30,-35,3.485818198
12.812438,-3,-6,-6,19,75,-40,-27,13,3.485818198
12.812452,-23,-40,-23,-15,12,74,14,-15,3.485818198
12.834985,-61,55,17,0,-89,-104,-6,-19,3.485818198
12.834994,-13,-20,-1,-19,-109,-38,-5,-39,3.485818198
12.834997,67,38,-8,38,48,96,-20,35,3.485818198
12.834999,96,-51,-22,-9,-26,52,24,-23,3.485818198
12.856303,-29,21,-5,-71,-115,-84,-17,-6,3.485818198
12.856326,-18,24,14,75,117,11,-28,-3,3.485818198
12.858321,-29,42,19,-31,-65,-84,19,28,3.485818198
12.858334,8,-34,-20,8,82,28,-4,-27,3.485818198
12.870640,40,3,6,-23,-58,-59,21,-9,3.485818198
12.870669,-56,5,-5,-5,-60,45,-22,75,3.485818198
12.872001,11,-25,-5,-9,33,-128,9,20,3.485818198
12.872010,-83,58,25,51,32,59,-7,40,3.485818198
12.896228,77,-32,-12,-37,-105,62,41,-73,3.485818198
12.896238,10,-17,-3,19,120,13,-10,-23,3.485818198
12.896241,-56,13,11,10,-94,-25,-8,14,3.485818198
12.896243,61,-56,-16,-18,-117,-38,-14,-19,3.485818198
12.916296,-31,13,-4,1,83,4,-8,-21,3.485818198
12.916327,32,19,2,18,70,-68,-16,21,3.485818198
12.917076,-48,-49,-2,-5,-37,80,2,-8,3.485818198
12.917101,18,1,-7,-19,-75,-93,-19,-5,3.485818198
12.930486,58,33,12,2,97,56,9,-10,3.485818198
12.930504,-32,-54,-5,39,77,31,39,-51,3.485818198
12.931097,56,-20,-11,45,-72,-38,-11,-25,3.485818198
12.931140,-48,3,-14,-104,111,96,67,35,3.485818198
12.954685,67,18,-5,35,127,29,-29,-4,3.485818198
12.954709,-29,28,5,-12,-116,-40,-6,20,3.485818198
12.957662,22,0,2,14,-55,68,21,18,3.485818198
12.957676,-3,-10,0,8,-60,-69,-32,1,3.485818198
12.975951,-38,98,30,16,-89,11,6,107,3.485818198
12.975967,57,-78,-33,-11,59,7,1,-45,3.485818198
12.976573,33,-44,-17,-24,-6,-16,-28,15,3.485818198
12.976605,-38,26,10,30,58,8,-6,-2,3.485818198
12.990697,-27,12,0,36,-96,14,19,14,3.485818198
12.990721,-20,1,14,-25,-10,-45,2,-39,3.485818198
12.992081,-31,-4,2,-44,52,50,-24,-10,3.485818198
12.992091,-47,2,-1,-20,54,-5,29,-11,3.485818198
13.014563,0,-73,-11,41,107,-78,-12,63,3.485818198
13.014594,-71,12,6,52,82,21,8,-61,3.485818198
13.016800,8,45,2,-18,-10,69,69,7,3.485818198
13.016834,-126,-14,4,-13,-49,-56,7,31,3.485818198
13.036266,-1,-47,-12,-20,94,-64,-51,-48,3.485818198
13.036281,4,27,14,7,16,86,36,73,3.485818198
13.036782,-48,-10,0,14,46,-12,-18,-34,3.485818198
13.036797,21,10,-5,1,-41,-10,-28,60,3.485818198
13.052172,-52,44,22,1,-102,6,44,55,3.463145032
13.052181,93,-53,-40,-4,-89,-20,-32,-75,3.463145032
13.058217,12,38,11,0,-23,11,19,9,3.463145032
13.058236,-15,-11,4,33,-47,-51,-22,-55,3.463145032
13.073656,9,12,3,-26,74,45,10,58,3.463145032
13.073674,-63,65,14,-78,-94,16,3,31,3.463145032
13.075144,57,-52,-22,36,-116,-112,-18,-6,3.463145032
13.075156,34,4,-5,39,43,108,37,-29,3.463145032
13.096381,-15,-14,2,31,-111,-57,50,14,3.463145032
13.096405,-41,18,11,4,-82,-90,5,10,3.463145032
13.098263,13,-39,-13,-15,-22,64,-30,-67,3.463145032
13.098272,12,14,7,-25,105,-13,4,-50,3.463145032
13.110527,-100,-56,-18,-22,4,-20,-65,-54,3.463145032
13.110546,31,16,6,-5,-39,-29,-14,41,3.463145032
13.112840,-32,33,-3,-15,14,-14,-5,-55,3.463145032
13.112852,-95,-63,-11,-1,37,19,-13,67,3.463145032
13.133200,12,45,6,10,24,84,21,-49,3.463145032
13.133233,-6,-22,1,-1,2,-12,-7,6,3.463145032
13.133743,-76,52,21,29,83,4,-15,8,3.463145032
13.133758,-33,-27,-13,-23,-128,-82,-22,34,3.463145032
13.156337,41,-60,-23,-31,-128,77,41,30,3.463145032
13.156363,0,11,-6,-29,86,112,17,-44,3.463145032
13.158650,40,15,14,22,-85,-38,36,18,3.463145032
13.158665,-22,-2,-12,1,-30,86,-37,-51,3.463145032
13.169897,-19,24,0,-1,41,0,6,12,3.463145032
13.169914,-46,-18,-10,-25,-48,45,30,-2,3.463145032
13.178217,16,-19,-4,1,34,-12,-14,0,3.463145032
13.178253,65,24,13,-9,-101,-45,-7,31,3.463145032
13.193513,-18,-11,2,21,64,-29,-9,-23,3.463145032
13.193530,86,30,0,8,20,22,-12,30,3.463145032
13.194420,-5,15,1,-12,29,-26,6,-3,3.463145032
13.194484,-23,-75,-10,15,41,-15,2,-3,3.463145032
13.216367,6,-46,-13,-71,44,-26,-24,-58,3.463145032
13.216401,-7,21,3,102,62,-75,-23,87,3.463145032
13.217645,98,-28,-5,-68,-128,67,66,33,3.463145032
13.217650,11,54,12,49,107,41,-23,-39,3.463145032
13.230262,68,29,8,-25,3,-89,19,30,3.463145032
13.230294,-87,-42,5,-28,-89,60,10,-22,3.463145032
13.238060,-70,-18,-31,3,90,-55,12,-52,3.463145032
13.238086,28,29,9,44,53,-39,-12,31,3.463145032
13.254117,0,6,4,14,-72,40,-4,1,3.463145032
13.254126,41,17,10,-13,-32,-11,-39,23,3.463145032
13.254129,-67,-4,5,-19,27,22,-14,-29,3.463145032
13.254131,77,0,-8,-36,-41,-16,17,-31,3.463145032
13.276272,-20,-18,-6,33,36,-7,-14,-23,3.463145032
13.276304,21,7,6,-21,-14,-1,15,-8,3.463145032
13.277869,96,85,24,32,-100,33,0,25,3.463145032
13.277878,-82,-91,-26,50,96,-33,-21,-39,3.463145032
13.290018,71,49,2,-10,-6,31,14,58,3.463145032
13.290039,-29,23,-4,-48,-47,-39,-31,-12,3.463145032
13.299968,12,-3,-8,-74,-8,25,3,40,3.458760020
13.299975,30,58,15,76,92,118,-11,30,3.458760020
13.314161,29,-29,6,3,-24,33,65,-12,3.458760020
13.314181,-70,-41,-12,-11,-83,30,27,-44,3.458760020
13.316144,-26,17,10,10,96,-128,-40,-49,3.458760020
13.316155,-9,14,3,-41,-77,115,-11,8,3.458760020
13.336491,-46,-64,-23,-1,-28,-36,-55,-41,3.458760020
13.336514,-72,-7,7,14,61,-52,-12,-15,3.458760020
13.338803,102,-59,-9,23,21,0,-5,32,3.458760020
13.338814,-25,-9,-5,-62,-114,-61,33,3,3.458760020
13.358830,-14,50,12,15,52,-26,-19,1,3.458760020
13.358847,3,33,9,-3,-46,-20,-2,-21,3.458760020
13.360112,-19,-20,-7,26,-98,25,21,8,3.458760020
13.360124,-17,25,8,-21,-52,-48,13,-35,3.458760020
13.373229,-47,-14,-4,-42,-14,49,-7,3,3.458760020
13.373258,55,-18,-4,36,-49,-31,-3,-26,3.458760020
13.375075,12,13,0,7,60,66,-2,34,3.458760020
13.375087,15,68,22,17,32,-37,62,8,3.458760020
13.396336,-88,9,5,4,-4,-51,13,-25,3.458760020
13.396354,84,-61,-39,12,10,-35,-47,-83,3.458760020
13.396992,-55,-9,-1,6,49,-27,-26,-9,3.458760020
13.397006,16,25,11,-17,-3,-5,3,10,3.458760020
13.409771,-65,36,20,44,49,5,9,17,3.458760020
13.409785,95,30,3,-7,21,2,18,64,3.458760020
13.418249,34,-36,-14,-26,-47,31,-28,-22,3.458760020
13.418281,48,12,-5,-25,-22,-20,-31,44,3.458760020
13.433041,-46,-68,-2,55,-9,18,40,19,3.458760020
13.433065,71,-38,-11,-39,-14,-68,-75,-55,3.458760020
13.435569,-16,-5,-12,-83,-35,62,36,-24,3.458760020
13.435575,-1,-8,-1,56,-128,-38,-56,-26,3.458760020
13.457123,34,72,11,19,55,81,83,60,3.458760020
13.457137,18,100,35,58,26,-16,-32,54,3.458760020
13.457139,29,-80,-29,-10,-38,-35,-4,-43,3.458760020
13.457142,24,-1,0,-55,-48,-41,3,-28,3.458760020
13.472146,18,18,-3,14,20,4,-18,-8,3.458760020
13.472158,-55,103,35,11,15,39,45,-28,3.458760020
13.478091,35,-30,-28,-17,-9,-71,-72,-43,3.458760020
13.478114,-21,-20,-3,-12,-46,71,-34,8,3.458760020
13.493111,49,8,4,11,-23,-17,-8,70,3.458760020
13.493139,-70,35,11,-7,4,11,37,75,3.458760020
13.494622,18,-18,5,28,-85,-30,0,19,3.458760020
13.494634,-1,-46,-20,-26,114,-128,-26,-51,3.458760020
13.517470,-67,-19,-13,-59,-106,89,-9,-68,3.458760020
13.517479,-29,-14,-11,-6,107,-54,85,7,3.458760020
13.517481,-32,69,31,72,121,-29,-3,62,3.458760020
13.517514,17,5,9,36,-58,110,-18,6,3.458760020
13.538830,58,-29,-17,-12,61,-40,11,-15,3.458760020
13.538858,-51,-27,-11,-31,-71,89,-2,-62,3.458760020
13.541062,-45,-6,5,-3,-4,-8,-15,-66,3.458760020
13.541074,49,-1,3,11,-37,-39,31,50,3.458760020
13.553032,-23,4,4,9,-39,-21,-31,-65,3.458760020
13.553053,18,-13,-7,-11,11,1,-20,48,3.458760020
13.554666,-116,-32,0,-1,16,-36,-7,-106,3.640127323
13.554679,40,21,-6,-23,7,68,-7,51,3.640127323
13.576216,-1,-15,-5,3,-118,-29,14,8,3.640127323
13.576236,34,42,17,48,-36,-88,-16,49,3.640127323
13.578621,-21,-82,-23,-21,111,98,-7,-6,3.640127323
13.578633,4,28,12,-40,-46,24,41,-33,3.640127323
13.598823,15,-9,-27,19,118,-47,-45,-21,3.640127323
13.599119,-4,6,2,-5,-87,-30,-23,-27,3.640127323
13.599538,-33,94,21,43,83,115,27,74,3.640127323
13.599574,32,-86,-26,-14,-48,-43,11,-27,3.640127323
13.613057,43,-38,-5,-16,-19,40,-15,-14,3.640127323
13.613090,-40,-24,-4,-27,-35,43,-14,-31,3.640127323
13.613782,30,48,13,-3,-34,-50,4,67,3.640127323
13.613798,-81,-4,3,4,41,12,-23,-94,3.640127323
13.636245,-40,-21,-6,-8,-27,-32,-48,9,3.640127323
13.636263,-1,-24,0,-1,-13,6,24,89,3.640127323
13.638168,91,-26,-17,46,60,3,28,-35,3.640127323
13.638181,-76,6,11,14,2,-61,28,-20,3.640127323
13.658683,55,15,12,-10,-70,-94,21,12,3.640127323
13.658708,-40,-36,-15,-70,105,124,-52,-64,3.640127323
13.659410,20,26,-3,16,10,-96,30,31,3.640127323
13.659449,20,95,5,40,83,34,-2,30,3.640127323
13.672943,113,-79,-5,-6,-53,-106,10,-11,3.640127323
13.672961,-9,-20,-1,7,-55,7,0,-7,3.640127323
13.673913,-12,24,6,-37,-128,-68,-13,18,3.640127323
13.673932,4,3,-1,0,81,-31,0,56,3.640127323
13.696196,-15,44,3,-7,14,39,-10,6,3.640127323
13.696214,0,-10,-10,-7,28,-41,-1,-53,3.640127323
13.697602,-23,-12,2,-4,-58,4,-39,-3,3.640127323
13.697613,-13,4,4,-1,-35,19,38,22,3.640127323
13.720785,50,110,38,7,52,51,7,10,3.640127323
13.720792,124,-104,-47,22,-66,-50,-22,51,3.640127323
13.720795,6,28,12,12,113,12,40,10,3.640127323
13.720798,-29,-24,-9,-32,24,36,-32,63,3.640127323
13.732872,-71,46,17,-8,62,5,-29,2,3.640127323
13.732896,40,26,4,30,-12,34,42,-5,3.640127323
13.743101,-6,-7,-2,-20,-32,6,15,-55,3.640127323
13.743113,43,46,14,12,88,-93,30,21,3.640127323
13.756439,-27,-80,-34,-16,-101,-16,-36,-25,3.640127323
13.756474,34,57,11,6,42,60,50,-68,3.640127323
13.758825,-45,-58,-4,-31,-69,88,-13,-24,3.640127323
13.758838,43,0,1,4,-128,-44,8,-28,3.640127323
13.778720,14,24,-4,-13,26,-59,-16,-23,3.640127323
13.778737,17,-36,-7,16,9,-9,12,-14,3.640127323
13.780455,57,39,6,-10,-37,-23,-35,31,3.640127323
13.780476,-43,-20,-5,-11,-56,-54,-6,-34,3.640127323
13.792516,11,3,-1,0,-29,117,21,101,3.640127323
13.792535,-38,-5,-7,5,-69,1,-10,17,3.640127323
13.803470,-1,9,0,-9,105,-2,-3,19,3.640127323
13.803478,0,-10,0,65,31,-21,24,106,3.640127323
13.816540,-1,-13,2,-26,-27,-59,-97,-85,3.608012636
13.816553,-60,31,5,-85,-37,45,91,8,3.608012636
13.818118,-19,-45,-13,12,-72,34,-17,23,3.608012636
13.818134,66,42,2,-47,-70,-41,17,-45,3.608012636
13.839591,104,11,-17,91,61,86,-38,19,3.608012636
13.839619,-12,9,7,23,13,-88,-22,29,3.608012636
13.841651,-5,58,18,15,13,-8,16,33,3.608012636
13.841664,84,-24,-14,-15,-12,-10,-7,-57,3.608012636
13.852564,-116,-13,-4,-27,-31,47,-19,29,3.608012636
13.852595,47,-7,-3,7,47,-25,-10,-22,3.608012636
13.861841,-29,21,3,6,-13,-7,9,19,3.608012636
13.861855,-29,-3,0,-2,5,49,-3,20,3.608012636
13.876384,-10,25,5,-5,-43,-2,49,8,3.608012636
13.876395,-36,-26,-4,8,127,4,-18,1,3.608012636
13.877608,-18,-13,-2,-15,-10,-66,-30,7,3.608012636
13.877648,-37,-25,-3,-8,24,78,-8,-42,3.608012636
13.898751,-3,-22,3,21,86,-37,48,0,3.608012636
13.898775,-44,50,-4,-54,-45,79,-73,-35,3.608012636
13.900894,23,-81,-22,17,88,-42,16,63,3.608012636
13.900906,-64,-45,-6,-16,127,19,-33,-74,3.608012636
13.912583,80,14,1,-11,-22,35,33,28,3.608012636
13.914742,-103,9,21,17,-53,-61,24,-2,3.608012636
13.921274,57,-25,-10,30,-28,75,20,-57,3.608012636
13.921289,-30,5,4,-30,-101,-53,-36,36,3.608012636
13.936426,-43,4,-9,-3,-66,-72,-19,-57,3.608012636
13.936443,5,-2,3,8,36,-4,-11,18,3.608012636
13.938729,-12,33,3,-42,-76,-13,-6,-74,3.608012636
13.938747,32,21,8,38,9,25,32,49,3.608012636
13.958871,-16,-2,2,17,3,14,11,-27,3.608012636
13.958889,47,6,-3,-29,-96,-14,8,4,3.608012636
13.961457,-15,1,8,70,62,-72,0,-28,3.608012636
13.961473,11,-4,-12,-36,5,86,10,1,3.608012636
13.972475,-26,-4,3,35,64,-65,4,10,3.608012636
13.972501,71,56,-5,-75,101,38,-61,-6,3.608012636
13.981422,-18,-43,6,36,127,127,49,85,3.608012636
13.981428,79,-7,-4,11,-98,-100,-39,-76,3.608012636
13.996781,-7,-6,-8,-31,44,-12,47,4,3.608012636
13.996818,22,8,3,62,22,11,20,36,3.608012636
13.999033,-96,68,27,-2,-5,-6,10,-25,3.608012636
13.999039,27,-25,-27,-14,-17,38,-20,23,3.608012636
14.018738,-12,13,1,-35,-127,-38,9,-2,3.608012636
14.018749,-28,-25,0,17,14,-5,-61,-70,3.608012636
14.020074,-50,16,-1,-26,-49,6,-4,58,3.608012636
14.020112,-54,-5,9,40,40,21,27,2,3.608012636
14.032583,-22,-11,-1,-11,-31,18,-9,-34,3.608012636
14.032590,-39,-17,-11,-12,-14,-29,3,-10,3.608012636
14.042437,77,-15,-5,3,-107,17,6,3,3.608012636
14.042449,-82,-74,-3,8,-54,-82,-27,-7,3.608012636
14.056390,103,-6,-15,2,-4,-97,2,0,3.608012636
14.056418,10,-8,-15,-8,115,88,-18,-8,3.608012636
14.058586,70,30,11,-13,-82,-104,11,10,3.608012636
14.058598,-52,41,-2,-20,16,-29,-35,15,3.608012636
14.078839,-41,-11,-4,9,42,81,-6,-27,3.529041880
14.078851,-7,-1,12,22,-44,-62,42,-2,3.529041880
14.080134,94,36,-8,-22,-13,-39,-29,-33,3.529041880
14.080154,-40,-24,0,4,32,45,14,-60,3.529041880
14.092449,17,3,1,-4,-51,18,-24,14,3.529041880
14.093855,-16,-3,2,16,11,13,30,26,3.529041880
14.102586,-5,5,0,-22,16,13,-24,60,3.529041880
14.102593,33,63,9,8,28,0,1,-21,3.529041880
14.116899,-75,-72,-2,-3,-7,20,-9,3,3.529041880
14.116931,121,-46,-19,-62,-74,-33,13,-45,3.529041880
14.122696,-102,5,6,79,45,-85,-22,-3,3.529041880
14.122720,-17,-14,-5,-3,-4,72,45,19,3.529041880
14.139523,108,41,1,-13,29,-37,21,29,3.529041880
14.139541,-28,-9,-3,1,-39,74,16,1,3.529041880
14.141813,-10,-21,-10,-41,52,35,-10,-24,3.529041880
14.141825,-25,25,6,9,-53,-91,-4,29,3.529041880
14.152750,-22,11,10,11,114,91,22,-4,3.529041880
14.152781,-22,-14,3,38,-11,-117,22,4,3.529041880
14.163657,39,16,-7,-23,-75,5,-14,-19,3.529041880
14.163668,68,24,8,-1,113,76,2,11,3.529041880
14.176097,57,-41,-29,-48,-109,-23,-30,-13,3.529041880
14.176114,7,13,4,20,14,-21,-4,-20,3.529041880
14.177989,-6,-31,-14,-50,-16,12,6,28,3.529041880
14.178016,20,9,8,18,-12,-9,3,-15,3.529041880
14.198814,7,58,20,32,-27,-17,8,16,3.529041880
14.200307,-15,41,13,19,67,33,-8,15,3.529041880
14.200317,-82,-70,-25,-49,14,-93,-31,-90,3.529041880
14.200323,100,30,-4,25,48,-44,-52,7,3.529041880
14.212393,9,-49,-9,1,76,85,24,10,3.529041880
14.212411,-7,23,-3,-14,28,-45,86,46,3.529041880
14.221179,-53,31,8,-2,-97,-18,-15,-5,3.529041880
14.221215,24,-31,-3,11,-84,-42,-12,13,3.529041880
14.236472,-13,34,18,3,40,17,13,19,3.529041880
14.236489,122,49,19,16,-19,13,-52,66,3.529041880
14.237618,121,-85,-42,-16,-59,-39,-33,-86,3.529041880
14.237626,-14,22,6,1,1,51,19,-27,3.529041880
14.258785,-41,9,1,2,-31,-17,-30,21,3.529041880
14.258802,-50,-16,-1,-7,-1,11,14,16,3.529041880
14.260421,-56,53,24,47,73,46,11,-2,3.529041880
14.260432,-6,-22,-10,-4,37,21,19,41,3.529041880
14.272984,17,13,-2,0,-94,9,20,-4,3.529041880
14.273009,-48,-20,4,25,94,-79,-29,-62,3.529041880
14.283347,16,16,-1,20,82,93,-41,13,3.529041880
14.283354,-16,-5,-15,-71,-31,72,-4,-8,3.529041880
14.297881,-84,-50,0,-5,17,23,28,-20,3.529041880
14.297893,17,-11,-8,21,-29,-15,6,20,3.529041880
14.297896,-21,14,12,13,-60,-30,45,11,3.529041880
14.297899,-4,-1,5,17,48,58,21,46,3.529041880
14.318956,-18,104,21,-24,-38,-66,-5,28,3.529041880
14.318987,96,-117,-47,-42,-53,1,-71,-58,3.529041880
14.320481,45,19,5,10,14,31,-24,-5,3.529041880
14.320486,-54,23,9,-12,-17,-27,18,38,3.529041880
14.332540,-4,23,5,21,-21,-19,-9,55,3.498968724
14.332563,-58,-1,5,-5,4,12,3,-4,3.498968724
14.342935,-8,-12,-9,13,-12,-25,-3,-47,3.498968724
14.342947,46,17,22,22,70,-108,48,-44,3.498968724
14.356577,52,11,-7,-29,-59,57,-36,-10,3.498968724
14.356615,28,-50,-29,-23,-54,-41,-34,-55,3.498968724
14.359079,-20,-66,-15,-16,59,31,54,6,3.498968724
14.359092,-10,17,12,6,-65,-32,-4,36,3.498968724
14.378836,40,-17,-8,31,-6,-76,-36,-23,3.498968724
14.378854,-75,43,13,0,75,108,77,69,3.498968724
14.380313,-45,61,21,-14,-83,-9,-4,30,3.498968724
14.380333,37,-56,-21,-20,5,30,-19,-18,3.498968724
14.392406,49,-29,-14,0,16,-14,0,-7,3.498968724
14.392420,-4,15,4,2,-76,-45,-36,79,3.498968724
14.402494,40,10,9,4,21,-4,3,-4,3.498968724
14.402499,-75,-6,-4,6,-1,51,14,31,3.498968724
14.416456,-7,5,3,-49,-109,-56,11,-15,3.498968724
14.416490,-28,6,3,34,85,-24,-25,-31,3.498968724
14.418047,3,3,12,44,-66,70,78,-2,3.498968724
14.418053,15,21,-17,-44,84,-100,-60,10,3.498968724
14.439699,-55,-53,-2,-33,-43,124,-16,-25,3.498968724
14.439712,15,18,-11,36,48,-30,-32,-15,3.498968724
14.440320,-9,-96,-14,-84,41,-60,-25,-17,3.498968724
14.440336,9,15,-3,62,49,24,-25,-28,3.498968724
14.461287,31,12,10,29,7,-106,8,10,3.498968724
14.461307,22,27,13,-12,13,2,18,-2,3.498968724
14.462719,-62,61,11,7,-127,17,-19,44,3.498968724
14.462729,65,-52,-17,-9,-33,15,16,-42,3.498968724
14.476132,-81,-10,-5,3,100,19,-12,-21,3.498968724
14.476150,45,12,8,-1,-79,13,11,39,3.498968724
14.477989,-21,17,1,1,-25,-14,-8,13,3.498968724
14.478005,-41,-10,2,5,28,14,13,-15,3.498968724
14.499213,23,22,2,8,50,-24,33,21,3.498968724
14.499244,-49,39,14,-11,-105,-8,22,-31,3.498968724
14.501301,91,-59,-23,17,12,-8,-87,-32,3.498968724
14.501320,12,8,6,-53,-128,-113,36,52,3.498968724
14.521723,-25,-26,-19,-30,-41,29,-28,-72,3.498968724
14.521746,87,62,1,6,63,69,1,22,3.498968724
14.524919,20,-34,-6,26,108,2,2,-3,3.498968724
14.524970,21,-25,0,-2,29,-13,-12,-25,3.498968724
14.536132,5,28,3,35,82,15,-18,59,3.498968724
14.536149,-113,-44,1,-25,-97,2,9,-22,3.498968724
14.539293,43,59,12,1,6,16,51,58,3.498968724
14.539309,-14,-75,-25,-12,-16,20,-33,-55,3.498968724
14.558738,11,1,4,4,18,-38,22,-51,3.498968724
14.558755,-46,-28,-2,-7,4,21,0,-18,3.498968724
14.560357,-18,5,0,3,3,-11,8,12,3.498968724
14.560367,-41,43,13,6,-9,27,8,-10,3.498968724
14.581759,43,35,15,5,27,-23,27,36,3.479409681
14.581791,-18,-70,-9,53,97,-117,-46,-78,3.479409681
14.584053,127,24,-19,-21,54,60,-8,5,3.479409681
14.584060,-46,-27,-1,-21,11,31,-47,-62,3.479409681
14.596364,24,-21,-9,17,-83,-21,-7,-8,3.479409681
14.596394,0,35,18,56,87,99,15,38,3.479409681
14.599637,-21,-9,2,18,-79,-115,37,-6,3.479409681
14.599649,-16,19,6,9,21,-26,15,0,3.479409681
14.618900,-3,1,2,12,-53,35,-1,53,3.479409681
14.618931,-32,-77,-7,-54,-59,43,-18,-28,3.479409681
14.620674,-50,14,9,-19,-53,-3,-32,-38,3.479409681
14.620687,30,63,17,24,-29,51,14,71,3.479409681
14.641233,39,-22,-18,-15,-5,-36,-34,34,3.479409681
14.641250,69,-7,-18,-25,-57,-52,7,9,3.479409681
14.642776,-14,15,2,-7,20,100,17,-54,3.479409681
14.642876,-35,34,16,14,-24,2,17,21,3.479409681
14.656882,-61,5,-6,-14,58,-55,-25,-39,3.479409681
14.656900,57,6,-4,-68,-128,-10,10,42,3.479409681
14.662551,-27,-12,4,71,113,-84,-20,-18,3.479409681
14.662569,13,4,-4,3,-29,11,-39,8,3.479409681
14.678727,-42,6,10,42,-24,-45,48,3,3.479409681
14.679716,14,10,-6,-36,86,14,12,12,3.479409681
14.680289,0,-2,-8,-51,48,63,-7,22,3.479409681
14.680320,8,-3,-2,3,-17,24,53,-20,3.479409681
14.701784,31,-3,3,-6,-98,-3,-5,45,3.479409681
14.703870,-22,-4,2,58,68,26,7,6,3.479409681
14.703880,57,26,9,-5,-124,32,-6,10,3.479409681
14.703883,-60,14,-1,1,-12,-11,2,-7,3.479409681
14.715563,56,-106,-32,-23,-41,4,-17,25,3.479409681
14.715581,-88,1,3,-8,-53,-29,8,107,3.479409681
14.722532,23,13,-8,-10,15,-4,-17,-40,3.479409681
14.722552,13,20,7,-36,-128,11,-8,17,3.479409681
14.738824,-24,-10,1,35,113,-23,3,-46,3.479409681
14.738849,68,22,11,24,5,20,8,-10,3.479409681
14.740480,-4,11,6,2,51,-71,17,27,3.479409681
14.740573,-1,-13,-2,11,-67,-67,-47,2,3.479409681
14.762269,-36,12,-5,-67,13,76,4,-51,3.479409681
14.762295,-24,-2,-17,-17,-57,113,-5,-23,3.479409681
14.764352,-30,-21,-6,-16,104,-96,66,23,3.479409681
14.764363,16,3,9,-15,-51,-42,-24,-4,3.479409681
14.775677,-42,1,-4,-16,20,89,-2,3,3.479409681
14.775696,105,86,18,75,-49,-24,-13,18,3.479409681
14.782284,-59,-90,-31,-49,-123,14,-35,-47,3.479409681
14.782301,43,-37,-15,3,8,29,-19,26,3.479409681
14.798753,48,32,11,-5,29,-17,-2,35,3.479409681
14.798770,-28,20,11,-17,-40,-40,12,-6,3.479409681
14.800324,30,8,5,22,-37,14,4,7,3.479409681
14.800370,31,32,-1,-3,76,8,12,-26,3.479409681
14.821601,89,-16,1,16,-30,-6,5,-30,3.479409681
14.821632,-118,-67,-6,-28,-23,-6,30,-40,3.479409681
14.824216,66,-6,5,51,26,-39,-7,40,3.479409681
14.824229,26,-20,-13,1,15,35,-30,-34,3.479409681
14.835494,18,50,14,-36,93,-86,90,27,3.410497861
14.835516,-62,36,2,-23,-91,40,-17,4,3.410497861
14.842469,68,-87,-39,-36,-62,-9,-65,-50,3.410497861
14.842487,42,23,6,-16,-70,-101,22,18,3.410497861
14.858694,-29,18,6,74,97,60,4,27,3.410497861
14.858712,-58,-11,-6,-22,-59,-62,47,-44,3.410497861
14.860308,-16,61,26,17,-70,15,37,91,3.410497861
14.860363,16,-19,-3,10,11,24,-3,16,3.410497861
14.881658,-19,-4,-9,-25,-71,3,-36,-53,3.410497861
14.881690,66,-9,0,9,70,-57,-14,9,3.410497861
14.882742,-40,18,5,-11,-10,22,-18,-29,3.410497861
14.882746,20,-20,-9,-1,29,-11,16,-6,3.410497861
14.895908,-49,-5,2,4,0,-3,6,-12,3.410497861
14.895934,41,4,-5,7,-76,-37,-34,-8,3.410497861
14.902592,-15,33,17,2,78,-75,43,41,3.410497861
14.902739,42,-49,-19,-46,118,82,20,-1,3.410497861
14.919264,-93,-27,-9,66,22,-42,-68,-35,3.410497861
14.919272,6,-15,-7,-27,-21,-31,30,-3,3.410497861
14.920147,-45,39,8,-8,-73,-42,-43,20,3.410497861
14.920155,-72,18,4,-22,-70,96,-2,-16,3.410497861
14.941389,-32,33,19,-5,-67,-49,1,54,3.410497861
14.941407,127,-86,-35,23,35,-23,-84,-50,3.410497861
14.943145,29,69,9,4,86,13,17,-3,3.410497861
14.943154,-77,-16,4,22,53,50,24,28,3.410497861
14.955810,101,-21,-18,-27,-128,69,-10,19,3.410497861
14.955939,-57,29,9,-28,57,-24,-26,-14,3.410497861
14.963863,9,-15,-2,13,-26,16,18,10,3.410497861
14.963903,-37,13,3,10,-1,-23,3,-34,3.410497861
14.980559,1,13,14,15,-85,53,-10,23,3.410497861
14.980569,-4,5,3,-10,100,-52,26,-1,3.410497861
14.980573,-2,-26,-14,0,-49,36,-40,-40,3.410497861
14.980575,-6,-6,9,37,-45,-128,36,-5,3.410497861
15.001521,-39,21,-3,14,39,82,-68,-49,3.410497861
15.001552,-4,-25,-10,-33,-31,73,73,28,3.410497861
15.003034,-90,-19,-3,-14,-29,-57,14,6,3.410497861
15.003040,23,1,1,-2,-50,-8,-2,-12,3.410497861
15.015551,-12,-26,-7,15,18,-63,12,-31,3.410497861
15.015574,-72,32,9,8,-21,50,11,23,3.410497861
15.025661,84,33,-2,0,-10,14,-3,18,3.410497861
15.025707,-41,-52,-11,-18,24,-7,-9,30,3.410497861
15.039421,-6,-17,-7,-17,-73,-8,-7,-57,3.410497861
15.039453,-2,19,22,24,81,-20,9,-32,3.410497861
15.041549,10,-27,-6,-20,43,28,-29,0,3.410497861
15.041563,18,44,8,56,92,-44,-22,17,3.410497861
15.061336,-1,-28,-1,-17,-51,-22,38,8,3.410497861
15.061356,34,-60,-26,-7,98,87,-3,-34,3.410497861
15.062881,34,-15,-1,-3,-35,8,35,59,3.410497861
15.062899,37,54,15,-20,-110,33,33,22,3.410497861
15.074826,-6,28,4,-21,-25,10,32,32,3.410497861
15.074844,-32,2,6,21,44,6,13,-1,3.410497861
15.085047,28,27,-1,-6,19,-33,-43,-14,3.410497861
15.085061,-54,-31,-10,16,11,48,-21,-30,3.410497861
15.099049,72,-40,-8,-1,13,-20,18,-23,3.420155700
15.099073,-4,16,2,7,-52,-10,-15,103,3.420155700
15.100669,27,4,9,11,-2,36,4,-32,3.420155700
15.100674,-82,39,10,11,22,-20,9,-8,3.420155700
15.121398,92,-11,-8,-46,10,-41,-29,2,3.420155700
15.121410,-23,-27,-1,8,-5,-22,-10,-32,3.420155700
15.122896,-69,-8,2,36,-43,-84,-12,-35,3.420155700
15.122921,-2,-6,-8,-19,3,72,-38,37,3.420155700
15.135178,-44,21,1,-4,127,3,-12,-51,3.420155700
15.135192,35,2,-13,-54,-128,-111,-72,8,3.420155700
15.144966,16,16,8,27,85,81,53,7,3.420155700
15.144980,10,-31,-11,-32,89,31,3,-29,3.420155700
15.158970,-49,20,-1,11,34,-16,-4,3,3.420155700
15.158988,-6,-23,-2,4,-20,-36,-33,-10,3.420155700
15.160866,-78,-20,-7,-32,-89,-5,25,-13,3.420155700
15.160887,28,13,-1,12,-68,-21,-13,-24,3.420155700
15.181158,-77,-31,0,12,2,-15,22,31,3.420155700
15.181168,34,-40,-6,-9,35,36,-11,-90,3.420155700
15.182677,93,14,-2,0,-46,23,-5,43,3.420155700
15.182685,3,6,6,29,-1,9,26,49,3.420155700
15.196713,-23,7,10,0,-2,-86,21,31,3.420155700
15.196722,-61,49,13,52,-87,7,5,-5,3.420155700
15.204776,59,-34,-22,-33,-4,60,-45,-36,3.420155700
15.204782,12,-46,-18,-51,-90,-18,-30,-30,3.420155700
15.218928,18,44,7,30,29,65,97,82,3.420155700
15.218960,31,63,4,-1,61,-52,-33,20,3.420155700
15.221122,8,-44,-20,-19,-60,-37,-36,-22,3.420155700
15.221128,32,27,6,0,-11,-63,-1,5,3.420155700
15.242826,-28,-4,-4,-5,-31,-7,-51,-47,3.420155700
15.242839,39,29,8,-2,-11,54,35,25,3.420155700
15.242842,-73,58,27,31,69,16,29,3,3.420155700
15.242844,102,-55,-37,-15,30,-33,-25,-33,3.420155700
15.255534,0,1,1,-19,-93,2,-12,-8,3.420155700
15.255576,29,6,10,15,-71,-5,19,6,3.420155700
15.263991,-84,0,5,-18,39,-25,-16,4,3.420155700
15.264014,4,31,14,-22,-109,-51,-22,-28,3.420155700
15.278707,7,-47,-19,74,123,-44,2,-33,3.420155700
15.278772,22,9,-1,-29,97,-29,-28,22,3.420155700
15.280776,-9,-10,0,51,-30,48,24,-3,3.420155700
15.280783,-8,-5,-7,-52,89,127,-83,-20,3.420155700
15.301795,-19,17,10,-9,41,-76,6,-9,3.420155700
15.301839,9,38,11,-17,32,-2,44,2,3.420155700
15.304403,-20,-94,-36,-13,61,-60,14,-28,3.420155700
15.304419,13,12,7,15,7,-21,11,-6,3.420155700
15.315285,37,3,3,-5,-59,42,-18,12,3.420155700
15.315308,-19,-8,-2,12,-19,-2,-4,5,3.420155700
15.325450,-26,46,23,5,-25,63,21,14,3.420155700
15.325462,-69,-29,2,33,34,-29,32,-11,3.420155700
15.338976,115,6,-12,-39,-107,15,-38,-29,3.420155700
15.339002,7,-40,-3,-10,41,-17,9,66,3.420155700
15.340600,-12,-10,4,34,-87,-105,-5,10,3.420155700
15.340626,-64,5,-1,26,31,48,84,9,3.420155700
15.361508,-93,44,24,50,71,-78,-43,-16,3.463780473
15.361532,41,-55,-35,-86,37,102,-44,-47,3.463780473
15.363930,19,17,-2,-25,-69,-46,-29,14,3.463780473
15.363941,-30,-11,3,-37,-64,-28,35,-3,3.463780473
15.375269,-21,7,5,44,6,127,36,26,3.463780473
15.376952,26,66,31,73,29,-22,49,-9,3.463780473
15.385161,114,-1,-21,-22,-31,-76,-7,19,3.463780473
15.385168,9,4,0,15,-87,-106,-10,43,3.463780473
15.398965,-44,1,3,-47,-45,111,6,-12,3.463780473
15.398976,10,53,9,15,-43,-25,-2,23,3.463780473
15.400212,-19,-55,-21,-18,46,29,-17,-63,3.463780473
15.400223,62,20,2,4,-6,-21,-1,24,3.463780473
15.421441,44,2,-6,-27,17,-42,3,-48,3.463780473
15.421457,-13,13,6,19,-56,-1,-10,56,3.463780473
15.423875,-33,7,13,-7,-33,46,11,-4,3.463780473
15.423895,-14,-22,-9,25,17,-67,6,-27,3.463780473
15.445119,-21,-24,-17,-73,10,31,-17,-3,3.463780473
15.445129,-35,-15,-8,39,-88,39,9,-36,3.463780473
15.445240,-8,14,2,-40,124,68,-23,-4,3.463780473
15.445248,-49,43,10,24,30,115,-12,-2,3.463780473
15.459741,-37,-55,-10,-18,-115,-71,-9,16,3.463780473
15.459802,71,-52,-22,23,33,39,-6,-39,3.463780473
15.460296,2,19,-3,-56,-63,-77,64,24,3.463780473
15.460306,17,20,9,2,-53,-3,2,75,3.463780473
15.481283,-73,42,22,12,-22,1,-11,67,3.463780473
15.481301,7,-28,-14,-18,-11,4,-9,-68,3.463780473
15.483254,-11,-17,-4,19,49,14,-38,-52,3.463780473
15.483259,22,17,5,10,117,5,-4,-38,3.463780473
15.511767,62,2,7,17,44,0,32,33,3.463780473
15.511799,-121,-14,3,-27,-109,-42,10,21,3.463780473
15.512772,71,5,-8,3,3,-21,2,-36,3.463780473
15.512789,-40,-28,-8,-20,-96,-27,-10,-61,3.463780473
15.519192,19,-4,-8,0,-80,-19,3,-27,3.463780473
15.519226,0,21,7,-3,49,50,-36,-42,3.463780473
15.521976,-42,13,12,20,13,127,-7,43,3.463780473
15.522020,34,-21,-11,-20,-55,-52,-1,34,3.463780473
15.541517,63,44,3,15,26,23,-20,12,3.463780473
15.541535,-16,-59,-15,-3,-64,-56,-18,-9,3.463780473
15.542840,-64,33,15,15,42,22,9,0,3.463780473
15.542857,70,-23,-9,4,-67,-14,-3,-19,3.463780473
15.563785,54,9,-7,4,70,-38,4,23,3.463780473
15.563803,-47,-1,-3,-13,14,-32,-23,-2,3.463780473
15.565403,7,40,14,0,14,-23,19,118,3.463780473
15.565451,-13,40,5,19,-37,-7,19,6,3.463780473
15.578154,28,-59,-17,-35,-102,-17,-46,17,3.463780473
15.578182,2,-1,-8,-26,84,46,24,16,3.463780473
15.585032,0,-18,3,48,-60,-11,12,3,3.463780473
15.585049,-10,48,22,38,-1,-99,-6,19,3.463780473
15.601335,15,-10,3,26,118,114,-30,-23,3.463780473
15.601350,14,-4,-3,-49,-105,48,43,4,3.463780473
15.602721,-13,-3,2,4,-62,-91,-17,-18,3.387432612
15.602756,23,37,-7,10,-18,76,19,-8,3.387432612
15.623946,-77,-51,-6,6,-51,-87,-20,-51,3.387432612
15.623971,72,-2,0,20,56,-77,1,41,3.387432612
15.625444,49,25,8,-11,-17,15,14,20,3.387432612
15.625468,-7,-26,-7,-14,47,14,-19,-11,3.387432612
15.638191,-61,31,1,5,25,12,26,-6,3.387432612
15.638214,18,77,17,-3,11,-23,17,59,3.387432612
15.644982,-87,-109,-32,1,21,-37,-64,-88,3.387432612
15.645005,113,-6,-17,8,127,23,-8,50,3.387432612
15.662610,-18,28,-5,-12,-110,-43,2,50,3.387432612
15.662630,-63,-37,15,77,84,-27,87,1,3.387432612
15.662929,-27,22,4,-79,65,124,-61,5,3.387432612
15.662949,39,-17,-13,13,-42,-46,21,-39,3.387432612
15.683840,60,-50,-27,-9,96,-76,-6,-41,3.387432612
15.683864,1,19,12,6,-128,-34,19,3,3.387432612
15.685740,-31,15,1,-5,-25,-38,17,-35,3.387432612
15.685747,-62,-18,1,25,38,104,-13,-29,3.387432612
15.698101,10,18,-4,-40,-60,-87,-1,-6,3.387432612
15.698118,-4,-3,0,5,-23,-4,-16,38,3.387432612
15.705764,-29,-6,-5,5,-3,30,-5,-63,3.387432612
15.705804,57,86,12,-33,-33,-2,-8,-3,3.387432612
15.722199,-10,-40,10,66,-3,48,22,-17,3.387432612
15.722222,96,-16,-15,-29,-32,-91,-61,-99,3.387432612
15.725470,-54,-4,-19,-52,92,72,51,-27,3.387432612
15.725483,20,84,25,-45,-63,77,25,25,3.387432612
15.743814,58,-43,-28,46,84,85,-30,-48,3.387432612
15.743835,46,-28,-11,18,-63,-79,-21,-45,3.387432612
15.745593,68,-9,-6,-19,-45,15,20,-13,3.387432612
15.745611,-22,-7,19,27,-64,-128,58,11,3.387432612
15.758594,-28,43,15,-27,88,117,-48,34,3.387432612
15.758614,-17,-18,-11,-2,35,44,-49,24,3.387432612
15.765036,87,61,13,46,-74,-37,26,87,3.387432612
15.765053,-128,-118,-14,-29,9,16,-12,-1,3.387432612
15.788980,12,8,2,-18,-84,-43,7,-51,3.387432612
15.789006,-47,-9,-10,-2,21,20,6,46,3.387432612
15.790703,15,19,19,13,53,-90,-23,-72,3.387432612
15.790721,9,-12,-9,46,-57,80,12,25,3.387432612
15.803736,21,60,19,-68,-39,-69,3,94,3.387432612
15.803752,-79,-42,0,13,100,108,34,-27,3.387432612
15.805447,-28,-34,-20,14,-128,-53,-34,-7,3.387432612
15.805496,26,-6,3,26,127,-34,-19,8,3.387432612
15.818159,94,51,3,13,-15,14,70,-23,3.387432612
15.818198,-82,7,-1,-37,-14,-39,-5,-42,3.387432612
15.824951,-10,-77,4,17,-45,68,-2,116,3.387432612
15.824977,-11,-2,-2,20,82,8,-5,26,3.387432612
15.841358,-58,25,5,2,-27,-15,-22,-48,3.387432612
15.841376,-46,28,-3,-17,1,-6,-18,-38,3.387432612
15.843272,43,-6,-9,-3,21,13,11,-2,3.387432612
15.843284,-30,0,-4,-37,-32,-7,-25,-36,3.387432612
15.864048,18,-6,4,7,15,35,25,25,3.619585819
15.864059,30,1,-5,-5,-79,-24,-9,-27,3.619585819
15.865249,35,28,0,16,-47,-32,-11,-25,3.619585819
15.865284,-69,-46,3,-51,24,-1,11,19,3.619585819
15.878444,70,-35,-21,-17,-128,12,-1,-46,3.619585819
15.878453,31,29,11,4,49,-83,-7,20,3.619585819
15.885007,-24,-9,1,-35,65,59,16,44,3.619585819
15.885037,-10,47,7,-16,-56,-72,-10,-10,3.619585819
15.901578,76,-34,-11,81,126,-6,19,-5,3.619585819
15.901609,70,5,-8,-12,-52,12,-18,-18,3.619585819
15.903070,-31,9,9,5,-20,-17,14,-15,3.619585819
15.903083,-37,83,14,2,-8,11,-18,-39,3.619585819
15.923974,6,-44,-12,-30,13,-28,-13,-32,3.619585819
15.924010,-9,-11,-2,47,-9,39,14,17,3.619585819
15.926231,35,48,14,-54,-104,-67,-9,-56,3.619585819
15.926243,8,-48,-23,-15,93,37,-29,11,3.619585819
15.937900,-77,11,9,50,48,36,37,43,3.619585819
15.937932,-2,3,4,14,-77,-54,-4,20,3.619585819
15.946345,4,2,5,-9,-64,7,-19,-17,3.619585819
15.946366,-3,-36,-9,-14,-60,-74,20,-19,3.619585819
15.961639,-39,1,-3,-44,16,-66,-56,19,3.619585819
15.961675,89,40,4,12,78,-18,24,24,3.619585819
15.963091,3,-6,5,38,16,-43,-15,-2,3.619585819
15.963114,-8,-39,-14,18,-35,-19,-5,-58,3.619585819
15.984174,48,10,4,-6,-23,13,-5,14,3.619585819
15.984205,18,-2,-4,13,-11,1,-26,-44,3.619585819
15.986260,-3,46,-4,-8,43,14,10,97,3.619585819
15.986267,-5,-1,1,-2,26,51,9,-30,3.619585819
15.997726,51,22,0,-8,-36,-37,-15,-62,3.619585819
15.997750,3,26,11,10,-48,-27,9,15,3.619585819
16.007983,-42,-84,-5,28,12,92,25,3,3.619585819
16.007996,19,-37,-26,20,-35,127,-12,9,3.619585819
16.021428,-89,10,3,-32,-118,-128,-29,5,3.619585819
16.021467,25,26,2,-22,-66,-59,-22,16,3.619585819
16.023041,42,4,-12,-24,67,92,-20,-17,3.619585819
16.023100,9,16,16,20,-27,-100,9,38,3.619585819
16.043889,-46,27,15,12,15,82,34,43,3.619585819
16.043906,-14,-66,-26,-34,19,29,-25,-37,3.619585819
16.046036,44,-3,-11,3,-13,-98,-19,-16,3.619585819
16.046052,-23,-5,-2,-11,14,-7,-5,-46,3.619585819
16.066526,-24,13,10,9,-1,29,14,16,3.619585819
16.066541,-6,23,15,1,31,32,20,106,3.619585819
16.067760,-110,26,12,26,6,-54,4,61,3.619585819
16.067768,57,-103,-21,-13,55,-28,-22,-34,3.619585819
16.081223,-13,5,-13,-78,112,56,-14,-44,3.619585819
16.081266,-92,-6,-13,37,111,-68,-76,12,3.619585819
16.082695,91,11,-1,32,46,-110,22,-7,3.619585819
16.082703,11,32,2,-45,-118,28,-19,24,3.619585819
16.104014,-29,-26,-13,-10,64,40,-22,-53,3.619585819
16.104044,32,17,16,17,-29,127,52,-20,3.619585819
16.106566,0,14,2,-8,-64,-51,4,12,3.619585819
16.106592,-36,18,-2,3,-66,-94,5,-2,3.619585819
16.117799,57,-48,-21,-6,-104,-64,3,-5,3.525368925
16.117831,-77,-10,-3,-25,-31,15,0,-61,3.525368925
16.128073,-58,-1,6,26,34,47,22,37,3.525368925
16.128091,111,75,28,26,13,45,48,23,3.525368925
16.141546,83,-12,-17,10,39,12,-24,72,3.525368925
16.141572,-39,-37,-11,-33,-76,65,14,-38,3.525368925
16.143582,14,-10,-6,-31,-85,38,12,25,3.525368925
16.143598,-17,35,11,17,104,-119,-42,-6,3.525368925
16.163852,35,35,9,2,88,72,52,-2,3.525368925
16.163875,23,-11,10,22,8,-128,-23,4,3.525368925
16.165401,10,3,-19,8,114,77,15,7,3.525368925
16.165437,93,-28,-11,-26,-37,63,11,55,3.525368925
16.177475,-25,-11,13,-13,-124,-39,51,22,3.525368925
16.177494,-28,3,2,7,39,-66,-7,-19,3.525368925
16.187772,6,-20,2,9,69,-14,-13,-75,3.525368925
16.187779,-54,6,0,8,28,39,-5,15,3.525368925
16.201618,-16,-11,-1,14,-25,-24,-7,9,3.525368925
16.201636,51,53,10,-41,-62,49,9,24,3.525368925
16.203454,37,-5,-7,-3,-22,-22,-23,-63,3.525368925
16.203467,2,-16,-14,-3,-23,3,-12,-4,3.525368925
16.223845,-14,11,11,0,-128,-3,-29,0,3.525368925
16.223863,6,-7,4,45,114,4,48,97,3.525368925
16.225471,10,61,25,-23,18,-111,87,66,3.525368925
16.225490,66,-23,-12,14,58,53,15,-56,3.525368925
16.240036,11,-14,-11,47,-9,-66,-30,-42,3.525368925
16.240055,-23,5,-15,-71,49,36,-24,-40,3.525368925
16.246448,9,-1,6,27,78,-28,12,-4,3.525368925
16.246479,-27,7,2,5,24,42,94,42,3.525368925
16.261365,30,7,-10,-6,-5,-88,18,72,3.525368925
16.261386,18,-1,2,-17,-128,42,1,-49,3.525368925
16.262878,-8,-15,-7,-1,24,-69,-52,13,3.525368925
16.262897,10,-14,-9,-14,-26,-47,-59,-24,3.525368925
16.285720,-40,-6,5,24,31,95,-15,-6,3.525368925
16.285729,13,-24,-8,-12,-44,-42,-8,47,3.525368925
16.285733,-43,16,7,-6,-50,41,9,-2,3.525368925
16.285735,-64,-3,1,4,-11,-8,-10,-2,3.525368925
16.297533,51,21,5,0,12,-16,9,-33,3.525368925
16.297551,23,-11,-8,8,63,-13,3,-10,3.525368925
16.308795,22,10,6,-3,-121,-30,10,17,3.525368925
16.308808,-14,-26,-14,4,94,52,-102,-23,3.525368925
16.322196,-2,-19,-5,-108,-32,6,63,-29,3.525368925
16.322213,22,26,13,74,125,45,53,-22,3.525368925
16.324790,-16,-14,-9,78,74,83,-17,-17,3.525368925
16.324804,14,8,0,-14,-128,-122,-4,-68,3.525368925
16.344090,-128,-20,-3,-7,73,30,-32,53,3.525368925
16.344123,-23,38,5,-11,-66,-26,-7,40,3.525368925
16.347037,-10,-55,-25,-63,-115,-5,-30,-45,3.525368925
16.347054,-4,2,6,1,-47,-44,-15,47,3.525368925
16.366522,67,34,2,28,-4,-2,-5,10,3.525368925
16.366567,-112,-57,-2,-11,-33,7,6,-69,3.525368925
16.367893,118,-7,-5,20,38,-5,-19,-6,3.525368925
16.367909,-23,31,8,-21,-72,-26,9,-8,3.525368925
16.381353,-56,-6,2,0,-78,12,14,-3,3.634584091
16.381371,41,6,-3,-26,-56,-17,3,89,3.634584091
16.382804,-29,25,-4,-41,-2,23,-53,61,3.634584091
16.382862,-97,-53,1,2,-96,-29,51,3,3.634584091
16.403884,36,26,-3,27,93,109,-4,13,3.634584091
16.403907,-23,-76,-9,10,12,-26,-24,-35,3.634584091
16.406188,6,44,-5,-21,-98,-19,55,-49,3.634584091
16.406203,14,-41,0,32,84,-14,6,60,3.634584091
16.426496,-6,19,-2,-4,-52,-128,-29,-49,3.634584091
16.426517,18,18,2,-24,48,-1,-3,-18,3.634584091
16.427872,-27,12,-7,-14,2,-57,-24,-27,3.634584091
16.427929,26,10,-3,4,33,73,13,-33,3.634584091
16.441451,-41,6,11,10,-3,-4,23,12,3.634584091
16.441540,27,-36,-7,35,37,1,-12,-9,3.634584091
16.442887,7,2,13,-9,-102,-36,16,78,3.634584091
16.442975,-11,30,7,-24,127,44,24,-51,3.634584091
16.463946,-38,-53,-11,42,-91,48,-41,4,3.634584091
16.463964,-22,10,-8,-53,-64,24,4,7,3.634584091
16.466367,-49,-29,-3,27,119,111,6,-22,3.634584091
16.466373,26,16,2,8,-128,12,34,64,3.634584091
16.488149,57,60,-2,-25,69,-3,10,57,3.634584091
16.488161,-27,-51,-20,7,12,76,-27,-39,3.634584091
16.488165,10,-6,7,27,34,22,7,-8,3.634584091
16.488167,84,29,9,7,46,14,28,29,3.634584091
16.504430,-35,9,3,0,62,-72,-8,-60,3.634584091
16.504437,-42,3,-4,-11,-88,-28,-17,28,3.634584091
16.504441,34,-14,-3,-13,-28,-15,-3,-43,3.634584091
16.504443,-16,0,-2,10,18,-13,-23,28,3.634584091
16.524188,79,-21,7,11,-14,5,8,-17,3.634584091
16.524262,0,12,7,4,-78,-92,17,12,3.634584091
16.526408,-42,-15,-5,12,47,88,3,-64,3.634584091
16.526447,-27,35,-3,-39,67,-63,-41,8,3.634584091
16.546701,-105,23,23,37,78,-93,-5,56,3.634584091
16.546732,109,-66,-22,73,-10,108,-6,-16,3.634584091
16.548985,62,-53,-42,-88,-41,-56,-38,-64,3.634584091
16.548992,17,11,-1,68,-77,8,20,-2,3.634584091
16.560822,-19,61,37,59,118,68,37,73,3.634584091
16.560841,30,-39,-35,-2,-19,-61,-44,-67,3.634584091
16.567511,-8,37,-7,-53,29,-80,-43,-14,3.634584091
16.567528,-50,45,-2,-31,44,4,-17,-46,3.634584091
16.583762,43,-25,-15,-12,-128,41,7,5,3.634584091
16.583775,33,127,42,-15,-29,0,45,-2,3.634584091
16.590124,-39,-36,10,42,-64,3,0,32,3.634584091
16.590143,-20,-37,-23,-20,27,-33,-34,-45,3.634584091
16.606510,-4,9,9,2,15,-47,23,23,3.634584091
16.606537,-1,17,17,48,-41,-24,6,38,3.634584091
16.608304,-5,-23,-12,-57,-65,105,12,-57,3.634584091
16.608340,7,3,19,-22,56,9,-43,56,3.634584091
16.620909,-42,-12,5,-45,-128,83,22,18,3.634584091
16.620936,17,54,-5,13,127,-59,31,12,3.634584091
16.627686,-71,-68,-3,101,21,-98,-32,-8,3.598431409
16.627710,92,9,0,7,-32,82,24,35,3.598431409
16.644347,-4,-30,-21,-25,-115,-13,-19,-53,3.598431409
16.644358,6,13,-7,-109,-51,31,-26,-5,3.598431409
16.645428,-4,111,42,72,35,-20,50,127,3.598431409
16.645444,53,-61,-14,1,-1,-26,-23,-69,3.598431409
16.666508,-3,-41,-19,-19,10,-21,-7,29,3.598431409
16.666526,60,106,31,27,43,-2,6,30,3.598431409
16.667788,13,-58,-30,-8,27,-33,-10,12,3.598431409
16.667802,-97,31,11,9,-36,32,0,13,3.598431409
16.680933,-57,54,-4,-33,61,-2,-27,-49,3.598431409
16.680956,70,-54,1,79,2,-12,-7,57,3.598431409
16.687811,-21,29,-1,-101,-55,107,47,-24,3.598431409
16.687831,19,-60,-11,111,97,66,-12,10,3.598431409
16.705548,-40,25,15,11,-15,94,23,70,3.598431409
16.705562,-78,-3,7,-2,45,-24,66,-46,3.598431409
16.705565,96,-8,-21,-19,86,45,-103,-53,3.598431409
16.705567,-47,36,9,-24,-107,-121,14,21,3.598431409
16.726348,6,-19,-9,1,-8,-36,-31,-65,3.598431409
16.726368,-31,29,16,-2,-35,45,4,-43,3.598431409
16.728229,90,54,19,16,-14,-15,21,-18,3.598431409
16.728286,-76,-84,-20,-38,-7,-18,-14,-25,3.598431409
16.740832,89,-18,-4,21,23,-4,-13,-18,3.598431409
16.740856,6,-10,-6,-24,-56,-20,-40,-2,3.598431409
16.747686,55,55,11,-1,33,-30,14,47,3.598431409
16.747709,99,-19,-11,5,-50,-5,-16,-32,3.598431409
16.764068,32,25,5,11,-65,-49,15,-21,3.598431409
16.764093,-18,-27,-16,-14,-103,47,-10,16,3.598431409
16.766463,-112,56,18,-6,119,116,45,0,3.598431409
16.766481,-57,28,4,-4,14,-10,-21,51,3.598431409
16.786715,29,-78,-43,-30,-38,83,26,-32,3.598431409
16.786741,-30,23,10,6,-27,-32,-7,-4,3.598431409
16.788096,-25,-5,11,26,2,-35,20,20,3.598431409
16.788120,-42,17,-1,-22,-101,-64,-15,-6,3.598431409
16.800819,-10,16,2,-7,50,-50,-22,-45,3.598431409
16.800864,-19,-21,-12,-10,60,20,-23,-54,3.598431409
16.807759,78,35,6,4,-75,-10,13,56,3.598431409
16.807777,11,30,22,5,3,26,19,14,3.598431409
16.824165,73,-72,-23,48,2,-20,-13,-41,3.598431409
16.824192,9,-43,-10,-42,30,19,9,-68,3.598431409
16.825777,-30,9,0,4,-99,-42,-32,5,3.598431409
16.825789,6,-1,-10,-4,110,-27,19,-48,3.598431409
16.846612,-11,73,25,-76,-106,-72,44,41,3.598431409
16.846636,52,58,27,96,89,18,15,110,3.598431409
16.847904,-35,-93,-38,-8,-97,54,-18,-73,3.598431409
16.847919,1,45,-22,-1,20,-31,-8,-13,3.598431409
16.860117,-67,5,-1,-56,127,41,34,-17,3.598431409
16.860139,12,7,-3,-23,47,-4,-67,11,3.598431409
16.871075,-39,-6,11,8,-10,-24,28,24,3.598431409
16.871081,9,-22,-2,-13,-112,-14,-8,1,3.598431409
16.884176,25,-8,-1,11,-39,-26,-34,78,3.634151448
16.884207,-22,-21,-10,-7,28,6,0,7,3.634151448
16.885394,-3,12,11,11,-11,-12,-19,47,3.634151448
16.885399,48,28,-2,10,80,52,6,-62,3.634151448
16.906348,-75,-29,-16,-16,-87,-25,-10,-13,3.634151448
16.906365,2,9,-5,7,-79,-50,-14,25,3.634151448
16.907889,-20,-18,-18,2,99,19,6,-111,3.634151448
16.907907,81,89,37,-3,-89,-19,69,-14,3.634151448
16.922415,-92,-34,12,94,106,-75,-86,-39,3.634151448
16.922428,45,-41,-24,-42,-85,73,54,-25,3.634151448
16.929305,-48,16,16,14,-59,-89,9,64,3.634151448
16.929313,-49,-44,-28,-85,-98,34,-43,-33,3.634151448
16.944031,19,16,1,46,124,15,15,-10,3.634151448
16.944052,-18,89,13,-14,-29,-67,-35,14,3.634151448
16.945460,1,-85,-24,-14,118,-17,-9,-81,3.634151448
16.945569,-59,-17,6,-4,-53,34,10,81,3.634151448
16.967965,7,5,-2,-16,-81,19,-15,-12,3.634151448
16.967984,-15,2,-1,42,60,-10,-1,-4,3.634151448
16.967991,23,42,16,-5,23,14,21,-4,3.634151448
16.967996,29,-33,2,48,122,7,-5,7,3.634151448
16.980167,-44,25,-5,-22,111,-75,-59,9,3.634151448
16.980186,89,25,-2,-54,-49,11,59,-10,3.634151448
16.990657,-61,-64,-20,39,-26,81,-80,2,3.634151448
16.990673,8,-23,-5,1,99,121,-42,30,3.634151448
17.004733,35,22,11,4,10,-108,51,15,3.634151448
17.004754,-49,-11,-4,-3,30,122,-16,-27,3.634151448
17.007509,15,12,9,-2,-117,-19,37,16,3.634151448
17.007527,30,33,-7,-9,11,-54,-56,-32,3.634151448
17.026448,-66,-65,-7,1,-75,53,0,-19,3.634151448
17.028116,32,-50,-19,-23,-9,-59,-12,-7,3.634151448
17.028129,21,9,0,-23,-15,-36,8,-13,3.634151448
17.028164,-18,11,6,33,2,-3,16,26,3.634151448
17.040219,-10,19,3,-26,-23,21,30,-6,3.634151448
17.040244,-15,-29,-8,23,-58,-93,-7,-35,3.634151448
17.051292,20,6,8,10,73,-45,0,38,3.634151448
17.051306,-62,50,13,-6,-14,-89,56,-26,3.634151448
17.064184,127,-21,-22,-64,61,-51,-60,-13,3.634151448
17.064215,-117,-72,-18,12,25,81,3,-8,3.634151448
17.065308,-15,67,16,27,-90,-52,27,24,3.634151448
17.065324,-3,-5,0,-16,-26,-113,-8,13,3.634151448
17.086859,52,-24,-5,30,57,75,22,24,3.634151448
17.086891,8,10,6,-29,-72,-73,-35,57,3.634151448
17.088873,-32,-2,0,4,16,-27,-31,-19,3.634151448
17.088884,30,-2,-3,-12,-54,33,-6,-21,3.634151448
17.100205,-67,15,8,5,-74,33,8,-64,3.634151448
17.100222,3,-4,4,9,73,15,13,39,3.634151448
17.109904,-113,26,3,-48,-43,17,16,7,3.634151448
17.109916,47,-34,-8,48,74,-13,13,-35,3.634151448
17.124200,-39,11,7,12,8,40,15,55,3.634151448
17.124216,-49,-8,-13,-30,-34,44,-18,-27,3.634151448
17.125408,30,22,6,-32,-79,39,17,18,3.634151448
17.125427,-19,-14,-2,-43,-9,-37,-14,-5,3.634151448
17.146802,14,7,0,79,56,97,-7,-13,3.557190672
17.146826,16,25,11,-19,-39,-47,17,1,3.557190672
17.148708,-34,18,10,34,-3,-19,15,35,3.557190672
17.148714,85,-29,-21,-12,-31,62,14,-2,3.557190672
17.160301,-55,-73,-26,-34,-87,-89,-45,-75,3.557190672
17.160319,-16,22,15,1,-5,-5,17,16,3.557190672
17.177749,27,6,-3,-4,21,-15,-17,-62,3.557190672
17.177765,-40,5,9,10,13,43,0,4,3.557190672
17.184399,41,51,15,7,2,13,20,37,3.557190672
17.184446,-42,26,0,-14,-51,-28,-19,-57,3.557190672
17.186782,7,-98,-21,49,1,2,-51,42,3.557190672
17.186791,-115,-20,9,-12,-74,-9,1,43,3.557190672
17.206754,39,-4,-14,-50,17,-3,33,10,3.557190672
17.206791,-39,-15,-5,-19,-33,-39,-2,-1,3.557190672
17.209067,22,21,5,75,11,41,8,0,3.557190672
17.209080,-16,-8,-9,-52,69,38,-92,-31,3.557190672
17.220215,50,33,7,20,-29,80,86,37,3.557190672
17.220259,-58,13,1,7,-17,-52,-26,-30,3.557190672
17.231116,-58,-32,-14,-27,-39,-24,12,58,3.557190672
17.231137,81,-24,-7,10,-30,-41,-10,1,3.557190672
17.244247,-31,13,8,-3,-19,-30,-6,-30,3.557190672
17.244271,61,9,4,19,88,29,-5,95,3.557190672
17.246397,59,11,3,-11,6,4,8,-37,3.557190672
17.246416,-49,17,3,11,40,24,30,-53,3.557190672
17.266541,-7,-3,6,-16,-102,-14,-25,63,3.557190672
17.266557,64,12,-10,36,72,4,3,-7,3.557190672
17.267889,-89,-39,1,-12,-58,-15,-85,-37,3.557190672
17.267907,72,-32,-2,-40,27,105,76,71,3.557190672
17.280151,9,28,4,32,96,-78,-33,-32,3.557190672
17.280166,-31,-29,-12,-7,-94,-49,-4,-57,3.557190672
17.291081,48,27,-7,-57,127,-80,10,22,3.557190672
17.291092,-98,39,5,-1,-107,-91,8,-16,3.557190672
17.304172,-77,-36,1,12,85,27,-1,38,3.557190672
17.304204,93,-18,-8,-19,-54,-2,-19,2,3.557190672
17.307442,10,-7,0,21,93,30,12,-33,3.557190672
17.307460,20,20,10,16,-122,-61,6,25,3.557190672
17.326482,-44,2,-6,-24,67,44,18,-12,3.557190672
17.326501,16,20,10,11,2,-27,-18,-33,3.557190672
17.327900,-61,28,7,-7,-38,18,34,-10,3.557190672
17.327915,78,-96,-22,-7,-61,-2,-18,-14,3.557190672
17.348944,64,7,-5,14,32,4,5,49,3.557190672
17.348962,-25,-21,5,63,75,-25,-25,34,3.557190672
17.350543,30,41,22,-32,59,29,47,-39,3.557190672
17.350563,-43,29,-3,50,-4,93,-32,-2,3.557190672
17.363952,-34,-9,-5,-40,-33,-62,-8,-61,3.557190672
17.363982,-37,-22,-9,-21,29,104,-45,-62,3.557190672
17.365429,-18,7,11,30,-44,-71,77,39,3.557190672
17.365455,-44,-8,-8,13,123,-29,-27,19,3.557190672
17.388132,1,15,9,47,25,-60,0,-13,3.557190672
17.388142,57,-7,-5,-24,-68,23,8,-15,3.557190672
17.388145,-13,-53,-26,-41,-98,3,13,-29,3.557190672
17.388147,-29,21,9,-3,-14,30,31,21,3.557190672
17.409130,-50,23,8,1,-94,-48,-17,10,3.623204692
17.409147,46,-21,-6,-12,53,39,35,-8,3.623204692
17.410597,20,16,0,11,-10,21,-48,84,3.623204692
17.410617,9,41,8,-1,12,-25,9,-64,3.623204692
17.424861,57,-3,-3,2,39,10,0,37,3.623204692
17.426073,-52,10,2,46,61,-56,12,13,3.623204692
17.426083,39,-18,5,-51,-117,78,9,2,3.623204692
17.426086,10,55,0,-9,-75,-118,-40,49,3.623204692
17.445790,62,38,-12,-22,24,127,-77,42,3.623204692
17.445814,-4,-61,0,17,96,-81,104,8,3.623204692
17.456602,120,29,-3,36,24,14,-22,-31,3.623204692
17.456618,-85,-90,-18,-36,59,-29,-16,27,3.623204692
17.469030,-36,-3,2,8,-85,20,-43,-50,3.623204692
17.469088,-52,34,13,-13,31,-30,3,22,3.623204692
17.470361,3,47,8,3,-54,10,5,-7,3.623204692
17.470376,-30,-63,-11,8,67,-10,-21,-21,3.623204692
17.483200,13,-27,-3,-9,-47,-5,29,-12,3.623204692
17.483237,-33,11,3,-10,-32,30,-26,-38,3.623204692
17.490269,-72,-10,-7,6,96,-50,-14,39,3.623204692
17.490300,83,28,6,3,-56,49,15,1,3.623204692
17.506659,31,12,10,7,-32,-37,18,-13,3.623204692
17.506684,-14,16,-3,13,-110,-80,4,-16,3.623204692
17.509119,-18,-33,-3,-37,76,58,-27,5,3.623204692
17.509134,82,-18,-8,18,-14,62,65,28,3.623204692
17.529167,38,-18,-10,11,65,-43,-16,2,3.623204692
17.529177,-32,19,12,-85,-95,35,-24,6,3.623204692
17.530566,110,-20,-3,87,45,-126,-23,55,3.623204692
17.530621,26,51,14,12,-2,55,25,17,3.623204692
17.544921,-29,7,-6,-6,-18,26,-3,-55,3.623204692
17.544930,26,17,12,-3,-104,19,15,73,3.623204692
17.550371,-67,13,-1,-24,102,15,-11,-19,3.623204692
17.550387,-11,43,4,-25,-20,-74,-15,-15,3.623204692
17.566643,23,-38,-18,9,54,11,14,-89,3.623204692
17.566674,-34,29,-2,-8,3,10,1,101,3.623204692
17.568613,-4,-25,-23,-22,-43,30,14,-96,3.623204692
17.568619,48,-22,-3,16,8,-46,-14,12,3.623204692
17.589523,-49,1,8,-32,-54,8,-3,11,3.623204692
17.591560,58,27,9,40,100,4,6,5,3.623204692
17.591574,-72,-30,6,10,-9,44,24,-47,3.623204692
17.591576,70,-15,-18,-50,-24,-79,-27,-10,3.623204692
17.603220,-5,14,3,33,-102,-3,2,23,3.623204692
17.603240,-22,-16,8,17,127,-48,-1,-59,3.623204692
17.610164,-20,57,9,0,-48,74,73,73,3.623204692
17.610187,-30,-32,-12,-6,67,105,28,-43,3.623204692
17.626422,45,-17,5,17,54,-92,-13,32,3.623204692
17.626445,-61,9,1,-28,-128,-16,-13,4,3.623204692
17.628025,40,3,-1,26,-2,4,-59,-44,3.623204692
17.628050,-5,17,14,11,-17,86,13,-34,3.623204692
17.649085,-48,-29,-12,-36,-90,-40,20,-13,3.623204692
17.649104,42,-65,-30,4,12,11,6,-10,3.623204692
17.650905,59,17,3,-37,-93,-65,-29,73,3.602744314
17.650916,-38,5,6,23,-52,33,16,-9,3.602744314
17.663656,-41,51,9,19,-23,-12,-3,64,3.602744314
17.663680,-5,-8,-5,-10,-66,-19,-8,-59,3.602744314
17.670621,63,-48,-16,-27,-86,-30,-34,20,3.602744314
17.670665,78,94,30,-7,-9,-26,34,52,3.602744314
17.687834,-17,-81,-24,31,13,20,-26,-79,3.602744314
17.687843,-52,-17,-22,-51,-43,-53,-18,8,3.602744314
17.687846,60,2,-6,-48,127,-92,10,1,3.602744314
17.687849,-11,18,18,94,-1,-31,2,20,3.602744314
17.708975,16,46,15,15,100,74,56,-18,3.602744314
17.708993,-17,30,-2,-5,-7,-5,-27,13,3.602744314
17.710872,-54,-50,-6,0,-68,-25,13,-36,3.602744314
17.710886,-20,-4,-11,-25,-37,-52,-42,22,3.602744314
17.724151,38,-42,-5,-35,-29,-56,-25,79,3.602744314
17.724180,67,13,10,28,45,85,41,31,3.602744314
17.730645,-20,16,6,19,-3,30,-27,-25,3.602744314
17.730669,-67,-34,-9,-21,-32,-39,-35,-12,3.602744314
17.749565,35,41,4,-19,-26,53,17,-11,3.602744314
17.749575,-71,20,11,47,37,24,8,-14,3.602744314
17.749578,85,-20,-31,-45,101,50,-1,-9,3.602744314
17.749581,-10,-13,-5,-6,4,38,38,-31,3.602744314
17.769592,-36,33,15,11,-31,-78,-45,4,3.602744314
17.769623,-5,-11,1,0,60,102,35,-11,3.602744314
17.771724,-31,39,17,18,-6,-18,-3,-14,3.602744314
17.771730,5,5,5,-11,-53,8,8,2,3.602744314
17.783449,-5,-15,-2,-25,-114,14,11,5,3.602744314
17.783473,-30,-25,-15,17,15,49,-33,14,3.602744314
17.790245,8,14,10,39,36,23,41,35,3.602744314
17.790271,-11,-6,-3,-14,5,-6,-39,38,3.602744314
17.806501,27,-22,-13,-17,0,-45,-16,15,3.602744314
17.806521,16,-4,0,-19,20,27,-20,-47,3.602744314
17.808510,-16,-5,-6,7,-95,28,-23,-36,3.602744314
17.808522,22,33,5,9,83,-66,3,-75,3.602744314
17.829236,-8,-32,-10,-6,46,-55,60,-20,3.602744314
17.829288,-26,-75,-9,-29,-103,69,9,30,3.602744314
17.830667,23,23,-5,3,-69,-91,-11,-27,3.602744314
17.830711,17,10,2,19,121,45,15,-18,3.602744314
17.842755,-20,38,10,2,53,-53,-29,-21,3.602744314
17.842768,1,2,-5,1,20,-128,-8,-27,3.602744314
17.853362,-5,11,19,18,-93,-35,-10,69,3.602744314
17.853369,-73,26,20,24,8,48,62,56,3.602744314
17.866539,73,-5,-29,-24,15,40,-21,-42,3.602744314
17.866556,56,-11,-8,-47,-5,2,-4,47,3.602744314
17.868910,-51,25,7,43,22,4,-11,-50,3.602744314
17.868916,-16,-6,-2,2,-5,-20,-4,12,3.602744314
17.890919,-23,23,3,6,-25,52,-15,23,3.602744314
17.890933,28,28,17,-13,-54,-48,11,67,3.602744314
17.890936,-18,-23,-16,1,74,-92,-16,-23,3.602744314
17.890938,18,45,7,-14,31,29,6,49,3.602744314
17.902959,28,-76,-24,46,-113,-61,-26,-61,3.602744314
17.902983,32,53,-3,-36,46,5,35,-29,3.602744314
17.912154,-62,-29,7,-39,-10,-19,21,32,3.554856206
17.912166,77,-59,-44,-31,98,-35,-80,-45,3.554856206
17.926509,75,40,24,33,-82,-106,74,49,3.554856206
17.926528,8,25,8,7,-37,-70,-23,40,3.554856206
17.928504,-21,33,6,17,-97,44,8,-29,3.554856206
17.928519,-128,-66,1,-2,-24,-18,-11,-78,3.554856206
17.949292,-99,22,12,-15,-1,31,-38,11,3.554856206
17.949309,94,-33,-17,26,34,24,-7,-25,3.554856206
17.951722,29,13,10,-26,2,26,25,22,3.554856206
17.951741,62,74,4,2,-69,14,-12,12,3.554856206
17.962622,32,-49,-22,-62,-4,25,-22,-23,3.554856206
17.963588,16,21,3,34,52,40,9,-44,3.554856206
17.973597,18,-18,-10,35,50,16,-1,86,3.554856206
17.973610,22,20,9,4,53,-91,6,30,3.554856206
17.986901,15,47,12,5,-57,25,12,26,3.554856206
17.986927,-63,-16,-9,-101,-128,42,-51,-41,3.554856206
17.988926,-3,-59,4,97,44,87,15,-50,3.554856206
17.988944,44,-17,-11,-90,-128,-71,69,-11,3.554856206
18.009051,20,50,12,53,127,127,103,18,3.554856206
18.009072,-62,-114,-36,-16,-103,-128,-80,-43,3.554856206
18.010859,68,26,-27,-34,83,53,-43,1,3.554856206
18.010870,-10,10,5,0,-87,-13,-40,-7,3.554856206
18.023452,-35,3,8,-7,-16,15,-15,-4,3.554856206
18.023487,28,59,25,45,31,-8,47,64,3.554856206
18.033628,-10,-12,3,-12,0,3,16,18,3.554856206
18.033663,-8,-22,-9,15,16,18,-14,-9,3.554856206
18.046846,-22,-36,-3,-22,-6,-9,-13,3,3.554856206
18.046859,-9,12,5,36,50,46,-1,-63,3.554856206
18.047950,25,-5,-7,-20,-38,-66,-26,-23,3.554856206
18.047971,17,0,3,-45,-96,-24,15,16,3.554856206
18.069343,-67,15,-3,59,112,84,-93,-18,3.554856206
18.069367,3,-27,8,1,27,-97,84,34,3.554856206
18.071446,62,9,-3,-19,-45,13,0,-10,3.554856206
18.071453,-96,-9,6,15,-69,-18,23,-14,3.554856206
18.082787,55,46,-1,-40,80,-81,-38,-20,3.554856206
18.082804,64,-52,-12,48,-30,73,-18,-11,3.554856206
18.091608,-59,-12,-4,-28,-27,-25,-8,-9,3.554856206
18.091621,-8,-4,1,13,1,1,-27,-15,3.554856206
18.107888,16,17,0,13,15,-81,6,18,3.554856206
18.107901,-19,35,1,-19,25,82,-13,65,3.554856206
18.108219,3,2,-3,-12,-40,-34,-3,-66,3.554856206
18.108231,18,-20,-11,-1,29,47,-1,-20,3.554856206
18.129181,6,4,14,-22,-21,-6,22,6,3.554856206
18.129199,-25,16,4,13,46,-2,-4,-33,3.554856206
18.131435,-54,-9,-5,-18,-42,-6,-7,-81,3.554856206
18.131445,51,24,-4,-5,28,-84,19,-34,3.554856206
18.142673,54,-38,-7,-37,-23,84,27,31,3.554856206
18.142691,31,71,10,86,62,-67,15,-16,3.554856206
18.154078,-50,-44,-13,-93,-128,57,-1,-26,3.554856206
18.154093,69,39,7,35,103,-19,-57,15,3.554856206
18.166945,-114,-76,-12,7,-10,-48,4,-2,3.506675168
18.166970,74,7,-1,-31,-107,-53,37,24,3.506675168
18.169349,55,24,3,18,67,-1,14,-7,3.506675168
18.169366,-48,-39,-1,19,-29,25,3,22,3.506675168
18.189572,-28,12,8,3,-87,6,-6,45,3.506675168
18.189597,-33,-25,-5,-19,9,24,-34,48,3.506675168
18.192162,28,-9,1,5,46,-30,-14,-43,3.506675168
18.192173,-41,0,-1,7,4,64,1,-21,3.506675168
18.202841,-8,10,4,-6,-105,3,-2,-50,3.506675168
18.202868,-13,11,7,4,23,-1,13,-5,3.506675168
18.213000,-1,15,-10,2,-53,-1,10,76,3.506675168
18.213014,-8,-82,-21,-4,-14,63,-9,7,3.506675168
18.226590,79,-13,-15,7,85,29,-70,-85,3.506675168
18.226607,-6,50,17,-39,-90,104,53,50,3.506675168
18.228550,6,31,12,47,86,-29,-20,-2,3.506675168
18.228565,-20,14,2,24,-16,60,55,14,3.506675168
18.248959,-97,-10,0,-31,44,-24,11,5,3.506675168
18.248972,36,-1,-6,22,57,-92,-46,-65,3.506675168
18.250351,0,0,2,18,49,73,3,-5,3.506675168
18.250359,-13,8,3,-13,-51,-69,-37,-42,3.506675168
18.271580,23,0,-10,-14,-21,15,19,49,3.506675168
18.271594,37,14,3,10,-8,-15,30,21,3.506675168
18.274331,-37,1,1,-8,-61,-29,5,-12,3.506675168
18.274344,-26,-55,-6,-7,30,5,-9,-20,3.506675168
18.286419,-28,10,14,17,-24,10,7,-17,3.506675168
18.286436,-46,-32,0,-1,-7,16,-11,68,3.506675168
18.288569,-44,-22,-16,-11,30,-26,7,32,3.506675168
18.288576,-2,6,-2,-11,-8,-24,-22,-1,3.506675168
18.309226,76,55,2,-1,-40,-25,39,14,3.506675168
18.309238,-32,-60,-9,4,90,13,-50,-46,3.506675168
18.310581,23,16,13,20,-32,-19,10,17,3.506675168
18.310595,-20,24,14,-5,-78,-47,-16,53,3.506675168
18.331706,61,39,4,11,116,-47,38,2,3.506675168
18.331735,78,-69,-41,-59,-28,-13,-6,-53,3.506675168
18.333607,2,-31,-9,-9,-103,-36,23,12,3.506675168
18.333614,-1,7,-4,59,-56,-35,12,-2,3.506675168
18.346583,-24,8,6,-2,-107,93,-50,30,3.506675168
18.346607,-23,40,8,-5,-33,31,21,21,3.506675168
18.348272,18,-3,6,12,43,-28,35,44,3.506675168
18.348281,44,33,7,-9,46,50,4,10,3.506675168
18.371941,-18,-44,-4,-6,-66,-42,3,23,3.506675168
18.371957,-10,19,0,4,4,-16,5,-18,3.506675168
18.371963,-10,-11,1,-5,-1,18,-18,-29,3.506675168
18.371969,10,30,4,-10,17,1,13,27,3.506675168
18.391867,-5,5,1,-23,-68,17,-3,-6,3.506675168
18.391885,80,-49,-17,-12,-57,-21,-27,-49,3.506675168
18.393037,25,67,5,31,105,16,-14,14,3.506675168
18.393086,21,-65,5,53,-10,-67,16,-26,3.506675168
18.406159,40,1,0,-5,20,35,-72,29,3.506675168
18.406195,-58,19,-14,-46,-63,98,-21,-23,3.506675168
18.412628,79,24,1,-6,43,-20,-8,17,3.506675168
18.412653,-102,-8,-16,-28,40,50,13,30,3.506675168
18.429075,0,2,11,48,-67,-75,3,-31,3.455578295
18.429103,-41,39,37,21,83,-81,-2,52,3.455578295
18.430563,-2,-10,7,68,49,117,-17,10,3.455578295
18.430595,44,-7,-5,-10,-54,-13,17,32,3.455578295
18.451662,-28,-52,-12,-1,-29,-10,15,34,3.455578295
18.451702,-19,23,6,8,-51,2,-10,-23,3.455578295
18.453020,13,-10,2,-20,-5,-39,-8,-72,3.455578295
18.453036,23,-16,-6,-11,27,26,-15,16,3.455578295
18.466188,-56,-45,-7,0,34,9,17,-32,3.455578295
18.466240,108,38,2,-3,5,-29,-4,-41,3.455578295
18.472700,-48,2,-8,-19,-65,-45,36,13,3.455578295
18.472726,94,-33,-7,-12,-48,108,24,-16,3.455578295
18.489106,28,13,2,-2,-37,-95,54,19,3.455578295
18.489132,-70,12,-12,-25,-48,37,-12,-13,3.455578295
18.491126,9,-25,-8,-32,70,-88,-42,-8,3.455578295
18.491138,-41,31,11,-8,-56,-54,44,5,3.455578295
18.512826,16,6,-4,-17,-49,-54,38,3,3.455578295
18.512840,-29,8,12,66,95,74,3,70,3.455578295
18.513215,-18,-9,-9,-25,-128,-128,-38,-23,3.455578295
18.513231,8,-3,-14,-32,3,10,-23,-18,3.455578295
18.526259,-11,-5,6,12,-39,32,7,-22,3.455578295
18.526284,-4,18,2,-6,-19,-60,6,-30,3.455578295
18.532681,-27,-19,-4,-24,-22,69,-16,-23,3.455578295
18.532732,21,16,7,25,47,2,-14,7,3.455578295
18.548923,45,29,-9,-8,25,12,-21,-24,3.455578295
18.548941,-61,-19,6,-21,-59,-12,10,3,3.455578295
18.551094,-22,-66,-15,44,-18,51,-8,2,3.455578295
18.551108,28,6,-12,-12,71,-60,5,-12,3.455578295
18.572393,81,39,10,15,73,11,-10,13,3.455578295
18.572434,52,-2,-1,-4,-40,-93,57,11,3.455578295
18.575213,-84,22,6,-10,5,48,-25,-19,3.455578295
18.575231,8,36,-8,-22,101,66,7,29,3.455578295
18.586371,-32,-30,-9,-29,-61,-10,15,-55,3.455578295
18.586394,68,41,25,75,63,-24,17,91,3.455578295
18.592688,127,-78,-23,-56,-110,-88,27,44,3.455578295
18.592706,-49,6,2,40,73,24,-40,-6,3.455578295
18.609149,-69,20,-3,-16,72,31,-5,26,3.455578295
18.609166,-25,-16,-2,6,-48,7,2,-10,3.455578295
18.611731,14,43,8,-11,-31,23,1,3,3.455578295
18.611750,23,-6,-5,-14,-37,-8,-22,-18,3.455578295
18.631572,19,-12,1,6,-26,1,3,20,3.455578295
18.632839,-16,-11,-4,-5,-31,-7,-10,-37,3.455578295
18.632913,-20,-15,-3,-10,16,21,-18,4,3.455578295
18.632921,77,24,9,15,7,-84,29,6,3.455578295
18.645960,50,-18,-4,5,-81,-35,-38,-24,3.455578295
18.645980,47,-39,-30,-35,47,77,-91,-22,3.455578295
18.652994,38,47,9,29,-25,-78,10,0,3.455578295
18.653025,-57,49,9,-68,-63,82,-13,92,3.455578295
18.669306,-34,-2,-10,14,-5,-29,9,72,3.455578295
18.669363,-23,-65,-11,-43,-28,-53,-1,29,3.455578295
18.670506,3,32,7,17,-8,30,10,35,3.455578295
18.670522,-33,3,-1,57,42,12,-21,-48,3.455578295
18.691565,-2,29,7,-14,12,-21,-17,-26,3.383038586
18.691584,-44,15,4,-16,-28,50,13,-55,3.383038586
18.693023,37,-7,-3,31,41,-9,0,-12,3.383038586
18.693066,-86,-31,11,7,-37,-5,59,7,3.383038586
18.706292,38,-16,-19,-27,63,43,-45,-36,3.383038586
18.706318,13,-7,-6,19,-61,-128,-17,-10,3.383038586
18.712821,1,12,4,-17,45,19,5,-23,3.383038586
18.712848,5,-26,-2,35,4,-82,-28,-26,3.383038586
18.729104,11,5,12,-21,-71,-92,30,3,3.383038586
18.729118,57,63,2,10,77,127,-32,0,3.383038586
18.730532,-78,-67,3,-42,73,-62,62,6,3.383038586
18.730577,100,-3,-14,8,92,65,-4,-57,3.383038586
18.752173,-68,1,11,48,-81,114,23,48,3.383038586
18.752215,102,-33,-6,3,-111,-128,-20,-28,3.383038586
18.754519,-39,18,-6,1,117,53,17,-22,3.383038586
18.754531,-23,1,4,-23,-45,-25,-14,-18,3.383038586
18.765300,-2,20,3,5,56,7,7,17,3.383038586
18.765324,-1,-24,4,9,19,45,36,12,3.383038586
18.775321,-63,35,-2,2,-52,25,-13,-14,3.383038586
18.775334,-9,27,-3,-12,-65,-33,-7,20,3.383038586
18.791393,-47,-73,-3,3,35,35,8,-29,3.383038586
18.791406,9,52,5,17,47,-22,1,23,3.383038586
18.791409,2,-40,-17,-29,-124,-50,-63,-3,3.383038586
18.791411,-57,-13,-7,-53,-125,-90,-47,-31,3.383038586
18.812405,65,28,10,44,118,-102,-26,41,3.383038586
18.812440,-98,-14,10,-33,89,78,61,2,3.383038586
18.814682,5,7,19,68,43,-58,49,13,3.383038586
18.814695,-45,-6,-5,-36,-98,-66,5,29,3.383038586
18.825334,-18,-9,-16,-48,-80,74,-20,-36,3.383038586
18.825363,-47,35,7,52,65,-107,15,-11,3.383038586
18.841734,121,60,3,-26,-86,-18,-36,74,3.383038586
18.841760,-27,-54,-11,0,-24,49,20,4,3.383038586
18.849240,12,15,4,-2,-9,21,32,-20,3.383038586
18.849264,-73,-4,-1,-11,-24,46,19,38,3.383038586
18.851668,-45,-69,-16,-5,-8,-29,-4,-34,3.383038586
18.851680,67,19,5,20,37,24,7,-27,3.383038586
18.871877,-22,3,-2,-10,-13,-7,-7,-13,3.383038586
18.871900,-26,-25,-18,-3,-13,15,-24,-78,3.383038586
18.873187,-28,20,15,-14,-32,4,6,60,3.383038586
18.873207,9,-22,0,10,-35,-27,-34,4,3.383038586
18.893498,69,24,5,32,70,-7,-20,-13,3.383038586
18.893524,-74,-51,0,34,-80,-92,-9,12,3.383038586
18.895161,6,78,2,-52,93,74,-6,-37,3.383038586
18.895173,-72,-95,-30,-12,-8,84,-27,-14,3.383038586
18.908471,63,-9,-3,-29,-43,0,35,-21,3.383038586
18.908496,127,6,-8,23,43,-91,4,79,3.383038586
18.910186,5,-5,0,10,-71,27,-44,2,3.383038586
18.910194,-52,17,-12,-10,121,29,49,-35,3.383038586
18.930986,-7,17,7,10,-8,-71,0,14,3.417194803
18.931025,-115,-57,-7,-26,-37,32,-19,-29,3.417194803
18.931451,55,-9,3,23,7,36,18,1,3.417194803
18.931487,15,0,17,15,43,-9,-12,22,3.417194803
18.953616,-45,44,-4,-10,39,-29,1,-7,3.417194803
18.953637,127,-8,-5,-12,-38,7,38,-13,3.417194803
18.955559,-29,7,-8,26,112,19,-22,-27,3.417194803
18.955576,64,22,11,14,31,-60,8,-35,3.417194803
18.968463,14,-11,-1,5,-35,-94,-19,24,3.417194803
18.968552,-71,6,-7,-19,-83,123,-52,10,3.417194803
18.970634,-34,24,0,1,87,-43,89,55,3.417194803
18.970646,-5,9,-1,-8,-93,-78,-21,20,3.417194803
18.991192,-14,-16,-10,-31,-73,-27,-8,-36,3.417194803
18.991210,-37,21,4,43,39,-14,-27,-12,3.417194803
18.993102,60,-23,2,-1,-52,34,11,20,3.417194803
18.993115,-100,-12,-4,2,-12,23,1,-7,3.417194803
19.013406,3,1,-8,5,15,45,-11,9,3.417194803
19.013428,78,50,10,-27,-37,-12,22,26,3.417194803
19.014099,-51,12,10,5,11,41,-5,-12,3.417194803
19.014119,127,91,22,23,20,-12,7,19,3.417194803
19.028361,-116,-123,-33,-24,-14,-8,-48,-56,3.417194803
19.028378,13,12,-10,-27,52,-73,35,-14,3.417194803
19.029427,24,21,9,9,-55,-102,-20,-62,3.417194803
19.029476,9,20,4,-23,71,-73,-9,-21,3.417194803
19.051796,22,-2,1,20,93,90,-28,-20,3.417194803
19.051840,7,13,-3,-41,-106,-19,41,73,3.417194803
19.051849,2,-14,-6,21,-103,-51,1,-3,3.417194803
19.051856,-31,3,1,-32,-51,-12,-12,-34,3.417194803
19.073527,55,-5,2,58,67,56,61,10,3.417194803
19.073539,-22,-24,7,-10,-45,-22,-19,-73,3.417194803
19.074064,-75,-14,-3,-6,43,26,23,61,3.417194803
19.074081,79,14,-4,-11,-125,-21,-30,21,3.417194803
19.088442,-76,-34,-7,-13,6,-19,-15,16,3.417194803
19.088460,35,-16,-2,12,-1,22,-24,15,3.417194803
19.090801,12,-28,-6,-6,-98,36,21,-2,3.417194803
19.090814,-50,-6,-2,19,82,-13,-3,-31,3.417194803
19.112505,35,36,18,20,96,15,45,46,3.417194803
19.112529,-43,3,14,19,-7,-77,-64,-18,3.417194803
19.118425,66,-8,-24,-47,44,54,20,-41,3.417194803
19.118448,68,-41,-22,-38,-81,6,7,-62,3.417194803
19.134168,27,-10,4,53,-9,53,0,6,3.417194803
19.134183,1,35,3,-26,-70,-43,19,88,3.417194803
19.134188,-46,-37,-16,1,-23,78,-38,-16,3.417194803
19.134194,-48,40,15,15,-112,-30,16,52,3.417194803
19.150052,-51,-15,-8,-29,-116,19,-12,-67,3.417194803
19.150070,-62,-47,-7,37,97,53,15,-19,3.417194803
19.150075,99,29,5,-3,-50,-12,-22,-3,3.417194803
19.150080,-17,-15,-3,13,14,24,3,52,3.417194803
19.171405,-1,21,4,-18,2,-51,10,-7,3.417194803
19.171433,-36,49,21,4,28,34,19,-41,3.417194803
19.172832,42,-31,-6,-11,21,-11,14,-50,3.417194803
19.172844,-91,-84,-33,-20,-57,-77,-50,-28,3.417194803
19.193470,80,45,-5,-44,-84,70,24,97,3.421395037
19.193496,-44,10,4,56,83,14,-13,-3,3.421395037
19.195916,86,59,5,-11,-69,-65,12,17,3.421395037
19.195928,23,-11,-6,-5,127,-55,-47,4,3.421395037
19.208676,-31,89,31,-2,67,65,34,8,3.421395037
19.208694,100,-102,-29,-7,-20,-7,-42,-78,3.421395037
19.210622,-74,12,11,15,-37,-24,-21,82,3.421395037
19.210632,-27,19,9,26,-2,10,11,-1,3.421395037
19.232040,-87,-33,-7,1,-35,-51,6,39,3.421395037
19.232073,-8,41,15,0,-37,30,25,24,3.421395037
19.232407,-26,-12,5,23,105,-15,-6,-48,3.421395037
19.232425,64,-9,-1,-32,-68,-23,1,34,3.421395037
19.253466,-20,-17,11,15,-85,43,-8,-8,3.421395037
19.253488,30,13,-25,-22,91,20,24,-67,3.421395037
19.254669,10,-16,-4,-15,52,-91,-45,-11,3.421395037
19.254686,-67,10,7,40,127,88,50,23,3.421395037
19.268393,46,8,2,-44,63,-89,2,-6,3.421395037
19.268417,-12,-24,-1,-5,76,26,-2,47,3.421395037
19.269572,-17,36,24,89,120,-5,14,34,3.421395037
19.269589,110,2,-24,-36,26,33,0,-1,3.421395037
19.291502,47,50,7,4,-3,-68,-40,-9,3.421395037
19.291520,-3,-50,-20,-52,-74,17,0,-13,3.421395037
19.291658,17,60,21,21,-33,-8,13,73,3.421395037
19.291688,-14,57,28,20,16,34,5,26,3.421395037
19.313503,14,-100,-34,-19,-71,-3,-26,-12,3.421395037
19.313528,15,60,12,-9,-72,-13,4,42,3.421395037
19.315304,-63,-25,-10,12,62,2,-29,-4,3.421395037
19.315316,-35,34,12,-16,-12,42,18,-29,3.421395037
19.328746,-23,20,2,25,-26,-113,47,-3,3.421395037
19.328777,1,1,-7,-21,-61,86,-69,-19,3.421395037
19.330462,-31,-33,-9,-44,45,-90,-13,1,3.421395037
19.330468,31,5,7,-29,-3,2,0,-23,3.421395037
19.351161,112,-22,-26,6,127,65,19,-27,3.421395037
19.351195,46,-12,0,39,13,-59,0,24,3.421395037
19.353249,-18,-3,-7,-9,-77,60,24,13,3.421395037
19.353261,8,-16,10,7,15,15,15,25,3.421395037
19.373568,-56,-18,-8,-9,-53,-8,-38,-66,3.421395037
19.373589,13,1,-1,2,57,-29,-14,63,3.421395037
19.374269,10,7,-12,-27,-96,41,-12,-63,3.421395037
19.374290,-62,26,23,30,-40,-11,23,73,3.421395037
19.396698,36,-10,-2,18,-14,-29,8,-50,3.421395037
19.396720,69,-23,-4,-34,-96,-102,-21,47,3.421395037
19.397982,-9,5,8,22,66,79,48,-7,3.421395037
19.397993,-49,21,14,2,67,-75,25,35,3.421395037
19.411077,41,-47,-28,-15,-29,-42,-30,-32,3.421395037
19.411101,-18,9,-1,-33,29,49,64,-37,3.421395037
19.413059,28,-11,-2,46,19,-96,4,49,3.421395037
19.413065,-2,16,-3,19,69,28,-17,1,3.421395037
19.434238,-82,-12,2,-26,53,103,-21,23,3.421395037
19.434280,-20,-8,9,-34,-94,-65,-26,-5,3.421395037
19.434866,-4,-32,-9,73,75,68,-15,-83,3.421395037
19.434903,95,19,-17,-21,-114,33,13,5,3.421395037
19.448835,-103,-21,20,3,-107,-39,8,-7,3.454194740
19.448867,24,-2,2,60,75,47,-9,-79,3.454194740
19.451215,103,-19,-15,-38,2,-20,-12,50,3.454194740
19.451233,-25,-34,-3,-13,-17,-19,-29,-25,3.454194740
19.471440,-29,45,6,27,-83,26,24,39,3.454194740
19.471478,-79,56,10,-20,-88,-111,2,-14,3.454194740
19.473599,-33,-6,-1,-57,55,-18,-34,-42,3.454194740
19.473614,25,-57,-19,-3,-63,122,7,-22,3.454194740
19.493585,-4,0,-5,10,38,-128,20,103,3.454194740
19.493602,-12,-10,11,50,-64,-88,48,-14,3.454194740
19.494063,-65,10,-11,-48,-97,-23,-43,-20,3.454194740
19.494104,64,-26,-11,-10,1,4,9,4,3.454194740
19.509385,17,25,4,-41,4,83,-17,-20,3.454194740
19.509397,-10,-6,-5,2,-56,11,-14,-13,3.454194740
19.509399,44,36,5,8,-19,-27,31,43,3.454194740
19.509402,-5,9,5,4,-93,-51,-31,72,3.454194740
19.530986,-4,12,15,4,17,7,3,3,3.454194740
19.531005,2,-67,-31,-11,57,47,5,-25,3.454194740
19.531981,-13,-7,5,-4,-87,-28,-19,-24,3.454194740
19.532017,-25,2,-4,-6,6,-12,-1,-25,3.454194740
19.555185,127,127,35,26,58,11,2,-1,3.454194740
19.555202,-46,-76,-20,-35,127,19,-10,-4,3.454194740
19.555208,48,16,6,-21,-81,-41,45,-10,3.454194740
19.555210,-23,-20,-4,63,-17,57,-18,-27,3.454194740
19.568736,15,12,-6,-21,-76,-16,27,-4,3.454194740
19.568763,-37,43,10,27,80,-33,37,-6,3.454194740
19.571383,-16,-22,-1,-49,-101,89,-2,-15,3.454194740
19.571391,-4,1,4,9,127,27,-17,-8,3.454194740
19.591334,-13,-40,-18,10,41,-128,-52,-32,3.454194740
19.591359,64,13,-7,-11,-51,24,3,106,3.454194740
19.591622,-75,-16,-2,4,8,-23,-10,-49,3.454194740
19.591667,39,2,13,30,15,-19,21,87,3.454194740
19.613661,-88,-18,6,16,-45,27,11,-73,3.454194740
19.613680,47,39,-6,-31,22,63,-41,1,3.454194740
19.614715,66,43,-7,18,-31,-4,-9,-39,3.454194740
19.614721,-53,-79,-25,-58,25,-32,-5,-75,3.454194740
19.628751,51,-9,12,23,90,-87,-46,-10,3.454194740
19.628784,-37,-6,5,52,78,123,40,18,3.454194740
19.630747,4,26,6,15,-62,-26,31,31,3.454194740
19.630757,-35,44,-4,-42,24,-22,9,-11,3.454194740
19.651012,35,-44,-15,-21,8,-6,95,35,3.454194740
19.651051,-10,12,5,-23,-91,36,-18,-12,3.454194740
19.651624,-12,-23,-12,0,61,17,-46,31,3.454194740
19.651655,2,-4,-2,34,-26,-12,-4,-51,3.454194740
19.673574,-24,-14,-7,-19,-19,10,-20,0,3.454194740
19.673602,-9,21,8,0,-1,-17,-2,-6,3.454194740
19.676194,6,-19,3,-6,7,1,30,62,3.454194740
19.676202,79,42,15,33,-37,-10,22,88,3.454194740
19.688597,-89,-50,-4,-46,36,16,-34,32,3.454194740
19.688621,57,-14,-12,28,110,-29,-15,-16,3.454194740
19.690524,69,-27,-13,29,-30,69,-3,-14,3.454194740
19.690537,32,12,-5,-97,-128,-71,61,-46,3.454194740
19.710941,-4,45,11,107,-38,52,-2,45,3.502317197
19.710957,-37,12,16,-15,-90,23,-24,-12,3.502317197
19.711528,-26,-26,-4,-17,127,18,67,17,3.502317197
19.711576,-41,29,8,20,-1,19,-31,-24,3.502317197
19.733503,-42,21,-2,-27,76,-31,15,-8,3.502317197
19.733520,97,-12,-6,-6,-74,-28,4,-10,3.502317197
19.734980,-64,45,11,8,32,-30,-19,-17,3.502317197
19.734997,-43,-81,-15,-15,22,2,-26,-19,3.502317197
19.748372,69,-13,-2,-4,65,39,-6,43,3.502317197
19.748389,-32,11,0,21,-46,-55,0,107,3.502317197
19.749616,-10,22,1,-60,-21,51,-74,-86,3.502317197
19.749629,-41,5,9,25,-28,-96,56,11,3.502317197
19.771097,-68,-4,-13,-68,-71,93,-78,12,3.502317197
19.771114,95,16,-1,42,-31,20,101,6,3.502317197
19.773660,-18,-39,-7,41,30,18,12,29,3.502317197
19.773676,29,-10,-15,-37,2,-28,-37,-50,3.502317197
19.793433,3,10,3,-10,-2,-78,-8,-5,3.502317197
19.793453,-62,20,9,-2,69,-11,-8,-30,3.502317197
19.794218,-18,1,0,0,63,-71,5,57,3.502317197
19.794247,4,-40,-13,0,-45,4,-37,-48,3.502317197
19.807856,31,14,-10,-16,-43,9,3,-12,3.502317197
19.807873,-79,-28,-1,-12,53,-24,-38,-31,3.502317197
19.816143,-3,11,10,16,-41,-20,41,18,3.502317197
19.816176,68,37,10,17,-28,-3,-15,12,3.502317197
19.831238,91,28,8,-11,52,-2,1,43,3.502317197
19.831262,-3,-99,-34,26,-24,-66,-5,-73,3.502317197
19.833502,94,-31,-14,-17,39,36,-69,60,3.502317197
19.833508,24,16,-2,5,-30,71,96,48,3.502317197
19.853410,-30,17,4,15,-121,-102,8,31,3.502317197
19.853419,-3,40,6,-13,66,-44,-67,-74,3.502317197
19.853988,-48,13,8,-6,-63,-2,-9,-23,3.502317197
19.853996,-33,-1,-2,9,-14,-5,-15,30,3.502317197
19.867746,61,6,4,24,-35,-4,-14,-82,3.502317197
19.867771,-36,-1,-4,-34,-51,11,16,-6,3.502317197
19.876126,-21,-22,-9,-4,5,-48,-7,-41,3.502317197
19.876143,-3,4,6,15,73,45,-6,62,3.502317197
19.891091,4,-16,-8,2,-64,-59,-27,-35,3.502317197
19.891123,-72,16,16,-12,-84,73,21,82,3.502317197
19.893472,-63,-90,-16,-20,76,-111,51,-111,3.502317197
19.893483,79,6,-2,48,-15,12,-1,-66,3.502317197
19.921790,-39,-26,-7,-35,127,8,-28,17,3.502317197
19.921803,67,45,9,45,-46,-51,-5,54,3.502317197
19.924996,-70,25,6,-2,0,-20,24,-58,3.502317197
19.925009,51,7,-15,-24,2,69,-37,-29,3.502317197
19.927858,107,-17,-13,-22,-67,-48,21,24,3.502317197
19.927878,25,105,35,4,87,-5,39,54,3.502317197
19.936083,26,-61,-32,-26,-31,-19,-34,-45,3.502317197
19.936101,-34,-5,4,5,-6,-43,5,5,3.502317197
19.951373,-29,12,-6,7,37,76,4,-17,3.502317197
19.953037,-4,-4,-5,-48,3,-8,-22,-35,3.502317197
19.953041,50,39,9,40,-16,18,23,71,3.502317197
19.953044,-26,29,8,-23,-16,13,-11,13,3.502317197
19.973878,-70,-51,-5,35,37,14,-9,-7,3.544242951
19.973918,-66,-28,-6,-46,-26,-20,47,56,3.544242951
19.976206,84,9,0,-24,64,-37,-31,-1,3.544242951
19.976220,16,2,-2,-3,-16,34,-32,71,3.544242951
19.987847,-68,16,-2,46,-45,-59,47,12,3.544242951
19.987864,11,-36,-6,-53,-12,101,51,65,3.544242951
19.996066,-108,-15,-14,-21,-17,12,-30,-44,3.544242951
19.996083,-50,1,1,3,-24,-33,-6,-51,3.544242951
20.010990,43,36,25,6,32,61,-4,-11,3.544242951
20.011008,-7,-8,-5,12,-34,10,-10,-36,3.544242951
20.011925,92,56,14,10,-92,-38,11,25,3.544242951
20.011942,-121,-75,-1,1,51,-48,-2,-19,3.544242951
