timestamp,emg1,emg2,emg3,emg4,emg5,emg6,emg7,emg8,label
2.007057,-25,-51,67,-19,4,40,-17,0,1
2.007412,5,3,-23,0,-35,-106,17,-35,1
2.009303,-9,84,-27,-22,5,-18,18,21,1
2.009311,9,-91,19,-10,-17,-3,-35,-19,1
2.030019,3,23,6,4,1,13,-21,-17,1
2.030060,-7,5,8,-7,10,20,9,17,1
2.031585,-1,-4,5,2,-7,-28,1,-9,1
2.031596,-12,36,-20,4,-19,29,2,12,1
2.043506,1,53,-46,-10,19,7,-19,-14,1
2.043539,7,-54,31,3,-3,59,0,13,1
2.053688,10,26,-35,8,-3,-34,-16,22,1
2.053696,-8,-25,91,10,5,21,-34,-8,1
2.067015,3,-7,-54,-14,-24,-23,9,-3,1
2.067024,3,36,-21,5,0,-7,-10,-6,1
2.068546,-3,-12,8,-9,-11,25,2,-28,1
2.068557,1,49,-51,-11,16,14,-6,25,1
2.089615,-6,9,-20,-8,-9,-31,6,-2,1
2.089639,-5,-73,109,28,11,30,14,24,1
2.091089,3,-48,-7,0,5,-13,-14,-9,1
2.091125,2,19,-33,0,-1,1,16,6,1
2.103296,-4,19,19,19,14,-14,-19,-13,1
2.103373,-7,-10,13,15,31,9,1,8,1
2.112218,0,8,-4,-8,-4,44,-23,-5,1
2.112229,1,-78,44,12,-1,2,48,10,1
2.128532,9,0,-15,2,1,23,-7,5,1
2.128548,-3,40,-19,-3,-24,-27,-18,0,1
2.128726,-3,0,-19,9,31,-47,13,-6,1
2.128771,2,-34,68,14,15,0,-25,13,1
2.149564,-7,-3,-8,-14,-8,62,-19,2,1
2.149582,-5,113,-72,-32,-7,-80,8,8,1
2.152551,12,-97,47,16,-5,19,40,-7,1
2.152558,-2,50,-79,0,20,25,4,2,1
2.163688,-1,-4,99,7,-23,-55,24,-13,1
2.163726,10,19,-23,-9,14,19,-22,-9,1
2.173887,-5,19,5,1,6,14,5,-3,1
2.173894,-3,-1,-27,-21,7,-1,0,-8,1
2.187644,-10,-3,17,-4,8,1,-9,7,1
2.187682,-8,28,-32,-8,-16,32,-19,-6,1
2.190365,-3,-48,76,13,-1,-2,58,20,1
2.190371,-2,15,-18,-18,-20,45,-31,-24,1
2.217121,5,36,-42,-9,-2,-43,-10,3,1
2.217138,-10,-17,39,11,27,49,-5,0,1
2.219212,-1,27,-29,-23,-66,-50,-34,-27,1
2.219223,3,14,-14,5,13,12,8,10,1
2.223219,-8,3,-28,7,11,2,-39,-37,1
2.223265,4,-8,25,10,6,35,13,29,1
2.232970,2,69,-13,-15,-5,-18,-29,8,1
2.232978,-18,-80,43,14,8,48,34,11,1
2.247511,1,88,-26,-1,24,-3,-3,-8,1
2.247532,19,-50,-30,-7,-28,-16,13,9,1
2.249579,-5,6,31,7,23,27,-60,-7,1
2.249584,8,106,-34,-11,-35,-36,31,-17,1
2.269528,-14,-52,3,-4,-7,33,-3,-2,1
2.269545,-6,38,-1,3,2,12,21,-4,1
2.271040,3,77,-62,-18,-11,-12,1,13,1
2.271055,4,-41,-33,9,22,-11,19,19,1
2.283190,12,-25,2,-3,-5,-5,-15,5,1
2.283200,-3,-6,-30,-17,-22,-32,-5,-13,1
2.294528,-11,22,-8,-4,11,-5,-11,-4,1
2.294537,-8,-29,-7,0,14,-4,18,1,1
2.307565,11,28,57,7,-13,-81,-1,-4,1
2.307603,-1,30,-34,-5,-9,5,-4,21,1
2.309583,7,-48,-19,12,9,35,43,-12,1
2.309590,-3,-13,-21,-20,10,-52,-48,-40,1
2.331566,-1,-62,7,-5,-44,-39,-7,26,1
2.331574,0,59,-12,-11,11,0,8,5,1
2.331577,2,-45,33,23,-3,-1,-11,-29,1
2.331580,-3,7,16,-9,6,-16,-8,4,1
2.352362,-1,39,-109,-13,19,37,34,8,1
2.352394,4,-125,57,4,-5,5,0,4,1
2.354178,-3,0,9,-3,-7,13,-8,-13,1
2.354184,1,33,40,7,-19,-54,-78,-5,1
2.366973,-7,1,3,4,20,54,15,7,1
2.366989,-6,9,5,-2,-8,-23,-11,-5,1
2.368614,5,31,15,2,22,56,3,25,1
2.368632,14,30,-23,0,-22,-2,11,-23,1
2.390274,1,27,-4,-1,6,-2,3,15,1
2.390289,-9,-96,45,22,2,-12,-10,-20,1
2.391504,-9,-2,-36,-8,-1,-21,1,-2,1
2.391509,0,70,12,7,-1,6,30,41,1
2.412035,4,7,-21,0,8,54,-52,-49,1
2.412056,-1,-13,11,3,-10,-77,52,-1,1
2.414074,-6,-6,-19,9,6,-6,-8,42,1
2.414098,2,35,-104,-31,-1,24,-3,-17,1
2.427173,-2,-128,127,43,-3,-64,32,18,1
2.427192,18,127,-68,-18,6,7,2,8,1
2.428759,-10,8,18,2,5,-20,9,-24,1
2.428780,15,11,-5,7,-48,-42,-18,-2,1
2.449612,-10,17,2,-1,23,32,16,20,1
2.449634,-1,9,-55,-13,8,-66,43,-18,1
2.452218,4,-37,82,7,-8,-16,3,5,1
2.452226,-8,-18,26,7,9,3,7,-7,1
2.472025,2,10,-40,-25,-23,-10,0,-10,1
2.472041,-8,-15,17,12,14,72,-5,6,1
2.473487,-19,-94,-9,-6,-5,-72,-35,24,1
2.473498,22,-5,5,21,11,7,14,-31,1
2.487598,-4,14,-12,-26,-15,6,14,6,1
2.487607,4,35,-65,2,-2,24,-40,-11,1
2.488561,11,42,-55,-17,-2,-18,-5,3,1
2.488574,-8,-104,20,-13,1,9,-12,1,1
2.509836,-2,-74,14,13,21,59,38,5,1
2.510159,8,94,-28,-9,-29,6,-30,-12,1
2.512266,-4,-15,40,-18,-11,14,0,-4,1
2.512275,-3,12,-19,3,1,-18,13,20,1
2.533829,6,25,4,4,35,40,-12,-2,1
2.533836,-29,72,-62,-15,8,-41,-64,2,1
2.533840,31,-40,90,35,0,8,98,6,1
2.533843,-10,107,-10,-16,12,1,-16,-32,1
2.546851,-10,50,-32,-9,-23,23,-18,7,1
2.546879,-4,41,-30,-3,0,-5,-27,3,1
2.553611,-2,28,-24,-1,-10,11,-9,-22,1
2.553640,9,10,10,12,-14,-16,10,24,1
2.569685,7,-18,-25,-10,-13,-20,-33,-17,1
2.569699,-9,-38,52,11,20,20,9,-1,1
2.571124,-7,40,-11,-4,-8,34,15,27,1
2.571139,12,-22,34,-3,13,2,-4,-29,1
2.599585,-34,93,-113,-18,-14,-26,-52,1,1
2.599603,4,-128,70,34,19,47,81,19,1
2.601166,25,30,-4,-18,-11,17,9,-5,1
2.601184,-24,0,4,-6,4,6,-85,-10,1
2.606385,14,7,-9,-7,-17,-32,26,-27,1
2.606430,-9,18,-20,-9,-1,-4,-36,-2,1
2.613595,-15,31,-50,-21,-6,-1,7,23,1
2.613620,-3,-79,44,11,9,13,15,7,1
2.629616,6,8,32,6,9,3,-4,-19,1
2.629637,8,-25,15,2,-17,-12,2,-2,1
2.631664,-3,56,47,5,10,30,-49,1,1
2.631717,-5,-1,-11,-2,-16,-36,30,-8,1
2.652267,-3,-37,-15,13,3,-23,-19,18,1
2.652290,9,-37,37,5,-2,-1,-3,-23,1
2.653544,2,28,-44,-7,2,-28,-27,-9,1
2.653561,-43,127,-53,-10,25,50,18,10,1
2.666453,8,-83,18,16,0,-86,5,12,1
2.666476,20,-1,-20,-7,-40,67,33,6,1
2.673374,2,18,-85,-14,16,-1,-20,-28,1
2.673389,0,-53,104,8,-6,8,17,10,1
2.689529,-1,7,-4,-3,-10,26,20,-2,1
2.689539,-35,108,-58,-15,85,48,-64,59,1
2.691048,17,-127,95,58,-39,2,27,-107,1
2.691064,22,61,-124,-26,-8,-66,-25,-50,1
2.712052,0,60,-6,-2,-14,8,2,46,1
2.712077,4,6,-18,-8,-11,-23,-16,-15,1
2.713954,-20,24,-15,-5,34,44,-2,36,1
2.713972,19,-19,0,6,3,-1,3,24,1
2.726471,-15,-21,33,8,-1,5,-7,-24,1
2.726489,-3,-14,17,-2,-9,-39,-1,-21,1
2.733174,-11,-36,-60,-22,-6,-21,-2,13,1
2.733191,-11,-13,60,26,2,-19,-24,6,1
2.749824,2,-70,31,5,-1,20,61,26,1
2.749849,14,-9,-6,-20,-40,-17,-23,-44,1
2.752125,-8,1,7,9,18,-20,5,2,1
2.752132,-1,27,-54,-21,-23,15,-12,18,1
2.772401,2,34,9,-18,-68,-3,-6,1,1
2.772416,23,-46,24,36,80,-3,21,4,1
2.774326,-16,3,-26,-28,-3,-8,-12,-4,1
2.774333,-7,-5,-8,-7,20,-3,5,10,1
2.786653,-8,47,-71,-6,34,28,-18,-14,1
2.786677,3,-115,101,29,-84,19,52,0,1
2.793449,27,50,-27,-11,-16,0,-23,4,1
2.793472,-17,-2,-10,21,36,-4,8,13,1
2.809799,16,-31,-6,-12,14,11,-1,-17,1
2.809824,-44,59,-20,-28,10,-13,-29,-13,1
2.811412,14,-18,30,13,8,1,29,18,1
2.811418,2,-21,25,13,-12,16,8,7,1
2.832151,-5,17,8,-9,69,3,-5,-16,1
2.832175,0,35,-107,-31,-2,-39,-56,-5,1
2.833588,-28,14,93,23,-12,-3,14,1,1
2.833604,3,18,-65,-10,-4,7,-3,-4,1
2.845792,6,35,-17,-26,-67,-21,-5,-4,1
2.845804,15,12,-17,37,36,-7,14,5,1
2.855246,-4,32,1,6,23,-16,24,23,1
2.855252,-5,-11,51,-7,-8,29,-39,-34,1
2.869855,-6,-4,10,5,-2,-6,9,26,1
2.869871,-9,83,-44,-8,5,3,-12,19,1
2.871306,12,-110,55,18,-19,28,31,-30,1
2.871315,-2,38,-34,-9,-2,-18,2,-7,1
2.892264,-3,1,-6,-2,-25,-26,-6,-3,1
2.892285,-3,45,-16,-13,24,-39,17,38,1
2.893727,19,-16,-19,-4,-2,14,-41,-48,1
2.893745,8,-24,-6,-6,-10,-11,5,10,1
2.908234,-1,-18,17,8,6,-1,-7,-15,1
2.908240,1,-19,18,-3,-17,21,11,6,1
2.915219,-14,78,-105,-17,14,-23,-19,16,1
2.915225,-6,-103,100,32,11,24,52,23,1
2.930081,23,8,-17,1,4,21,-41,-10,1
2.931627,-13,3,8,3,0,83,-46,-31,1
2.931634,8,19,-33,-11,-31,-49,71,-14,1
2.931637,3,9,-67,-21,-44,-12,-15,19,1
2.952804,-10,17,67,29,24,0,10,4,1
2.952838,9,-54,43,-1,-40,3,0,-24,1
2.954250,-11,12,-10,-16,18,6,-23,20,1
2.954268,-32,88,-128,-33,22,-19,-36,-8,1
2.965900,14,-110,94,30,1,86,40,0,1
2.965915,25,51,-40,-18,-48,-44,-3,-23,1
2.976512,-14,47,-26,-3,-10,-9,-12,6,1
2.976540,11,24,-22,3,8,-9,-1,0,1
2.989644,-21,26,-30,-4,-6,-20,-11,40,1
2.989676,4,-17,30,11,-2,-13,5,-36,1
2.991550,38,0,-7,-9,2,14,-18,18,1
2.991556,-18,-83,22,5,45,17,15,5,1
3.012399,-63,-1,-46,-17,-66,-20,-6,-11,1
3.012821,24,-26,16,10,96,4,24,14,1
3.014907,-23,42,32,18,15,-9,-40,-19,1
3.014915,55,29,-47,12,-37,11,35,0,1
3.026066,16,89,-88,-4,22,-53,-22,7,1
3.026091,-54,-3,69,16,-26,-6,23,-22,1
3.035245,17,11,-102,-25,-42,18,-45,-40,1
3.035251,1,52,-24,-4,7,-9,-29,10,1
3.050098,8,1,-12,3,12,-1,19,-17,1
3.050114,-4,45,-37,-17,-9,-11,-8,36,1
3.051641,-13,-18,33,11,-1,6,18,31,1
3.051659,8,-32,64,11,37,-4,9,-18,1
3.072043,7,-21,-48,-20,-13,5,1,-2,1
3.072058,-21,-38,5,-7,-1,-10,-35,1,1
3.074315,18,-9,27,16,-83,-4,10,2,1
3.074324,41,101,26,-73,75,0,-15,4,1
3.085688,-91,-79,-43,-15,-4,12,12,-23,1
3.085711,88,46,-23,22,-24,-19,21,17,1
3.095389,-3,45,31,19,-9,15,-11,-4,1
3.095396,5,-14,48,23,-10,-35,-39,47,1
3.110743,58,-11,75,19,-11,39,46,-22,1
3.110761,-15,37,-97,-40,-13,8,-47,17,1
3.111251,-5,-102,88,7,-4,0,25,-33,1
3.111291,-8,39,-48,12,-24,-5,7,12,1
3.140280,-5,109,-59,-2,42,-18,-18,7,1
3.140286,-1,-112,12,11,-19,29,-2,3,1
3.141022,-3,76,-75,-21,38,58,-26,25,1
3.141030,-44,49,-87,-26,-7,-19,-70,-2,1
3.153704,31,-105,66,57,-5,72,81,-11,1
3.153721,5,120,-82,-32,-22,-44,-9,-49,1
3.162076,-19,48,-56,-14,15,-12,7,27,1
3.162098,-20,-13,-85,-28,18,28,0,-10,1
3.171038,28,32,61,15,-23,-3,47,31,1
3.171046,-4,-64,38,11,-1,-10,9,-30,1
3.171051,1,-53,-1,4,15,2,-5,7,1
3.171055,-8,-33,28,27,-30,11,16,7,1
3.192487,-2,47,-22,-34,26,-9,-53,-1,1
3.192521,-12,-30,49,-1,-45,25,-2,-17,1
3.194272,-8,-20,-22,-10,6,-50,8,-2,1
3.194282,17,-3,31,11,-34,-6,32,-3,1
3.205691,-31,126,-94,-9,56,67,-73,14,1
3.205707,-3,-98,13,37,43,-35,-13,78,1
3.216310,20,-86,88,15,-69,-103,37,-33,1
3.216315,47,27,-34,3,-49,53,46,-74,1
3.229834,34,-39,-56,-13,-27,-22,-76,-53,1
3.229865,-34,71,-64,-12,26,33,18,43,1
3.232759,-18,66,-37,0,49,-2,-49,37,1
3.232768,-11,-58,46,16,-5,-3,34,27,1
3.252323,-2,-6,21,-3,-9,-70,4,0,1
3.252346,-18,45,16,-2,-59,-4,-1,-19,1
3.253837,11,9,12,26,77,28,24,22,1
3.253855,24,-71,-11,-13,-29,5,10,-25,1
3.265797,-14,31,-10,-31,5,-6,-24,-4,1
3.265813,-7,-14,33,25,-3,-7,20,2,1
3.276799,1,-3,-40,2,-16,18,4,-15,1
3.276813,-39,114,-55,-3,38,4,-33,10,1
3.289594,-8,-92,59,-8,-45,7,-93,12,1
3.290822,41,-112,69,2,-23,40,79,-47,1
3.291053,-18,94,-113,-48,5,-76,-98,17,1
3.291086,5,8,113,34,-17,86,92,96,1
3.312099,9,118,-113,-15,-24,-38,-104,-88,1
3.312111,-14,110,-57,-17,9,-20,-62,79,1
3.313978,5,11,-58,-18,-10,22,11,68,1
3.314005,-21,-4,-7,2,0,-11,-1,49,1
3.334630,8,12,46,13,17,-6,102,44,1
3.334655,3,-48,-5,-1,17,-6,9,-34,1
3.337471,-3,10,8,6,8,54,3,-35,1
3.337479,-4,-21,6,-15,-19,-118,-7,-15,1
3.349575,22,-49,69,31,4,-14,28,-7,1
3.349593,-4,5,-30,4,24,-13,-29,-40,1
3.351090,-17,-47,24,4,-12,35,10,4,1
3.351133,0,-27,6,-6,-11,-5,-24,-46,1
3.372293,5,-7,-26,-7,8,-4,3,-2,1
3.372309,1,23,2,-12,-2,-7,8,14,1
3.374683,4,7,21,2,-4,-6,13,-11,1
3.374690,-5,-28,-5,3,-4,-5,-31,-28,1
3.394765,-6,22,-12,2,7,-29,2,17,1
3.394786,-31,117,-81,-26,57,58,-26,35,1
3.397675,37,-104,-10,20,-68,-58,-51,-35,1
3.397686,1,47,-58,-1,15,0,7,-59,1
3.409999,-9,25,-64,-13,-44,-36,1,21,1
3.410031,11,0,30,1,62,-30,4,7,1
3.412153,-7,18,-5,-3,10,17,1,-3,1
3.412160,-3,-58,9,0,8,9,-10,13,1
3.431951,2,-7,-3,1,11,-6,-5,3,1
3.431968,-5,-29,20,6,-29,-10,13,-21,1
3.438309,-8,32,0,-11,0,-8,11,6,1
3.438333,-7,-25,21,14,-1,-6,-16,-1,1
3.455578,-16,61,-74,-7,49,7,44,35,1
3.455611,21,-109,55,15,-37,-16,-11,-22,1
3.456382,16,45,-30,2,-3,-24,-13,33,1
3.457121,-17,32,-98,-16,-49,-3,46,-39,1
3.468899,21,-123,10,-21,-23,16,7,11,1
3.468907,7,-39,51,33,39,-40,15,66,1
3.475919,-12,-26,-6,8,39,31,-14,-62,1
3.475942,4,-15,-13,-9,-23,-5,-7,22,1
3.492687,-12,55,-3,1,6,-2,8,2,1
3.492714,-2,21,-22,-22,-39,18,4,-9,1
3.495174,-5,-42,31,1,12,47,9,8,1
3.495186,12,36,37,5,5,-99,-42,1,1
3.516589,-27,7,57,19,6,49,3,10,1
3.516680,20,6,-41,-23,-18,-7,-86,-26,1
3.516685,13,22,23,7,6,71,30,-20,1
3.516688,-21,-11,33,6,-1,-42,-35,1,1
3.528975,2,3,6,8,-8,-33,-13,-12,1
3.529001,-21,6,-16,4,-16,-10,10,1,1
3.536256,0,-55,-8,-16,6,14,20,19,1
3.536288,9,2,-4,4,21,35,-21,1,1
3.552285,-5,-11,9,-4,-13,-3,10,3,1
3.552303,-23,71,49,-1,-6,-7,-22,-19,1
3.553616,13,-3,-23,10,-3,8,84,34,1
3.553634,8,9,-34,3,20,23,-54,-40,1
3.574878,4,2,-13,14,-5,-32,-23,10,1
3.574909,4,68,-48,-9,-11,80,33,-36,1
3.577961,-12,36,-3,-2,0,-12,-14,4,1
3.577975,-10,-30,26,-16,-23,-21,9,28,1
3.588921,15,-25,-20,-7,12,14,1,-12,1
3.590135,6,-21,1,3,-21,-9,-4,13,1
3.603618,-1,36,21,16,16,-25,-13,-6,1
3.603641,-17,-28,14,12,31,38,-12,-6,1
3.612385,2,15,10,-13,-19,5,-36,-19,1
3.612399,13,9,3,-3,-2,10,-9,32,1
3.613889,-33,-69,-18,-9,0,-13,14,-63,1
3.613920,-9,21,-3,-13,-17,9,-14,14,1
3.634647,3,-16,11,3,0,-8,35,12,1
3.634666,2,-7,12,-1,0,-7,9,-14,1
3.636146,-8,127,-25,6,9,-67,-35,9,1
3.636163,13,-67,22,5,-4,60,26,3,1
3.648906,-10,8,0,-5,4,29,6,-10,1
3.648923,3,-12,-28,-7,-6,-32,-11,-24,1
3.657618,-1,12,-41,-21,-24,-9,-8,17,1
3.657632,2,-1,-13,1,23,19,20,7,1
3.672942,1,2,9,-2,-23,-48,23,22,1
3.672954,7,34,-33,6,-24,14,64,-18,1
3.673534,4,-12,36,-4,21,12,-38,-8,1
3.673568,2,34,-26,-15,-18,-8,-25,0,1
3.694628,-12,92,-74,-3,20,30,6,-7,1
3.694644,7,-99,22,11,-9,11,8,-2,1
3.696468,-2,-7,-2,-15,-18,9,-4,-7,1
3.696488,-2,36,10,12,8,-78,6,2,1
3.709046,-6,44,-21,-11,15,12,-6,-1,1
3.709072,-7,34,36,2,17,-3,-23,2,1
3.715731,-3,-37,24,5,3,32,-35,-21,1
3.715746,19,7,-39,-3,7,17,96,42,1
3.732136,-4,-58,103,12,-1,-31,-38,-63,1
3.732152,-2,32,-40,-12,2,2,27,31,1
3.734197,-3,-29,66,4,-11,-5,-13,-6,1
3.734204,-7,18,-10,2,10,74,-24,-8,1
3.755221,-3,-17,-78,-7,-14,-44,5,22,1
3.755260,4,-74,55,5,13,29,14,0,1
3.756782,7,15,-34,-17,-6,-42,36,0,1
3.756788,-4,-29,33,14,-3,12,-17,-3,1
3.769103,-3,-8,3,8,6,10,3,3,1
3.769121,-4,23,-29,-4,9,-3,-20,-8,1
3.776097,-14,25,-8,-7,-16,4,-44,18,1
3.776155,11,6,17,8,21,-15,53,6,1
3.792495,11,-8,4,3,-10,-27,-46,-29,1
3.792527,-11,35,-54,-2,-9,10,11,9,1
3.794664,7,52,-12,-14,1,-95,-22,45,1
3.794670,-11,-98,53,9,-19,34,-13,-41,1
3.814783,27,-40,43,1,-22,2,-19,-11,1
3.814800,-5,49,-41,0,1,-14,-16,-4,1
3.816212,-3,8,-58,-3,-12,19,28,21,1
3.816229,-8,57,-61,-18,0,-18,-38,0,1
3.828588,-1,-8,6,-8,8,-3,15,14,1
3.828595,-5,-45,15,-3,-10,-15,-5,-20,1
3.839342,-5,-11,3,-1,39,30,1,-4,1
3.839349,0,-4,18,5,0,-24,-6,9,1
3.852293,-19,-18,12,4,1,42,14,-6,1
3.852309,22,6,7,-2,5,67,-12,8,1
3.854603,1,73,-3,-19,-17,-26,-26,-15,1
3.854609,-24,-80,16,20,10,2,15,5,1
3.875981,12,-39,-11,2,4,20,4,-20,1
3.876001,-2,32,11,-3,-34,-66,41,18,1
3.876267,2,27,62,39,12,32,-4,-17,1
3.876291,1,-20,-38,-11,1,16,-15,11,1
3.888294,-5,27,-24,0,24,-5,-3,12,1
3.888325,-12,-45,4,-4,3,-17,-14,-4,1
3.898665,-1,-12,-19,-8,2,12,17,0,1
3.898671,9,46,-11,-3,-4,-37,-22,-4,1
3.912512,-56,2,82,12,-8,-53,2,46,1
3.912549,38,24,-67,1,-21,-4,3,-40,1
3.914556,-14,-9,-48,-7,-19,-5,-23,-1,1
3.914561,16,23,-14,-10,-14,10,-6,-12,1
3.934655,11,23,-20,-6,8,2,-14,15,1
3.934673,-13,-16,15,2,25,15,-7,19,1
3.937131,-10,-51,22,2,-21,-12,16,2,1
3.937139,-6,16,-5,-6,11,24,-17,-14,1
3.948307,8,11,-6,-5,0,12,9,5,1
3.948335,-12,16,4,6,18,-23,6,4,1
3.959632,1,25,-82,-21,-1,87,33,-14,1
3.959641,-10,-63,79,2,-27,-23,-5,33,1
3.972142,33,-62,-27,-20,-41,-10,-2,-80,1
3.972167,-5,-25,-24,-1,-22,-14,-18,9,1
3.973546,2,-30,-6,4,17,3,7,3,1
3.975110,-6,64,-43,-9,9,4,11,21,1
3.994686,-3,13,0,15,26,5,0,9,1
3.994715,-6,-15,25,-8,2,3,1,-11,1
3.996455,6,-7,7,14,20,-16,-11,-1,1
3.996491,-4,15,-4,-11,-18,-2,5,-6,1
4.008262,9,-2,2,3,0,-2,0,3,1
4.008442,-8,10,-5,-5,17,6,-6,-11,1
4.017444,2,-11,20,2,-10,-6,15,7,1
4.017450,10,4,-40,-14,-4,-12,-3,-19,1
4.039558,-14,-14,89,17,33,17,7,2,1
4.039573,-19,55,-77,-13,-6,7,-11,2,1
4.042673,-1,-44,39,-19,-43,-90,1,16,1
4.042685,24,-5,-5,8,28,3,-17,-11,1
4.055175,1,39,-52,-26,-35,14,61,-7,1
4.055198,-3,5,-35,-14,6,-18,-2,-17,1
4.058593,-5,-45,69,27,2,83,8,-25,1
4.058603,-5,32,-24,-4,4,-39,5,11,1
4.068609,-3,16,-16,-1,-22,-11,-11,19,1
4.068640,-1,-2,19,7,35,0,12,9,1
4.078830,5,29,-63,12,32,24,5,1,1
4.078838,-14,-51,96,25,-25,-7,-21,-3,1
4.092202,17,22,63,14,-1,23,45,31,1
4.094544,-2,17,-19,-5,-17,4,-33,-29,1
4.094554,-1,-56,5,-20,4,-23,-19,11,1
4.094557,-4,33,-22,-18,-5,-7,-11,-9,1
4.114618,2,-19,-39,2,18,-6,-20,36,1
4.114635,-3,-6,40,3,-4,4,-18,-14,1
4.117555,-5,99,63,1,-11,-19,5,-1,1
4.117561,0,-23,-27,9,10,28,3,-4,1
4.128543,-4,-4,-30,1,-3,10,-4,-14,1
4.128571,4,-48,13,9,26,-11,-4,21,1
4.137561,2,6,-29,5,12,32,-2,-21,1
4.137568,-4,-6,2,-11,-25,-87,18,-8,1
4.152209,5,6,-15,-7,-7,-14,-18,-6,1
4.152236,-7,-3,-3,10,-8,0,20,-5,1
4.153991,3,6,11,24,-9,-28,-18,43,1
4.154003,-5,2,12,3,11,59,42,-58,1
4.175127,1,25,-7,-2,5,16,-25,-12,1
4.175156,-8,48,-8,-14,-6,24,19,15,1
4.176282,6,-102,-53,-23,-18,-25,32,0,1
4.176305,22,-16,6,19,-1,1,-16,18,1
4.188233,-10,27,-33,-16,-26,-6,-14,-22,1
4.188248,-1,4,20,0,36,69,24,3,1
4.198026,-7,31,-24,3,-3,-63,-14,-13,1
4.198032,-2,31,-26,-5,-4,0,-3,2,1
4.212464,-9,-24,-16,-4,4,-7,-18,0,1
4.212500,6,-25,1,-8,-18,-31,-9,7,1
4.214301,2,96,-96,-7,10,50,-30,-29,1
4.214308,-7,-94,45,5,10,17,-19,-5,1
4.234579,7,5,19,11,-2,-28,18,9,1
4.234589,-12,5,-27,-12,-26,-28,-28,-26,1
4.236113,2,14,10,4,-3,8,-2,0,1
4.236221,-4,46,-16,-17,-7,25,10,4,1
4.257527,1,-5,-14,3,71,-24,-13,4,1
4.257566,-1,-27,12,-2,24,-24,11,15,1
4.260985,6,-34,61,13,-29,1,-2,-11,1
4.260999,-6,23,-23,-18,17,9,3,12,1
4.271336,-9,-13,19,1,-14,-8,-3,-6,1
4.271351,7,12,9,-3,-9,1,22,12,1
4.280617,-6,-4,11,3,11,-22,-4,-8,1
4.280625,3,47,-32,-1,-10,9,-35,-7,1
4.294970,-7,-2,6,2,3,30,-21,-13,1
4.294977,3,40,-39,-20,-17,4,5,-3,1
4.296499,-4,6,-6,17,-9,18,27,63,1
4.296532,15,-67,17,2,3,69,-11,-43,1
4.317111,-2,-26,-21,-11,-32,-36,-4,-3,1
4.319178,-7,-25,41,8,-4,5,-38,-4,1
4.319186,2,-28,-15,-13,1,-8,25,1,1
4.319189,11,33,-15,-8,-23,-2,-6,20,1
4.332166,-16,11,-12,-2,31,11,27,-2,1
4.332184,-6,-66,-8,15,35,-24,-15,22,1
4.334072,0,27,63,-4,-15,23,13,-8,1
4.334078,8,-28,12,3,3,-33,-5,-13,1
4.358404,2,-11,-6,-11,-25,5,-5,-7,1
4.358412,6,23,-20,5,-2,-22,5,5,1
4.358416,-12,33,-24,-10,-4,-41,-14,-11,1
4.358419,1,-55,13,3,40,0,5,4,1
4.377302,5,4,17,12,-1,66,45,23,1
4.377329,5,10,26,-3,-10,8,-52,-8,1
4.378854,-3,-4,-23,-11,-26,-56,20,-41,1
4.378886,-4,59,-26,-1,0,-35,-3,8,1
4.391657,-14,-35,41,9,4,44,11,7,1
4.391675,-1,-8,19,1,-43,14,6,6,1
4.398232,3,44,-44,-12,39,12,-12,-7,1
4.398250,-25,-25,26,12,-18,-8,13,12,1
4.414669,29,17,-3,-31,-3,-10,-10,-4,1
4.414685,-10,18,-34,2,-24,-18,12,-9,1
4.416115,0,-8,-4,4,-7,34,-23,7,1
4.416231,-2,47,-56,-23,3,-87,20,-1,1
4.437059,-1,4,23,19,9,-11,-27,-2,1
4.437076,-10,-19,13,6,-8,50,-17,-11,1
4.438566,13,-7,-11,1,-5,15,-1,21,1
4.438589,-3,23,0,1,8,29,-7,-4,1
4.451415,-6,-23,-11,6,-12,-20,2,-9,1
4.451472,12,9,-14,-20,-12,-25,3,5,1
4.458793,-14,-29,9,9,56,22,0,8,1
4.458824,-15,63,48,-10,-15,0,-42,9,1
4.475604,15,-26,55,8,8,3,34,-1,1
4.475637,1,14,-8,9,-6,-16,13,-6,1
4.478326,3,-39,26,-16,-16,-6,2,-2,1
4.478336,4,7,-17,-8,-8,-4,23,24,1
4.497352,-20,54,-52,6,46,27,-12,-60,1
4.497389,6,-26,38,0,-6,0,-8,7,1
4.498668,8,3,30,0,-1,-96,-16,-35,1
4.498685,2,26,-8,14,1,30,53,13,1
4.511822,-2,-1,-27,-16,-60,-33,-30,26,1
4.511901,0,65,-71,2,53,5,17,13,1
4.518398,-5,-97,33,20,5,10,-49,-20,1
4.518414,11,50,-41,7,-7,-10,5,-18,1
4.534654,0,17,-34,-17,-27,-19,0,-3,1
4.534677,0,11,-8,-2,2,-3,16,1,1
4.536824,-4,16,-19,-13,-30,12,-17,21,1
4.536833,-14,-45,10,-1,45,11,-5,-37,1
4.557041,-15,18,-20,-6,-14,-44,-3,-6,1
4.558920,-6,33,57,14,33,23,-14,13,1
4.558941,-3,15,-21,-14,-11,9,22,-6,1
4.558948,1,-29,-4,-2,-22,-1,-6,4,1
4.572003,-10,17,-32,-14,-2,3,1,11,1
4.572033,-9,72,-48,-24,20,63,-39,-6,1
4.578322,15,-83,80,22,-9,-4,88,-5,1
4.578345,17,-22,-20,-13,-24,-15,-20,-14,1
4.594708,3,2,-18,0,-13,-12,-14,15,1
4.594728,-6,-35,6,23,34,5,16,-13,1
4.596495,1,38,-25,-8,30,-4,-17,7,1
4.596525,-8,-26,19,18,-3,-3,-13,21,1
4.624512,0,30,8,3,14,23,26,-42,1
4.624522,4,-64,31,2,-34,-12,11,6,1
4.626463,1,72,-36,-8,7,8,6,2,1
4.626491,-17,-76,1,3,25,-22,11,12,1
4.631447,-1,88,-58,5,9,-2,-41,7,1
4.631463,9,-109,14,14,-16,25,38,-3,1
4.638418,-3,43,-39,-10,-24,-52,-34,-41,1
4.638440,3,46,-21,-6,-12,18,5,24,1
4.654501,-3,-24,-7,-10,26,-3,-9,2,1
4.654509,3,14,-23,-5,9,-24,-20,3,1
4.656046,-16,-26,-15,-10,-7,-5,29,31,1
4.656063,5,2,16,-3,11,6,-16,-32,1
4.676248,7,-15,24,8,-22,6,-11,4,1
4.676270,-3,15,-2,-2,9,-28,5,-9,1
4.685061,-12,-5,-13,-5,5,32,-9,18,1
4.685066,5,55,-11,4,10,-40,-17,4,1
4.691937,-2,20,-27,-7,8,5,4,6,1
4.691960,-16,-49,84,18,-24,17,32,-19,1
4.698453,12,0,-5,-9,-10,19,-10,-7,1
4.698473,1,10,3,3,-25,1,-9,7,1
4.715873,8,-20,-2,17,12,8,2,11,1
4.715881,1,17,-27,-42,-12,-90,-6,1,1
4.716253,-5,-15,7,11,17,45,-5,3,1
4.716262,-4,-38,36,13,16,39,25,-3,1
4.737498,7,-15,12,1,-11,-6,5,-7,1
4.737529,-13,17,-16,-3,-11,-13,-35,-16,1
4.739846,6,27,-33,-18,0,38,12,19,1
4.739853,-10,-41,77,10,1,-21,-2,-18,1
4.750763,9,-13,1,1,-19,1,-1,6,1
4.750786,-1,27,-17,-7,-5,7,6,9,1
4.761919,-1,-7,-5,9,3,24,-12,-25,1
4.761927,-7,51,-73,-9,-16,-6,-12,5,1
4.775131,-7,-76,45,5,13,13,14,15,1
4.775157,7,-22,-6,9,2,-8,6,-15,1
4.777681,-16,45,53,-10,-7,-90,-16,14,1
4.777688,8,-10,-28,-18,-19,10,20,-7,1
4.797456,-2,-5,8,2,0,8,-6,-10,1
4.797500,2,7,-16,6,-4,-30,-9,15,1
4.798585,-12,27,-53,-15,5,51,-12,-10,1
4.798601,-6,-70,98,5,-2,-43,12,-1,1
4.811307,9,28,-10,-9,-15,-25,-2,-9,1
4.811316,-3,35,-7,4,0,8,1,8,1
4.820849,4,-20,5,-10,-3,27,4,-12,1
4.820857,-3,32,-31,-8,11,-4,-12,12,1
4.834679,-19,19,-54,-8,14,44,-31,-2,1
4.834695,16,-69,80,20,-6,21,62,-29,1
4.837716,6,22,-6,4,-6,-17,-11,2,1
4.837723,-3,66,-75,-4,23,24,3,8,1
4.858539,-2,-79,91,11,-10,-64,7,13,1
4.858553,-11,24,-2,12,4,9,-4,3,1
4.858557,8,-16,7,0,-13,-9,-8,-21,1
4.858560,-1,10,-33,-12,-8,30,2,0,1
4.874389,1,30,-14,-8,-11,0,5,-27,1
4.874395,-4,21,-27,-14,14,-12,-14,29,1
4.879970,-4,-76,39,14,-6,-3,10,-11,1
4.880001,3,3,-10,1,-3,14,-26,-6,1
4.894643,-9,2,-9,-10,4,-3,6,12,1
4.894664,9,-6,-5,7,31,-19,-4,-8,1
4.896443,-3,-23,1,-5,4,17,-9,18,1
4.896468,6,29,-19,-3,-7,71,39,-1,1
4.917086,-7,-53,16,-2,-10,-73,-12,-6,1
4.917103,-1,14,15,1,-11,20,-36,13,1
4.919216,7,29,-14,12,-8,-17,44,-30,1
4.919222,-8,-30,-1,-4,-2,-10,-14,-15,1
4.931097,0,41,-20,-16,-6,33,0,5,1
4.931122,-5,9,-39,-9,-9,14,-24,2,1
4.943034,3,-80,16,-3,9,-15,-1,-1,1
4.943059,4,-2,13,-3,-8,-22,10,3,1
4.954682,-2,50,21,7,-15,-8,-24,-8,1
4.954730,2,-31,-5,-3,-14,10,12,-3,1
4.957053,-14,43,-6,1,43,22,-6,12,1
4.957058,8,30,-56,-8,-16,-22,-9,-7,1
4.977174,-24,39,67,33,41,-6,18,23,1
4.977193,24,-11,-9,-10,-25,10,25,-11,1
4.978804,-7,-8,-11,-8,-30,-15,-14,-11,1
4.978830,-6,0,-5,-1,8,-7,-5,10,1
4.991145,-3,50,-51,-8,12,3,2,11,1
4.991175,-2,-23,7,-5,-16,-14,3,-24,1
4.999759,2,25,-8,11,7,27,7,19,1
4.999782,0,-7,20,16,14,-9,-17,-8,1
7.015781,3,-11,-8,-8,-3,-2,-1,-1,0
7.016130,1,-3,0,3,13,-1,-1,0,0
7.024459,3,17,-7,-3,-6,-3,-1,-2,0
7.024487,-2,-10,-1,-8,-3,-2,-1,0,0
7.038864,2,16,7,17,13,1,3,-1,0
7.038880,-2,-5,5,5,11,0,0,-2,0
7.039669,-1,12,4,0,3,0,0,-1,0
7.039674,-4,-5,-8,-5,-11,-1,-2,-2,0
7.061491,0,-1,2,-7,-12,-5,-1,2,0
7.061512,-1,-20,-22,-5,7,-1,0,0,0
7.062414,-4,16,10,0,0,1,-2,-1,0
7.062468,-1,-46,-8,-1,11,-2,0,-2,0
7.084844,0,4,-2,2,-1,-2,0,0,0
7.084874,-1,-3,9,-5,-44,1,-3,-1,0
7.088521,-6,7,-6,-7,50,1,-3,-2,0
7.088527,7,51,4,21,-20,2,3,1,0
7.098875,-2,-36,5,-7,8,-4,0,-2,0
7.098891,-2,-38,0,0,-33,3,-3,-3,0
7.099873,-8,0,-2,3,19,0,-2,-3,0
7.099878,-6,-2,4,-4,-7,-4,-3,-3,0
7.122231,-1,8,-9,-6,-15,0,0,1,0
7.122246,0,15,2,-1,17,-2,1,1,0
7.122253,3,-1,-1,-3,-26,-4,0,-2,0
7.122259,0,-3,-1,5,-19,2,-1,-2,0
7.153341,-3,2,1,0,3,-1,0,0,0
7.153356,0,-2,7,2,19,-2,-3,0,0
7.153363,2,45,-5,-7,-19,-1,-2,2,0
7.153369,-4,-44,-3,-10,-8,-1,-1,-1,0
7.159452,1,9,-3,3,-4,-1,-1,2,0
7.159479,4,18,0,10,17,1,3,2,0
7.162081,0,3,1,-5,-46,-1,0,-3,0
7.162092,-5,-5,-4,-4,46,-1,-2,-3,0
7.183640,3,2,-1,2,8,0,-2,1,0
7.183646,-2,-5,-3,-12,1,-2,-1,-1,0
7.183649,-3,-10,-9,-5,17,0,-3,-1,0
7.183652,7,24,0,-2,31,-2,-3,0,0
7.204531,-9,-16,-1,9,24,2,0,0,0
7.205900,2,-30,-3,-1,-38,-8,0,0,0
7.205906,11,5,4,3,5,-1,-1,4,0
7.205909,-22,-2,5,1,25,2,-1,2,0
7.219551,10,16,-10,-13,1,1,-2,-2,0
7.219571,0,9,1,3,-15,-2,-1,-2,0
7.220904,0,-19,0,-3,13,2,-2,-2,0
7.220911,10,21,3,0,-37,-4,0,0,0
7.241768,-8,35,-9,0,-38,-1,0,-1,0
7.241798,-13,0,3,-3,37,4,-1,0,0
7.244151,1,16,-1,7,-13,-1,0,-3,0
7.244163,-3,1,-4,-10,4,1,0,-1,0
7.264929,-3,6,1,14,16,-3,0,-3,0
7.264964,8,19,7,6,-1,-1,-3,-2,0
7.265280,-8,-22,3,3,13,2,0,-1,0
7.265299,6,7,-9,-9,-21,-2,-1,-2,0
7.279032,2,-17,2,-5,4,0,0,0,0
7.279072,-2,39,-5,4,9,0,-1,-3,0
7.280056,-4,-51,-4,2,-3,-1,0,-3,0
7.280096,-1,15,1,1,-3,-1,-2,2,0
7.301641,0,7,-2,-13,-50,-6,-4,-4,0
7.301661,1,-20,3,5,13,10,1,1,0
7.303365,4,19,-4,-1,-22,-2,-1,0,0
7.303373,-8,1,6,0,3,-1,0,-2,0
7.324477,4,0,-1,-4,3,-1,-3,-2,0
7.324489,1,18,2,-2,2,-1,-1,-2,0
7.326022,-8,0,-3,0,9,-2,2,0,0
7.326060,4,-60,-7,6,-26,-1,0,2,0
7.347507,4,-2,1,-12,16,0,1,1,0
7.347536,-4,-2,-5,0,8,-4,-2,-2,0
7.349720,4,16,1,-10,-1,-1,0,1,0
7.349728,-1,22,1,8,-25,1,-1,-3,0
7.361348,-9,-20,-9,-2,13,-2,-2,-2,0
7.361364,0,-3,0,-3,3,-4,-1,-1,0
7.363532,1,-9,1,8,10,-1,-1,2,0
7.363551,3,40,2,-3,6,-1,0,3,0
7.384524,-2,-26,0,0,-20,-3,-2,-1,0
7.384533,0,-6,-6,-10,-1,-4,1,1,0
7.385150,2,5,-9,-3,-6,1,-4,-2,0
7.385157,-2,12,1,-5,-9,-4,-2,-4,0
7.400091,-4,-11,1,0,34,-3,-2,-1,0
7.400099,-6,21,2,8,18,-1,-2,-4,0
7.400102,-2,-8,-4,-1,-22,-2,-1,1,0
7.400105,1,-11,-3,1,10,1,-2,0,0
7.421402,0,2,5,-2,-14,-1,1,-1,0
7.421417,-1,-6,-1,-3,-25,-1,0,-2,0
7.423551,-1,-5,-5,-4,17,0,0,-1,0
7.423556,0,18,-3,-2,3,-5,-4,-3,0
7.444722,6,-28,-4,3,-17,-1,-2,0,0
7.444753,-6,-11,-3,-9,10,-1,-1,0,0
7.447225,2,35,5,0,-2,1,-1,-1,0
7.447233,-3,-20,-1,-4,-14,-9,1,2,0
7.459344,6,25,-3,-4,44,3,0,1,0
7.459364,-2,-6,0,-2,-2,3,-3,-3,0
7.461037,-1,-13,0,-1,5,0,-1,-3,0
7.461043,1,-9,0,-2,-44,-3,2,1,0
7.489731,-6,25,1,2,13,0,0,-5,0
7.489753,-3,-8,1,3,-2,-1,-1,-3,0
7.493041,0,-25,3,-2,3,-3,-2,0,0
7.493050,3,-24,-4,-4,-26,3,0,1,0
7.504568,-12,3,2,7,-10,0,-1,-1,0
7.505794,6,13,1,-2,-14,-1,0,-3,0
7.505805,-1,4,2,2,-10,-2,-2,-2,0
7.505812,-6,-9,-4,-5,26,2,-2,-5,0
7.519016,5,1,-1,-2,-11,-1,-1,0,0
7.519080,-3,-10,5,0,17,1,1,1,0
7.520327,5,14,1,5,-13,-3,-2,-1,0
7.520333,-5,-14,-5,-2,26,-2,-2,-2,0
7.541468,0,22,5,-1,-12,1,-1,-2,0
7.541482,1,-47,-5,-6,-6,1,1,2,0
7.542271,-3,-4,3,9,17,1,-1,-2,0
7.542300,-9,-4,-5,3,6,-4,-2,-1,0
7.564642,1,-10,2,-3,-27,-2,1,-1,0
7.564661,-3,11,-3,5,21,0,0,4,0
7.566936,-1,-9,-2,1,28,-1,-1,-1,0
7.566943,3,-5,6,11,25,7,-1,-1,0
7.578984,-1,-1,-5,4,-19,-2,-2,-1,0
7.579007,-9,-3,-7,-14,21,-1,-1,-1,0
7.581548,2,-2,-5,-6,-18,-1,1,0,0
7.581556,-2,58,8,2,1,-2,1,-3,0
7.603828,-7,-36,-7,-4,13,-1,-4,-2,0
7.603834,2,9,0,3,-12,-1,-1,-1,0
7.603837,3,-1,1,-2,-27,0,-1,-3,0
7.603840,0,-5,-4,-6,23,-1,0,0,0
7.624904,2,4,2,1,15,2,1,-1,0
7.624934,4,3,-1,0,-22,-4,-2,-4,0
7.627472,-7,-3,-2,-4,31,0,2,-1,0
7.627478,3,6,0,0,-13,-5,-3,-1,0
7.638853,-5,-67,-11,4,59,-1,-1,-2,0
7.638872,0,-1,0,2,-7,0,-3,-3,0
7.640517,-2,16,0,-2,-2,-4,0,1,0
7.640523,4,-10,0,-10,-27,1,1,0,0
7.661418,10,11,-1,0,-1,-3,0,1,0
7.661437,-12,16,5,7,-3,-1,0,-1,0
7.662547,-3,-34,-7,-8,-7,-2,-3,-1,0
7.662557,-8,-32,-5,-7,-19,-1,-2,-1,0
7.684770,2,18,3,-6,-14,-1,-1,1,0
7.684793,6,-6,1,10,2,0,-1,-4,0
7.685440,-4,20,1,0,-15,-1,1,1,0
7.685516,-4,-3,-8,-5,-1,-2,-3,-2,0
7.698305,-6,-41,-3,-7,-4,2,1,0,0
7.698324,3,4,0,1,5,-1,1,1,0
7.706776,-2,10,-2,-8,-27,-2,-1,-3,0
7.706815,-1,7,-1,13,24,1,-2,0,0
7.721548,-3,22,3,-2,-12,-3,-1,-3,0
7.721563,-4,-15,-8,-9,3,-3,-1,0,0
7.724152,0,-7,0,-2,-6,-2,-3,0,0
7.724157,-3,-6,1,-7,12,-1,-4,-1,0
7.744664,-2,15,1,9,44,1,1,1,0
7.744691,-4,-10,-6,1,-2,1,-3,-2,0
7.745525,0,34,2,1,8,-1,-2,-1,0
7.745614,3,-21,-6,-7,-2,-3,-1,-3,0
7.767329,-6,3,1,4,-7,-2,-1,0,0
7.769319,1,6,3,-5,-7,-3,-2,-1,0
7.769330,-6,-1,-1,3,-3,-1,0,-4,0
7.769335,2,10,1,-2,5,1,1,1,0
7.789788,3,6,4,9,-2,-2,0,-1,0
7.789794,0,7,0,4,17,1,1,-2,0
7.790112,-5,-16,6,8,-7,2,0,1,0
7.790120,1,1,-1,-7,1,-2,0,0,0
7.806344,-5,3,-5,-10,-17,-1,-4,-2,0
7.806352,1,2,2,-4,-5,-4,0,0,0
7.806355,2,-2,-1,-5,9,-1,-1,0,0
7.806358,-3,-62,-3,1,9,1,-2,-4,0
7.818463,-1,11,-1,0,-19,-1,-2,0,0
7.818487,-3,6,-3,-4,-12,-3,-2,0,0
7.826657,0,-4,-1,-11,-20,0,-2,-1,0
7.826676,2,32,1,-21,15,-3,-4,0,0
7.841970,9,4,-5,17,-12,4,0,-1,0
7.841992,7,-16,1,-12,7,-2,0,-1,0
7.842276,0,3,-2,9,47,-1,-1,-4,0
7.842303,-5,3,-1,3,-19,-1,0,0,0
7.864644,-1,3,-3,-16,0,-4,-2,-2,0
7.864674,-2,5,-1,-5,-20,-5,-1,1,0
7.865819,2,-3,-1,-1,-6,-2,-3,-3,0
7.865826,-1,-25,-3,1,-9,3,-2,-2,0
7.878356,-4,-8,1,1,1,-1,0,-2,0
7.878380,-6,-14,-3,-4,-13,1,-2,2,0
7.886878,-2,-6,-2,0,17,0,-1,0,0
7.886899,0,16,3,13,-2,-4,0,-2,0
7.901533,3,7,5,-8,-3,-1,0,-1,0
7.901556,-1,-3,0,1,-10,-3,0,-1,0
7.902220,3,8,-2,-9,-1,0,-2,1,0
7.902257,-1,3,-1,-5,-2,-2,-2,-2,0
7.924600,3,-1,-2,3,-3,-3,-2,-1,0
7.924616,-2,12,-1,-7,-20,-8,-2,-2,0
7.927545,1,-36,-7,8,7,3,1,1,0
7.927556,2,2,0,9,-22,-2,2,2,0
7.938388,-1,16,8,-9,27,1,0,-1,0
7.938413,2,-14,-11,7,1,-1,-3,-2,0
7.946811,2,5,-1,-4,-14,-2,0,2,0
7.946858,-3,6,4,10,8,0,1,-2,0
7.961565,-4,-5,-2,-2,-6,-2,-2,-1,0
7.961587,-2,13,-1,-8,-3,1,-2,-3,0
7.962100,-2,1,-1,-5,6,-2,-3,0,0
7.962117,-2,3,-2,-10,-6,2,-1,-1,0
7.984754,6,37,2,6,37,0,0,3,0
7.984779,-2,-57,-3,-5,-1,1,1,-4,0
7.986892,-9,-29,-3,6,-16,-5,-1,-1,0
7.986902,3,14,2,0,23,2,1,3,0
7.998337,-6,-4,-4,-12,-66,-2,-1,-2,0
7.998365,6,19,3,2,13,2,-3,0,0
8.007281,-1,-3,-6,0,-6,-3,2,-1,0
8.007286,-7,-4,-2,-3,3,-2,-1,-2,0
8.023710,-3,-3,-1,-4,-16,-5,-2,-2,0
8.023760,-4,2,-5,4,5,1,-2,0,0
8.023763,-3,6,9,-15,-14,-1,-1,-3,0
8.023767,-1,7,2,13,-1,1,-2,-4,0
8.044611,-2,-12,-9,-7,-9,-4,-3,-3,0
8.044627,2,12,6,10,10,0,1,2,0
8.046508,-14,-9,-6,-1,6,-1,-4,-2,0
8.046518,1,1,-5,-8,-4,-3,-1,0,0
8.069176,-2,23,2,-1,7,-3,-4,-2,0
8.069186,-5,-66,-6,-4,16,2,-1,-2,0
8.069189,4,21,2,3,-19,-4,1,-1,0
8.069192,1,4,0,2,-2,-1,0,1,0
8.081442,-2,-8,-2,-4,-9,-1,0,-2,0
8.081459,-2,30,2,-1,0,-2,0,-1,0
8.083416,3,3,-5,-5,-5,-1,-1,-2,0
8.083421,-5,-10,1,-5,-5,-1,1,-2,0
8.105297,2,-4,2,19,10,0,2,0,0
8.105333,-2,16,7,-3,-6,2,-1,-2,0
8.105464,-8,6,-6,-3,18,1,0,1,0
8.105471,-6,-2,-1,0,-23,0,-1,-3,0
8.127140,0,-7,-3,-6,-8,-3,-3,3,0
8.127157,2,4,-4,-2,4,0,3,0,0
8.129311,6,10,1,1,-13,-4,-3,-2,0
8.129336,-1,8,2,-2,41,4,-3,-3,0
8.141795,-2,-14,-2,-2,-4,3,1,0,0
8.141828,1,18,-3,3,-8,-3,-4,-3,0
8.144190,10,45,3,11,-12,-1,2,2,0
8.144198,-4,-58,-5,-4,-11,-2,0,2,0
8.164929,1,-3,-1,-3,4,-1,2,-3,0
8.164948,-2,7,-5,-11,-28,-4,-1,-2,0
8.165264,3,24,3,2,22,3,0,-2,0
8.165280,1,-7,4,5,0,2,-1,-3,0
8.187405,-1,1,3,-2,14,2,-1,-3,0
8.187423,-2,-8,-1,-5,-42,-1,-3,-2,0
8.189673,-2,-18,-6,-6,-15,-5,-3,-2,0
8.189683,4,12,2,-1,-13,-2,1,-1,0
8.201549,-5,17,-6,0,45,1,-3,-1,0
8.201574,-4,-34,-2,-1,24,-1,-2,-2,0
8.203812,-3,-12,7,-5,-43,-3,-2,-2,0
8.203821,-5,13,-5,4,37,-2,-4,0,0
8.224868,5,8,0,-4,-27,0,-1,-1,0
8.224891,-1,25,3,-3,18,0,-1,-2,0
8.227206,-12,-27,-7,8,14,3,-1,-1,0
8.227216,1,-23,7,-2,-11,-4,1,0,0
8.247402,-1,-7,-1,-1,-5,-1,0,-1,0
8.247433,0,9,3,-1,5,-4,-2,0,0
8.247681,-1,-2,-2,-2,18,-1,-1,-2,0
8.247688,-3,-33,-6,-6,-15,-2,0,0,0
8.261665,-3,-14,-5,-7,0,-2,-1,0,0
8.261690,3,8,7,1,11,1,1,-1,0
8.262265,-5,-7,3,-6,2,1,-1,0,0
8.262304,-2,27,-1,1,12,-2,-1,2,0
8.284858,-3,-3,0,-4,-12,0,-2,-1,0
8.284876,0,2,4,-2,-21,-3,-1,1,0
8.286090,-6,-22,-4,-7,-10,-2,1,-1,0
8.286096,2,13,0,0,7,2,0,-3,0
8.306984,-3,-15,0,3,42,1,-1,1,0
8.306995,2,9,-4,1,-6,-1,-2,0,0
8.307690,2,-2,3,-2,5,-2,0,1,0
8.307707,1,11,-3,-3,-8,-1,1,-2,0
8.323549,0,5,0,4,-19,-3,-1,2,0
8.323556,0,-9,-4,-4,-5,-1,-1,0,0
8.323559,5,11,-7,-11,2,-5,-2,-1,0
8.323562,0,8,1,-7,-9,-7,-3,-2,0
8.344541,1,-9,0,-3,-6,-1,-2,-1,0
8.344560,1,7,-9,11,20,-1,1,1,0
8.345402,-3,7,1,1,-6,0,-1,-3,0
8.345437,2,10,-1,-4,12,0,-2,3,0
8.368307,1,2,-2,-10,-31,-1,-3,-3,0
8.368319,-3,-6,-1,5,1,-1,-1,0,0
8.368322,5,11,-3,-4,-3,-1,0,-2,0
8.368325,-4,-54,-7,6,-9,-2,-1,1,0
8.381404,0,6,3,0,9,-2,-1,-1,0
8.381422,-1,2,-1,-1,-2,-1,-1,-3,0
8.383985,3,-7,-7,-1,-1,2,-2,0,0
8.383994,-3,21,2,-4,0,-2,-1,-1,0
8.404998,-4,-18,0,1,2,-1,0,-5,0
8.405038,-1,-3,-1,0,-17,-5,1,-2,0
8.406164,-1,29,3,1,19,2,1,3,0
8.406171,-3,-24,-2,-1,-16,-4,-4,-4,0
8.427225,5,0,-7,-8,0,2,1,1,0
8.427244,2,15,1,12,-14,0,1,0,0
8.429336,-7,-10,1,-1,1,-1,-1,-3,0
8.429356,-2,4,-4,-4,17,3,-1,1,0
8.441841,-3,-10,0,5,-12,-3,-2,-2,0
8.441878,1,-2,-5,-9,37,-2,-2,-1,0
8.444572,-2,-8,-4,-5,-9,-1,0,0,0
8.444582,-3,11,2,4,7,2,-2,-3,0
8.464705,-3,2,4,0,-17,-1,0,0,0
8.464724,-2,-38,-11,-11,19,0,-3,-1,0
8.465179,-2,-11,0,9,-3,1,0,-1,0
8.465195,7,19,7,2,-7,-5,-1,0,0
8.487180,-8,-6,-8,5,6,-1,-1,2,0
8.487196,-4,14,-1,-13,-5,-2,-2,-2,0
8.488917,1,-11,2,12,10,0,1,-2,0
8.488923,3,8,-1,-4,-16,0,0,-2,0
8.501790,-2,0,0,-7,3,-3,0,-1,0
8.501815,-2,-16,-1,8,-12,-3,-2,-2,0
8.504182,0,-5,-6,-5,12,0,0,1,0
8.504195,0,19,-1,-4,-10,-1,1,-2,0
8.525732,-6,-23,-10,1,15,0,-3,-1,0
8.525797,2,18,7,-4,-3,-7,-1,2,0
8.525802,2,-9,-1,-3,10,4,-1,1,0
8.525805,-5,-10,-4,-4,1,-2,-3,-3,0
8.547410,8,33,6,8,-46,-2,0,0,0
8.547438,-6,-8,0,4,3,-1,-1,-2,0
8.548639,2,-2,1,7,17,0,-1,0,0
8.548654,4,57,-2,-2,4,1,0,-2,0
8.561440,-4,-49,-7,-8,-11,-2,-1,-2,0
8.561471,-6,-1,-5,-7,-11,0,-3,0,0
8.563397,2,3,3,-7,-39,0,-2,-1,0
8.563409,-2,5,3,2,14,-1,-2,-3,0
8.587318,2,12,4,0,9,-1,0,-2,0
8.587324,-1,1,0,3,-2,3,-1,-1,0
8.587327,0,-1,-4,-3,5,-4,-2,-2,0
8.587330,-11,-39,-7,-2,-12,-1,-1,0,0
8.607076,5,14,4,6,11,-2,-1,2,0
8.607091,3,38,-2,-8,11,0,1,-1,0
8.607879,-6,-30,-3,-7,-17,-6,-5,-7,0
8.607986,0,-1,-1,3,-17,0,0,1,0
8.621232,-4,7,-3,1,18,-2,0,0,0
8.621279,0,17,8,7,-18,-1,-1,0,0
8.629046,0,9,-3,-7,15,0,0,-1,0
8.629066,-5,-11,2,7,13,1,1,3,0
8.644668,0,7,0,-3,-4,1,-3,-1,0
8.644692,-4,-18,-1,-1,-1,1,-1,1,0
8.646126,-3,5,3,1,2,-5,-2,1,0
8.646150,7,-10,-4,-3,-16,-2,0,0,0
8.667644,-10,-28,-7,-6,-2,0,-1,-3,0
8.667663,-7,-13,6,-6,-16,0,0,-1,0
8.668199,-3,14,-4,8,3,3,-1,2,0
8.668336,1,-8,1,5,9,-2,-3,-2,0
8.681124,2,4,1,2,0,0,0,0,0
8.681147,-1,-17,-5,-2,22,-3,0,-1,0
8.689068,-1,-1,-5,-4,-41,-3,0,-2,0
8.689092,2,37,3,-5,21,2,-1,-1,0
8.705490,-2,-36,-6,3,-39,-2,-1,-1,0
8.705515,1,2,2,-1,44,-3,1,0,0
8.707340,5,10,5,5,15,1,0,0,0
8.707347,1,9,-9,-1,34,-1,-3,-4,0
8.728323,-1,4,-3,-1,-9,-3,0,-4,0
8.728331,0,3,-3,-1,21,3,-1,-2,0
8.728334,-3,-5,2,0,-22,-1,0,0,0
8.728337,-3,-4,2,-6,-1,-4,-2,1,0
8.742381,2,2,4,4,19,6,-1,0,0
8.742395,0,0,-5,0,-14,-2,-1,-1,0
8.749028,-5,-11,-3,-7,21,2,-3,-2,0
8.749054,3,32,7,3,-31,-2,0,-3,0
8.764636,0,-51,-2,-3,-27,-1,0,-2,0
8.764654,-7,2,3,6,14,2,-1,-2,0
8.765709,2,12,-15,-10,-8,-3,-1,0,0
8.765715,-4,-21,-3,-3,-13,1,0,0,0
8.787382,-4,31,2,-6,4,-1,-3,-4,0
8.790189,1,-5,-1,-2,-12,2,-1,1,0
8.790196,3,21,2,5,17,-4,-1,-2,0
8.790199,-9,-61,-6,0,-2,-1,0,-2,0
8.800923,-2,27,3,3,21,2,-1,-2,0
8.803184,-6,-12,-9,-14,-28,-4,-1,1,0
8.809595,0,5,2,7,-5,-2,0,1,0
8.809628,2,3,-1,0,10,1,0,2,0
8.824538,0,16,0,-2,27,-4,-2,-1,0
8.824549,3,-8,-4,4,-33,1,0,-1,0
8.825475,-7,-12,3,-5,-64,-4,-3,-2,0
8.825506,-3,19,-4,-3,-15,-1,-1,-4,0
8.847520,-3,-56,-8,-5,-2,0,0,0,0
8.847553,3,13,-4,-1,25,-2,-3,0,0
8.848547,0,-3,8,7,-2,-2,-1,-2,0
8.848557,0,2,-4,-4,-8,1,-1,-1,0
8.860748,-3,32,-4,-7,6,-2,-1,3,0
8.860764,2,-10,1,-3,-10,0,1,-6,0
8.868934,0,-3,-3,-10,36,0,-1,1,0
8.868964,2,-4,-2,1,-38,-4,-2,-2,0
8.884497,4,12,-1,1,15,1,2,1,0
8.884507,0,-3,0,-2,-2,-4,-1,-1,0
8.885285,3,7,-3,-4,-31,1,1,1,0
8.885293,3,-7,-1,3,3,1,0,-2,0
8.907252,3,38,-2,-4,4,-3,-2,-1,0
8.907275,-3,-10,0,2,-2,3,0,0,0
8.910066,0,-1,-1,-6,6,-1,0,-1,0
8.910081,-3,-5,-3,0,-4,0,-1,-1,0
8.931409,-1,5,2,1,-27,-2,-1,-2,0
8.931416,-4,1,-3,-10,23,1,-2,-1,0
8.931420,-1,-7,5,5,-1,-4,-2,4,0
8.931423,-2,2,5,5,-4,2,-1,2,0
8.944202,1,-8,-2,1,11,-4,0,-1,0
8.944225,-6,-10,-2,7,40,7,-4,-1,0
8.951504,0,-6,3,1,5,-5,-2,-4,0
8.951526,-5,-43,-3,-1,29,2,0,-2,0
8.967145,1,14,-5,-5,-15,-3,0,-3,0
8.967163,-17,-12,-1,-1,11,-4,-1,-1,0
8.968853,-1,-18,-4,-2,1,3,-1,0,0
8.968873,4,10,-6,-5,-2,-3,0,2,0
8.989508,-4,1,-1,-3,-11,-2,-2,-3,0
8.989524,7,0,-2,2,-6,-4,-2,-2,0
8.991043,-1,11,2,2,18,1,0,0,0
8.991077,0,-19,-4,-15,-18,-3,-1,-2,0
9.004172,2,-11,-5,5,-6,-2,-2,-2,0
9.004191,0,20,13,8,19,0,1,0,0
9.010738,0,-14,-6,-1,-27,-4,1,-1,0
9.010756,4,21,-3,-14,-45,-2,-3,0,0
9.027158,5,1,5,12,39,0,-1,1,0
9.027338,-25,-39,-5,-5,-45,-1,-1,-3,0
9.028793,2,0,2,5,-20,3,-2,-1,0
9.028829,-1,30,0,4,31,0,3,2,0
9.049552,-4,-11,-5,-8,-11,-1,-3,-2,0
9.049568,9,18,-4,-7,12,-2,1,5,0
9.051055,-6,2,10,8,2,-1,-2,-1,0
9.051093,-3,13,-4,-1,-1,-3,-1,-3,0
9.063948,-4,-5,8,0,-10,0,-2,0,0
9.063968,5,3,-2,-4,-18,-2,-1,-3,0
9.071064,-2,1,-12,-13,21,0,-2,-2,0
9.071082,2,3,9,9,9,-2,-1,-2,0
9.088582,-5,-42,-5,-3,7,0,-1,-2,0
9.088593,4,16,-7,-5,-21,-3,-1,0,0
9.088596,-7,2,7,8,37,2,0,1,0
9.088599,-4,-7,1,5,61,3,-3,-1,0
9.110008,0,14,0,-1,-42,3,1,-2,0
9.110043,4,8,0,-3,-3,-3,1,-1,0
9.112501,0,-8,-3,-6,-33,-7,0,-1,0
9.112519,8,9,1,6,49,5,-1,-1,0
9.124058,-9,3,1,-3,3,2,0,-3,0
9.124080,2,-3,7,1,-2,0,-1,1,0
9.130777,-7,-5,-6,1,28,-1,-1,-5,0
9.130794,-4,-16,-11,-7,-32,-4,-3,-2,0
9.147348,6,49,7,1,9,-1,0,2,0
9.147369,4,-28,2,4,-10,2,0,-3,0
9.149700,-5,-12,-3,-10,11,1,-1,1,0
9.149708,-4,-8,-2,4,-33,-2,-1,0,0
9.169957,1,-1,-2,2,2,-2,-1,0,0
9.169982,-2,16,-8,-5,10,-2,-2,-1,0
9.171245,4,4,5,8,-12,5,2,-2,0
9.172983,1,2,7,-3,-28,-6,-1,-1,0
9.183903,-3,-4,0,-6,12,0,-1,1,0
9.183919,1,-13,-5,-6,-19,-2,-2,-2,0
9.191024,-6,-16,-4,0,3,-3,-5,0,0
9.191056,-4,0,-4,-12,-11,-4,-1,-2,0
9.207596,4,3,4,5,-11,-3,0,-3,0
9.207624,-10,-8,1,-4,-15,-1,-2,0,0
9.209054,4,17,-7,-4,-2,0,-2,-1,0
9.209076,1,0,4,-5,-1,0,1,0,0
9.229744,-5,-52,-7,-5,-6,-1,-4,-2,0
9.229779,2,8,-4,5,6,2,1,-2,0
9.231307,0,4,4,2,22,0,0,-1,0
9.231373,-9,-1,2,4,43,0,0,-2,0
9.245330,1,4,0,-2,-30,-2,-1,0,0
9.245339,3,7,1,2,-9,0,-3,0,0
9.250805,3,-39,-5,1,4,1,0,-1,0
9.250821,2,0,3,-1,-18,0,1,4,0
9.267189,-5,7,5,6,52,1,-1,-4,0
9.269458,-9,31,-13,-5,-4,1,-2,-3,0
9.269465,-1,-2,3,-2,-18,-3,-2,-1,0
9.269468,-1,4,-1,4,3,3,-3,-2,0
9.289972,3,-4,-4,-5,-7,-2,-1,3,0
9.290007,5,28,3,-6,0,-1,0,0,0
9.292965,-1,-18,-2,4,3,-2,-1,-3,0
9.292979,-1,12,-6,-5,-30,-1,0,-2,0
9.304019,0,-9,-2,-2,7,-1,-1,1,0
9.304045,-1,-7,8,3,16,-1,-2,-3,0
9.318477,-10,5,-9,-13,-25,-2,-1,-1,0
9.318503,0,-10,3,0,-12,-5,-3,-2,0
9.327359,-1,15,-1,5,8,3,-2,-2,0
9.327380,1,-20,-3,2,15,-2,0,1,0
9.328903,6,14,2,-1,-1,-3,-1,0,0
9.328933,-2,3,2,-5,7,2,-2,-3,0
9.349620,-1,7,2,-4,-7,-2,-1,0,0
9.349636,-4,-8,1,8,1,4,-2,2,0
9.351228,1,-4,-7,-16,6,-3,0,0,0
9.351250,-10,11,-8,0,-6,-3,-2,-2,0
9.364553,0,-5,-3,-6,-5,-2,0,-2,0
9.366860,9,16,5,3,-5,1,-2,-1,0
9.370838,2,-10,-1,-2,7,-1,-1,1,0
9.370860,-2,-1,2,-4,8,0,0,0,0
9.387201,-1,7,1,6,-11,2,0,-1,0
9.387220,-2,46,1,6,41,-2,-1,-4,0
9.388560,3,-26,2,3,-3,0,2,0,0
9.388577,2,3,-6,0,3,0,0,-3,0
9.409886,-7,2,1,-5,-19,-3,-3,-2,0
9.409913,4,-1,1,-6,-6,3,0,-1,0
9.412301,-5,13,0,-1,-10,-2,-2,-1,0
9.412309,1,-10,-6,3,-15,-1,0,-1,0
9.424765,-4,-11,0,2,10,-3,0,-1,0
9.424799,-4,-6,0,3,-16,-2,-1,0,0
9.432141,-4,-11,-4,-10,5,2,-1,-2,0
9.432157,3,-31,-7,-13,-8,-2,-2,0,0
9.454724,6,20,1,6,-16,-2,-1,0,0
9.454747,-7,-22,-7,-5,-13,-1,-3,-2,0
9.456863,1,7,4,8,8,-2,-1,-1,0
9.456870,2,18,8,3,-9,-4,1,0,0
9.469850,-4,-5,-8,-8,17,-2,-2,-1,0
9.469873,3,-19,-2,-7,-7,-5,-2,0,0
9.471157,0,21,1,13,-2,0,-2,-2,0
9.471193,-6,-20,-3,-1,-47,-3,1,1,0
9.483304,2,32,-5,-6,24,0,-1,1,0
9.483320,0,-20,-5,-5,15,2,0,-1,0
9.494343,-8,1,-3,0,-2,-2,-3,0,0
9.494354,2,5,-2,-1,6,1,0,-1,0
9.507383,-2,-5,-4,-10,-12,-3,-2,-2,0
9.507406,1,-1,5,12,2,-4,0,-2,0
9.510269,4,12,0,0,1,0,-2,-1,0
9.510279,-3,-1,1,4,14,0,-1,-2,0
9.529886,-4,-12,-1,-9,-20,-4,0,2,0
9.530082,-1,-1,1,6,17,2,-4,-3,0
9.531206,6,49,-7,-1,-34,-1,0,0,0
9.531231,7,-30,-5,-3,25,-4,-3,-2,0
9.543395,-16,-38,-1,0,20,2,-1,-1,0
9.543408,2,3,0,-4,-9,-2,-1,0,0
9.553292,-7,30,1,-3,26,-1,1,2,0
9.553299,4,-7,6,-2,4,0,-1,1,0
9.567134,-1,21,-4,2,23,-5,-1,-4,0
9.568961,-2,-8,-2,-1,-13,0,-2,-1,0
9.568970,-5,-14,1,-6,-3,0,-2,-4,0
9.568973,-3,6,-4,-1,3,0,-1,0,0
9.589476,1,-4,2,1,4,3,-1,-1,0
9.589486,-5,-2,7,5,-14,-2,1,-1,0
9.591038,-1,-13,1,1,13,2,-1,-2,0
9.591055,-4,4,-8,-4,10,-1,-3,-1,0
9.603261,-2,7,11,9,-21,-2,-2,-4,0
9.603297,-3,-11,-8,-7,4,4,0,4,0
9.613901,3,-8,2,0,-22,2,1,2,0
9.613916,-14,0,-3,-8,1,1,0,-1,0
9.627438,1,19,-7,4,-4,-4,-3,-1,0
9.627460,4,-19,3,-6,-1,-2,1,-2,0
9.629010,1,0,5,0,9,0,-2,1,0
9.629018,-3,-10,0,4,-9,-1,1,1,0
9.649598,0,1,-1,-11,-27,4,0,-1,0
9.649639,-4,6,4,5,7,0,-3,-3,0
9.651047,-2,-5,-5,3,7,-2,-1,1,0
9.651058,-1,2,3,-2,-7,0,0,2,0
9.663649,2,-13,-12,-17,-9,-1,-2,1,0
9.663690,3,6,3,9,-9,-3,-1,-1,0
9.673622,-3,-17,0,0,3,-3,-1,0,0
9.673628,7,11,-1,-1,-4,0,-4,-4,0
9.687049,1,24,-3,2,-27,2,1,0,0
9.687065,-6,-19,-6,-19,-22,-2,0,1,0
9.688588,-6,0,-1,1,11,-4,-2,-3,0
9.688602,3,23,5,3,3,0,-1,1,0
9.710259,-1,-18,4,3,-3,-1,-1,-3,0
9.710282,-1,41,-8,-4,14,-2,0,0,0
9.711737,0,-9,-2,-3,-14,1,0,-2,0
9.711745,-2,7,4,-1,-7,-1,0,1,0
9.723154,0,-16,1,0,10,1,-2,-2,0
9.723170,-2,6,-4,5,-6,-4,0,1,0
9.732184,-2,-9,1,-2,18,2,-3,-1,0
9.732202,1,-1,1,4,7,-3,-2,0,0
9.747379,-3,7,1,1,14,-2,0,1,0
9.747415,-1,-19,-7,-7,-9,0,-1,-2,0
9.748768,-2,13,-7,1,-9,-3,0,-1,0
9.748787,-7,-10,-3,-2,60,3,-2,-2,0
9.769773,3,-17,3,-1,-30,0,0,1,0
9.769791,-3,4,-7,0,8,2,-1,0,0
9.771285,8,11,6,-8,-5,-2,-2,-2,0
9.771290,-4,-12,-6,-4,-22,-2,0,-1,0
9.783284,-3,19,0,4,11,0,0,-2,0
9.783300,-1,-11,2,-1,-9,-5,-3,-1,0
9.795264,-3,-8,-4,-8,2,0,-2,1,0
9.795273,4,10,0,0,-3,-5,-1,-1,0
9.806994,0,-21,6,-1,3,-1,-2,0,0
9.807003,-4,33,-1,-7,-9,0,-1,-2,0
9.808596,2,-27,-6,4,2,-2,-2,1,0
9.808613,-2,2,3,-3,4,0,-1,-2,0
9.829949,-7,-28,-3,8,-9,2,0,-3,0
9.829998,1,10,3,0,23,1,-1,-1,0
9.832190,2,7,1,-4,-29,-4,0,-2,0
9.832198,-1,-2,2,8,10,-1,0,-1,0
9.843307,-3,-6,-7,-7,1,-3,-1,-3,0
9.843335,-2,-64,-4,4,-6,-1,-1,-2,0
9.861564,-5,-10,-5,-13,15,-1,-2,0,0
9.861573,0,3,0,2,-37,0,0,-1,0
9.867348,1,16,-1,0,-10,-4,0,1,0
9.867373,-6,1,-1,0,44,1,-2,-2,0
9.869297,1,-7,3,4,-30,2,0,-4,0
9.869305,-1,-7,-5,-7,16,1,1,0,0
9.890064,-6,-13,-6,-2,-1,-3,-1,0,0
9.890088,2,11,5,9,-10,-3,-2,-3,0
9.892463,-1,33,-6,1,6,-2,1,-1,0
9.892477,-7,-13,0,-2,-11,-1,-3,1,0
9.912140,-11,-12,-5,-5,6,0,-1,0,0
9.912158,3,-7,-1,-7,-17,-1,-1,0,0
9.914627,0,9,3,6,44,1,-2,1,0
9.914635,1,-10,-2,-1,-30,-3,0,-2,0
9.927169,1,3,1,-1,25,-3,1,-2,0
9.927193,-1,0,-2,-6,-21,-4,1,1,0
9.929058,-4,-9,-2,3,31,4,0,-1,0
9.929066,-6,-7,1,-3,-17,-1,0,0,0
9.949588,2,3,0,4,2,-1,-3,-2,0
9.949605,1,-7,4,2,-14,1,1,0,0
9.951082,2,4,-7,-6,4,-3,1,-1,0
9.952010,3,4,0,-3,-13,-2,-1,0,0
9.972070,-5,3,2,4,11,-1,-1,-3,0
9.972092,5,6,3,3,-8,1,0,-1,0
9.973916,-7,-25,-3,1,18,2,0,-2,0
9.973923,3,-1,-11,-3,12,2,-1,-2,0
9.987529,3,-7,3,-1,-16,0,0,2,0
9.987546,3,46,0,-6,-28,-3,-1,-3,0
9.989121,-3,-63,6,10,-15,-3,0,1,0
9.989133,-1,-11,-2,0,-4,-4,-1,1,0
10.009837,3,10,-3,-4,36,4,-1,0,0
10.009853,2,-3,-3,-4,-2,-1,-1,1,0
10.011100,2,27,1,-9,-9,-3,-2,-1,0
10.011119,-5,-1,0,7,-18,-1,0,-3,0
12.034558,-1,-21,-12,-15,-14,-95,31,-3,1
12.035331,-3,109,-72,-12,33,93,-80,-6,1
12.037807,-22,-76,27,12,-31,-16,-24,9,1
12.037814,6,-23,-127,13,-10,-81,-3,-51,1
12.058201,5,58,-66,-1,-28,-2,3,34,1
12.058237,-6,-24,-16,-7,2,15,-1,-9,1
12.059068,3,56,-10,-23,8,32,9,16,1
12.059090,-3,-15,24,1,10,11,-9,26,1
12.070707,-6,-19,-7,-8,-6,-38,4,-16,1
12.070724,-5,-20,27,-21,-11,-31,9,13,1
12.081089,10,-61,53,19,11,74,12,-26,1
12.081100,-8,8,4,1,1,-24,7,28,1
12.094694,-1,6,6,-6,16,-87,5,3,1
12.094718,9,-35,38,13,-24,-7,21,-29,1
12.096914,-4,12,-66,-12,14,22,-44,25,1
12.096922,-9,-60,8,-7,-37,29,3,-44,1
12.117066,-2,118,-80,-17,40,-43,12,66,1
12.117076,-7,-128,45,16,-35,35,7,-22,1
12.118524,21,28,-68,6,4,-106,-22,34,1
12.118584,4,66,-42,7,4,17,5,-15,1
12.132448,2,-18,30,17,13,30,-42,-24,1
12.132459,1,-24,47,-2,-10,27,39,-2,1
12.138601,-2,43,68,16,14,7,-15,-23,1
12.138634,0,-42,-12,-2,-20,-110,22,47,1
12.154550,18,33,43,22,13,30,-2,-6,1
12.154566,-5,42,22,3,20,6,-16,10,1
12.156047,-7,-16,-1,-25,-9,103,34,-4,1
12.156084,2,74,-32,-9,7,-84,-12,8,1
12.177131,-8,34,-79,19,8,26,-50,4,1
12.177154,0,-65,60,1,-12,-28,-22,-2,1
12.179560,-6,5,-35,-29,-8,-1,14,-25,1
12.179584,0,33,19,-8,11,18,-7,-15,1
12.191971,-2,-8,-22,17,-20,56,27,-1,1
12.192004,-4,8,-25,-14,37,-47,-10,11,1
12.198389,20,-40,24,8,-24,23,5,-8,1
12.198416,-6,0,3,-2,4,7,-9,-5,1
12.214589,-12,-78,25,0,-15,-10,16,14,1
12.214607,-7,51,-36,-14,15,97,-3,9,1
12.216059,-10,46,-55,11,-17,-65,13,-8,1
12.216075,-4,-31,51,-7,7,38,-29,-59,1
12.237042,16,-75,66,5,12,23,1,5,1
12.237058,12,10,-32,14,-6,57,43,4,1
12.238489,-9,52,-37,2,23,5,-38,-10,1
12.238522,-7,-84,9,18,-23,-52,18,45,1
12.251564,6,33,13,-11,-10,-11,79,-14,1
12.251590,-13,-1,-26,-5,-13,-33,-9,-11,1
12.258972,3,33,22,12,12,2,-4,22,1
12.259012,-5,43,-19,0,10,33,-36,-17,1
12.274781,-2,-46,5,-6,5,60,-5,9,1
12.274799,4,36,-28,-2,-37,-99,-38,5,1
12.276347,4,-40,8,-7,7,6,14,-5,1
12.276375,-4,21,-36,-17,3,22,-10,5,1
12.297381,2,-23,-7,-2,2,3,47,10,1
12.297408,-18,54,-2,3,-18,-9,-3,-9,1
12.299182,7,48,-60,-25,-2,60,-26,-3,1
12.299190,-3,-117,106,13,-6,-65,17,-20,1
12.311568,-3,6,-42,-3,3,-5,-6,-21,1
12.311650,9,38,-3,22,12,-26,11,27,1
12.319340,-8,-46,15,-7,-28,-8,-13,-70,1
12.319347,5,49,-39,-5,28,55,25,57,1
12.335228,-4,21,20,-4,-29,-14,-19,-51,1
12.335235,-11,-5,-43,-2,51,6,-36,12,1
12.336100,13,-22,32,8,-13,64,92,55,1
12.336134,9,70,77,-14,0,-7,-20,7,1
12.357116,-2,-86,-9,-8,-21,-103,18,4,1
12.357132,-12,59,-41,-1,-28,60,-25,-22,1
12.359492,2,-19,-20,0,35,-5,1,23,1
12.359502,-8,21,-120,-28,-12,-23,-64,-48,1
12.370843,-6,-44,108,22,0,-2,35,39,1
12.370868,17,-10,40,-2,-22,23,-28,-51,1
12.381507,-12,4,0,-11,-18,-34,-17,-9,1
12.381516,4,20,-19,-1,-3,17,26,21,1
12.394703,-2,62,-107,-30,15,14,-16,12,1
12.394761,-8,-57,-50,-21,0,-17,7,16,1
12.397721,7,-86,108,39,-19,-99,-81,-35,1
12.397730,-8,85,-101,6,-10,29,7,27,1
12.417090,-13,45,-50,-14,6,12,-3,-7,1
12.417107,-5,-5,18,6,20,28,45,22,1
12.418757,12,32,-30,-35,13,-39,11,19,1
12.418776,9,-31,33,29,9,-41,23,-2,1
12.430891,-4,29,26,23,-26,7,-36,-19,1
12.430908,-5,-36,89,10,13,6,38,15,1
12.441675,-1,28,-25,7,7,8,14,24,1
12.441689,7,-39,-6,3,1,71,15,-15,1
12.454587,4,11,-83,-27,-1,-31,2,1,1
12.454603,-3,10,55,5,5,-114,-36,6,1
12.456074,-7,0,-8,18,3,-15,-3,-16,1
12.456091,13,53,-5,-12,-20,33,9,-38,1
12.477130,10,-75,9,-5,23,12,-12,18,1
12.477148,-12,3,-27,-2,-20,53,4,-45,1
12.479102,3,19,-27,-12,-10,-25,19,-6,1
12.479151,-29,16,92,12,28,-20,-25,44,1
12.492150,4,-60,3,3,-27,28,21,-36,1
12.492164,9,13,-48,-3,-10,-21,-5,-10,1
12.501530,-1,38,-25,14,15,99,13,17,1
12.501538,0,12,-59,4,4,-94,-6,12,1
12.514706,-8,39,21,-13,-35,-21,-2,-4,1
12.514723,-7,-50,29,14,28,69,-7,17,1
12.516160,3,100,-127,-22,-3,-52,25,48,1
12.516170,6,-111,19,26,-15,59,-9,-78,1
12.537686,-6,83,-65,0,-27,-31,-48,-15,1
12.537736,6,2,-54,-16,-10,-2,22,-20,1
12.538522,1,18,-20,-21,5,-100,-33,2,1
12.538531,-1,-11,-3,-13,-18,53,17,27,1
12.550786,3,4,45,30,40,4,10,0,1
12.550803,11,-4,-9,-13,-18,-22,-29,-3,1
12.561584,-22,25,-3,7,17,81,-3,-31,1
12.561594,-3,15,66,16,-1,-77,27,29,1
12.574888,10,-77,53,2,-37,84,-75,-44,1
12.574924,-2,56,-27,-1,5,-30,40,6,1
12.577125,-2,-14,2,-1,-12,5,-5,-11,1
12.577132,5,45,-71,-14,-3,67,-4,-3,1
12.598384,-2,44,-31,-10,26,-68,21,45,1
12.598392,2,-4,24,24,20,-58,-27,15,1
12.598677,-1,-45,5,-18,-31,31,12,-15,1
12.598684,16,-18,-75,-13,26,9,20,6,1
12.610720,-13,34,39,10,-2,-40,-20,-4,1
12.610737,12,-41,-44,-21,-47,18,-1,-15,1
12.620926,2,-46,65,10,24,-2,34,45,1
12.620932,4,-27,-48,-8,-21,-70,-7,-57,1
12.634740,7,90,-2,3,35,15,-10,21,1
12.634765,-24,-42,-3,-1,5,6,13,-27,1
12.637227,8,-8,1,-7,-15,-16,-15,4,1
12.637235,-6,-8,16,6,21,119,14,20,1
12.658034,1,-17,-11,-14,-20,-39,4,6,1
12.658058,-3,41,-32,12,38,28,25,32,1
12.660027,-10,-60,84,-6,-31,-17,-8,-49,1
12.660043,9,51,12,-3,1,20,17,34,1
12.670710,-3,22,-10,-8,-24,-26,2,-36,1
12.670727,10,-19,-73,3,9,-21,-1,36,1
12.680397,-4,-4,34,20,5,28,-23,-2,1
12.680412,-6,28,-10,-7,9,0,5,-8,1
12.694712,-9,-18,-7,-6,1,1,22,14,1
12.694734,-7,-5,44,-9,-9,17,-20,-12,1
12.696533,9,55,-32,21,12,21,19,18,1
12.696563,-15,8,7,-18,-18,-125,-11,-15,1
12.717611,0,-27,-22,15,29,24,3,13,1
12.717643,3,33,-32,-5,0,27,-26,24,1
12.720109,7,3,69,17,-15,33,7,-41,1
12.720117,5,-6,-3,-15,-18,27,7,29,1
12.731148,-3,11,-73,-4,7,14,-13,-16,1
12.731175,13,-38,30,0,-15,-52,-16,-12,1
12.740549,-20,45,-42,-21,22,55,9,36,1
12.740555,-2,-37,34,20,-25,-83,-24,4,1
12.762318,4,-1,14,21,51,20,8,-10,1
12.762354,-4,37,-1,-2,-9,10,1,19,1
12.764352,2,-26,20,-11,10,-7,-20,-28,1
12.764359,-2,11,-12,-24,-15,3,13,14,1
12.777207,-3,-6,31,-16,-29,-12,13,-33,1
12.777230,-1,-24,5,-22,-3,-31,-23,-26,1
12.778811,13,65,-33,-9,-3,-25,33,25,1
12.778820,-12,-93,28,0,1,29,-23,-39,1
12.800371,0,19,11,-4,-3,11,-11,37,1
12.800381,-4,-9,-10,27,23,26,25,3,1
12.801308,-5,-27,37,-17,-11,-95,-30,-29,1
12.801327,11,-26,-26,23,14,35,14,17,1
12.814657,-11,48,-22,1,5,-53,3,11,1
12.814690,-11,-69,48,-3,-6,13,7,0,1
12.816176,-1,-18,-56,0,-18,80,62,-22,1
12.816189,-6,51,15,-1,-8,-64,-68,-19,1
12.837090,2,-22,48,-11,15,52,16,-5,1
12.837106,4,46,-14,-2,2,-10,14,49,1
12.838595,2,-2,42,21,6,24,-24,-43,1
12.838608,-9,-33,-9,5,11,26,5,-4,1
12.859667,-4,-12,-18,-12,-10,3,11,18,1
12.859686,-9,21,-33,-9,7,-5,11,-6,1
12.861122,-4,-36,-7,-2,2,-37,-20,15,1
12.861154,-13,23,-2,-4,15,62,10,1,1
12.875341,17,24,21,-1,-19,12,-2,5,1
12.875386,-11,-28,5,-2,-21,-17,2,-12,1
12.878287,16,43,-8,-1,-3,-17,-17,15,1
12.878297,-6,36,-18,-12,13,-22,-7,2,1
12.897407,6,-63,-32,7,-10,28,-14,1,1
12.897428,17,-15,39,24,6,-39,-15,-28,1
12.898594,-15,-36,-30,-14,-19,-4,25,14,1
12.898693,2,-7,11,-11,17,-71,-7,6,1
12.919771,-4,-3,-7,19,1,-1,6,1,1
12.919787,2,46,46,-8,-3,-25,-5,-16,1
12.922460,-4,9,-76,-7,4,13,-25,-13,1
12.922466,-12,30,88,19,8,94,-20,-29,1
12.933919,1,30,-37,-8,-20,-31,27,3,1
12.933935,7,24,-17,-12,-12,-28,-43,-18,1
12.941053,-24,10,-24,1,12,28,14,32,1
12.941085,7,5,-74,-8,-5,14,-8,-2,1
12.957780,3,-10,39,-8,-2,-83,8,1,1
12.957788,-2,-5,30,3,4,42,12,8,1
12.958746,9,7,-36,-21,-14,-21,5,-7,1
12.958774,4,41,1,5,13,29,-5,-21,1
12.979994,-9,-48,17,5,11,34,13,34,1
12.980037,9,28,0,-8,-3,-27,-20,-1,1
12.981346,6,-10,-7,1,-3,-15,-21,8,1
12.981356,-4,-30,15,1,12,-28,17,26,1
12.993955,4,9,-44,-1,-22,13,27,-23,1
12.993972,-29,-20,3,2,56,28,22,23,1
13.001046,25,-9,31,18,-3,20,11,-23,1
13.003029,7,4,-44,-14,-27,29,11,-16,1
13.019929,4,54,-20,-5,-5,-52,-16,-4,1
13.019942,0,-29,-34,-1,0,-14,-14,0,1
13.019947,-12,22,9,3,3,-13,13,11,1
13.019949,4,-27,42,13,5,-8,18,18,1
13.039544,5,19,-26,1,4,29,-6,-7,1
13.039667,-13,-36,31,-8,0,18,-38,-17,1
13.043034,-3,-3,44,26,21,29,55,45,1
13.043052,-1,-36,-33,-12,-30,-88,-14,-41,1
13.053951,-8,14,34,-4,9,31,-1,11,1
13.053968,-3,8,-30,4,-14,86,4,-26,1
13.060909,4,11,-24,-12,-8,-49,-35,9,1
13.060931,-5,5,-4,11,9,45,21,44,1
13.077244,1,60,45,-7,-12,13,-13,-51,1
13.077269,6,-76,92,9,-32,-18,9,16,1
13.079638,1,10,-31,4,47,5,-17,-11,1
13.079650,-18,21,-20,-7,-7,9,12,23,1
13.099863,-2,13,-12,1,21,26,0,-1,1
13.099888,8,20,-34,10,-29,-36,12,-13,1
13.102855,-4,-14,21,-10,-19,-7,-25,-17,1
13.102861,0,2,0,-5,7,-7,9,17,1
13.114066,1,31,-59,-9,-24,-12,-12,17,1
13.114085,0,-47,85,17,5,-9,14,-5,1
13.120849,-13,-39,-23,-2,3,-56,-7,-82,1
13.120865,10,26,-13,14,2,3,-7,21,1
13.137049,-9,-32,-13,-8,-13,-21,-3,-1,1
13.138261,1,44,-47,-11,6,9,4,35,1
13.138597,0,5,2,-10,3,16,2,6,1
13.138613,0,-8,11,-14,8,6,-2,-22,1
13.159788,-5,-40,-14,3,-7,2,-13,4,1
13.159802,3,37,-45,-10,-1,41,19,0,1
13.161184,0,-40,104,24,-18,-10,-20,-1,1
13.161205,0,-1,-64,-12,-5,14,28,5,1
13.173876,-2,-14,-17,-1,7,7,-34,-19,1
13.173894,1,10,-73,-15,33,-13,4,-14,1
13.180741,3,29,-17,-4,-2,-3,-3,11,1
13.180763,-4,-14,2,-7,3,-5,6,12,1
13.197254,-4,-66,88,29,9,15,39,-23,1
13.198270,22,63,26,-7,-21,-28,-13,10,1
13.198590,-15,-8,-12,-25,-3,5,-5,-3,1
13.198614,7,-18,3,-11,-48,-7,-6,-15,1
13.221233,-9,4,-13,0,50,-4,-7,4,1
13.221243,-9,37,-46,16,17,3,-6,-5,1
13.221247,2,-19,28,3,-20,0,5,19,1
13.221250,6,-7,-26,-8,-11,-4,-6,2,1
13.236297,-10,11,-34,-19,13,0,-13,1,1
13.236305,7,-46,-35,0,-23,62,-31,13,1
13.240917,-6,30,72,1,-14,-61,40,-30,1
13.240942,-2,-36,59,18,-3,-32,-46,-25,1
13.264600,-3,13,-37,-16,-12,10,-10,-7,1
13.264619,-5,-27,-5,6,14,-16,1,-4,1
13.266122,9,43,-66,-34,3,9,-29,15,1
13.266132,-4,21,1,8,-3,31,12,-16,1
13.287437,0,8,18,-13,20,16,13,23,1
13.290151,2,21,-35,11,-3,-100,29,4,1
13.290159,-11,-85,54,19,-48,31,-70,-20,1
13.290163,4,34,-12,9,62,-19,44,-15,1
13.293357,-3,-7,-6,7,-25,-10,-21,15,1
13.293373,-7,22,-3,-27,6,-9,6,-11,1
13.302352,4,29,-46,7,6,17,-3,28,1
13.302369,0,-43,10,-4,-24,-19,24,-9,1
13.317118,-5,-8,-2,12,-9,3,-16,-24,1
13.317142,7,94,-100,-26,35,35,-41,-8,1
13.318811,-10,-43,74,56,4,40,101,56,1
13.318836,11,-21,-67,-22,-41,-30,-43,-29,1
13.339943,-8,47,-43,-7,-9,-12,5,13,1
13.339974,3,-6,8,8,-17,1,-3,-22,1
13.343477,-6,53,-67,-20,19,-4,-13,30,1
13.343486,2,21,10,1,6,15,0,15,1
13.353367,16,-42,30,6,-11,-9,6,7,1
13.353390,-17,-28,42,-7,-16,-5,19,1,1
13.363775,0,4,-18,9,40,-1,-28,-12,1
13.363794,-11,-5,23,19,31,-38,-37,18,1
13.377122,-12,82,-38,-38,-71,-10,32,-4,1
13.377131,14,-25,21,33,-12,32,9,-26,1
13.378884,6,45,-32,-6,-34,-45,5,-20,1
13.378918,-2,17,17,-27,17,22,-20,-18,1
13.399530,1,4,-21,12,34,-8,-15,40,1
13.399546,-7,9,16,-12,-7,-18,15,11,1
13.401189,-3,-28,-15,2,-11,11,6,-13,1
13.401198,-2,23,-21,9,12,18,-1,15,1
13.413555,0,-30,25,-6,-5,5,-2,-8,1
13.413579,-5,-18,18,-3,-14,-5,14,-6,1
13.423709,0,10,-32,-6,15,-4,-17,-6,1
13.423715,-25,-52,12,-10,2,117,-14,-6,1
13.437514,15,67,-29,-16,-28,-96,-3,-2,1
13.437544,14,-13,-6,-1,-13,-28,31,9,1
13.439137,-6,-55,-15,9,-2,6,-42,-27,1
13.439143,16,30,47,25,1,3,21,-23,1
13.460003,-4,-37,-16,-3,25,40,-14,-1,1
13.460047,-9,-8,-27,-5,-3,-4,-14,-8,1
13.462352,4,50,-22,-19,12,-10,18,19,1
13.462364,3,22,-26,4,-19,-14,10,12,1
13.473190,1,-48,31,17,5,11,-4,2,1
13.473202,-9,20,22,-2,1,-11,-6,-5,1
13.482293,-2,3,-61,-6,53,3,-27,3,1
13.482299,-3,7,106,18,-29,-10,73,33,1
13.497174,4,22,-44,-12,-8,-20,-44,-50,1
13.497193,-12,5,-19,-14,-63,22,-12,-5,1
13.499579,15,5,-6,29,51,-17,6,-4,1
13.499588,-1,14,-43,0,18,-2,-9,28,1
13.519617,-6,-22,27,17,9,13,13,-9,1
13.519765,-6,-25,28,-6,1,1,3,-2,1
13.521187,-7,113,-108,-53,-14,46,-27,24,1
13.521222,-9,-84,76,57,-15,-15,32,-19,1
13.533367,0,-7,-41,-13,1,9,1,-61,1
13.533424,5,7,-22,-7,7,-7,-31,23,1
13.545067,4,5,-5,-27,-28,0,16,-3,1
13.545076,-14,18,-54,-22,11,-7,-14,21,1
13.557439,8,-28,24,14,-1,11,5,9,1
13.557463,3,-37,18,9,14,6,8,-2,1
13.559513,-5,-12,31,15,-28,-21,8,-2,1
13.559531,26,48,-124,-40,13,-5,-19,-2,1
13.581597,-37,-58,127,65,22,-7,-23,17,1
13.581607,15,98,-56,-11,-18,30,19,-18,1
13.581832,-5,22,-11,-14,-51,-20,-2,-34,1
13.581844,-8,11,-42,-5,6,81,14,20,1
13.593454,21,43,-37,-20,43,-45,5,13,1
13.593476,-18,-34,18,18,39,16,-30,-27,1
13.603627,10,-34,47,2,-44,-29,3,-15,1
13.603637,-23,-6,-3,7,32,-2,-9,-7,1
13.617292,2,14,-24,-31,-19,74,10,23,1
13.617317,3,-26,19,2,13,-48,-7,5,1
13.619660,-20,61,62,8,13,-3,-29,-22,1
13.619666,10,-21,-10,-1,-9,-20,16,-5,1
13.639548,5,31,-32,1,-1,22,3,21,1
13.639564,-15,-39,-18,-4,2,68,17,5,1
13.643040,4,2,-32,10,-13,-57,-14,-17,1
13.643062,-3,-9,0,-51,-8,-44,-40,-17,1
13.653275,-10,-42,28,-5,-40,13,2,-8,1
13.653293,4,27,-12,17,55,12,11,10,1
13.663872,-3,-29,12,2,19,18,14,12,1
13.663882,-3,92,-49,-12,0,11,4,8,1
13.677178,-1,-100,32,16,-24,-32,-9,-25,1
13.677197,5,8,-11,-7,-28,-10,-1,-22,1
13.678825,0,5,-61,-13,23,-40,-19,15,1
13.678855,8,2,-14,-4,-4,-7,-23,-27,1
13.708024,3,21,-19,-14,-7,-40,24,39,1
13.708032,-14,6,18,21,30,-9,8,10,1
13.708859,11,-47,-3,6,-7,-5,-7,-25,1
13.708878,0,18,9,5,9,41,9,12,1
13.722033,-4,1,-19,-10,8,-37,-16,11,1
13.722043,3,-54,58,-4,-29,14,6,-50,1
13.723530,0,7,-7,-14,-8,2,9,25,1
13.723548,-8,9,6,15,-9,-14,-5,-8,1
13.737906,3,43,8,4,19,31,-24,-6,1
13.737915,-3,3,-2,-8,1,-27,16,29,1
13.738518,-9,-22,-4,-2,-21,43,-9,-4,1
13.738527,-2,-15,21,30,50,-14,14,11,1
13.760198,-3,10,-25,-1,-8,5,-17,-46,1
13.760220,8,67,1,-3,-20,7,-12,12,1
13.761722,2,-53,-15,8,28,4,15,-1,1
13.761735,2,-39,79,-4,-13,-31,17,21,1
13.784167,4,73,-47,-11,7,-52,3,-25,1
13.784176,6,-56,34,9,-15,9,15,8,1
13.784179,2,4,4,-3,0,68,17,-8,1
13.784182,8,-10,-44,-6,-36,-66,-16,-3,1
13.799395,0,11,-3,5,21,61,23,-7,1
13.799402,-8,12,-16,-5,-39,-39,-29,12,1
13.799406,1,34,9,19,13,4,14,16,1
13.799409,2,-43,-5,16,31,19,8,-3,1
13.819645,-1,-6,-84,-3,11,6,-16,4,1
13.819677,-8,-72,49,-1,-7,-6,-1,-1,1
13.822131,7,8,-6,-28,-16,-12,11,2,1
13.822138,-3,114,-76,8,-14,15,-57,-14,1
13.842203,7,-93,60,21,-16,-103,52,14,1
13.842231,-2,14,-42,-7,31,-31,-25,-49,1
13.844350,-12,-1,2,-13,-12,3,-17,0,1
13.844357,6,4,-3,0,-9,-3,4,-6,1
13.857466,-3,30,8,-11,6,30,5,22,1
13.857502,-11,13,-22,-4,8,12,-21,10,1
13.860590,0,-18,23,20,-11,-18,41,-9,1
13.860604,3,35,-3,-10,-8,0,2,8,1
13.880009,-9,-32,25,4,-5,25,-24,-18,1
13.880044,0,-12,-12,-1,-7,-3,-9,-1,1
13.881174,4,57,28,12,-30,-9,14,18,1
13.881191,-16,24,66,4,22,-42,-33,29,1
13.902072,23,31,-17,-17,-32,8,-16,-63,1
13.902984,5,35,-35,-1,-8,-4,-1,11,1
13.903518,-5,-8,2,2,40,-13,1,9,1
13.903527,-1,-23,-8,-9,-18,18,24,8,1
13.916405,-9,2,16,-7,-5,-29,-29,3,1
13.918283,-2,8,-6,-5,9,-9,6,13,1
13.923892,4,30,-34,1,-11,19,-12,-11,1
13.927431,4,-72,34,0,-17,32,-27,-21,1
13.938824,1,-20,-3,5,16,-10,41,19,1
13.938836,3,11,2,-10,-6,-2,8,2,1
13.939547,-2,3,-35,5,17,-12,-3,4,1
13.939564,1,-77,1,27,3,30,10,-10,1
13.961409,-12,58,-21,-10,-14,-17,-21,-13,1
13.961429,2,-31,12,32,26,78,51,52,1
13.964308,2,-7,-8,-27,-34,-28,-25,-54,1
13.964316,-3,-3,-28,-17,-10,-16,-5,1,1
13.978829,-5,35,-7,1,7,22,23,21,1
13.978839,7,-2,-17,-13,11,-29,-20,-14,1
13.984104,-9,13,-36,3,15,27,-22,7,1
13.984129,10,-26,17,-18,-7,2,54,15,1
13.999897,-6,-18,14,6,-11,12,-23,-21,1
13.999904,-2,22,4,-20,13,-2,19,-1,1
13.999908,-2,-27,18,7,-7,-5,1,10,1
13.999912,1,25,-10,-25,-39,-23,-26,-14,1
14.021924,2,-1,5,7,22,17,8,26,1
14.021966,-10,8,-12,6,-3,-19,-16,-20,1
14.023836,-2,-27,32,0,22,12,35,11,1
14.023842,-10,32,-25,-5,39,76,-7,8,1
14.036107,-6,-43,42,13,-43,-26,34,-44,1
14.036231,16,-15,-1,-3,-16,-15,-15,10,1
14.044092,-15,-13,-18,-10,19,-15,-21,-6,1
14.044112,4,0,2,6,-11,4,3,-4,1
14.059359,-7,17,-31,-2,26,19,-2,21,1
14.059392,-20,8,5,-3,6,9,-21,-9,1
14.061473,13,-9,31,-1,-10,-1,10,3,1
14.061480,-4,9,-11,7,14,-14,-6,-11,1
14.081783,4,-8,2,5,13,3,-27,10,1
14.081812,-3,10,2,2,-46,-28,5,-3,1
14.082008,1,28,14,5,27,9,-12,8,1
14.082040,-9,-7,-27,13,6,-27,17,-13,1
14.096084,0,-8,-3,-3,-3,14,-15,13,1
14.096110,-8,41,16,-13,-11,70,39,1,1
14.104027,15,2,-13,6,-22,-15,-17,-29,1
14.104046,0,18,-11,-15,-15,-35,-19,-13,1
14.119103,2,-5,10,4,2,8,12,21,1
14.119134,-1,21,-30,3,13,-11,-14,-5,1
14.121958,-4,-21,-9,-12,2,15,17,2,1
14.121965,-1,23,17,6,-5,-10,-1,-6,1
14.141341,0,8,-29,-5,-2,2,-6,6,1
14.141352,1,1,14,4,-11,-12,-7,-3,1
14.142347,-2,-33,7,3,39,-7,1,7,1
14.142368,2,-7,6,-11,-32,-1,-6,-3,1
14.155708,-5,2,6,3,17,2,2,-2,1
14.155729,4,7,-29,-14,30,-16,-8,3,1
14.164193,-3,-18,38,10,-20,6,29,5,1
14.164212,-1,-15,-32,-1,26,2,-4,-4,1
14.179020,-7,0,31,-6,-54,-4,-2,1,1
14.179047,1,-2,34,-24,17,-9,-9,0,1
14.181411,-3,6,-17,0,-5,12,-6,-18,1
14.181418,3,4,1,10,-2,-11,-1,-12,1
14.203223,-3,2,-37,-16,-16,-1,0,11,1
14.203231,3,9,56,27,18,-10,-6,5,1
14.203234,-6,-1,0,-1,-19,-2,-17,6,1
14.203237,4,-14,-4,-6,-2,-13,-18,-10,1
14.215805,-5,12,-7,-1,14,14,41,-13,1
14.215822,1,-35,-13,-3,-18,-9,3,13,1
14.224200,1,10,-15,2,9,1,-20,-1,1
14.224230,-4,-22,21,-5,-24,7,1,14,1
14.238816,9,18,1,9,59,-7,-8,7,1
14.238832,2,-5,1,4,-10,8,34,-25,1
14.239512,-1,-31,8,2,-27,-11,7,3,1
14.239529,2,18,0,-2,-12,-7,1,6,1
14.261658,-2,-17,7,4,36,21,-4,5,1
14.261686,-4,-10,-11,-3,-15,-12,7,15,1
14.263120,2,71,-38,-1,2,-5,-48,-12,1
14.263147,-10,-29,43,21,6,17,72,-18,1
14.276234,0,-16,-12,-15,-30,-27,-19,-7,1
14.276273,1,-25,-21,-4,-10,-4,-34,-5,1
14.284098,-2,97,-17,-3,14,-7,71,50,1
14.284122,12,8,8,-3,11,25,2,-22,1
14.299131,-1,11,0,-3,-23,8,-1,-8,1
14.299139,-4,2,-26,-5,17,-8,-9,-15,1
14.299584,-4,-1,-6,-16,-49,-14,-1,4,1
14.299594,4,-4,13,13,31,-8,-22,34,1
14.321506,3,-6,0,-3,5,-5,11,-18,1
14.321530,-3,7,-10,-8,-37,2,-27,-19,1
14.323272,-8,-45,17,-1,28,1,-5,-7,1
14.323279,-2,6,-10,1,8,-8,-14,22,1
14.336149,-3,20,-11,5,42,15,4,-4,1
14.336160,-10,15,43,4,-5,-12,33,15,1
14.343981,13,-25,4,4,-20,15,7,-35,1
14.344007,-5,11,-22,2,3,-23,-14,3,1
14.358960,7,5,3,-6,-33,-3,-4,11,1
14.358982,-5,26,-26,8,26,-1,-9,-18,1
14.362061,-6,-30,16,-7,14,4,5,14,1
14.362076,3,17,-10,-11,-3,-9,-23,-11,1
14.381386,-5,-25,-1,-6,-32,-3,-1,2,1
14.381409,0,-13,-4,0,6,7,-1,3,1
14.382125,0,-35,1,2,-6,-2,-20,-3,1
14.382142,-2,-9,-14,-6,-2,-1,4,-3,1
14.396000,-4,-3,-1,-3,2,-2,-22,-6,1
14.396034,-2,-4,-5,-3,-10,-1,0,2,1
14.403935,-9,1,13,-3,7,-2,15,-1,1
14.403953,-3,26,-27,2,-13,-16,-19,-12,1
14.418973,-5,-31,41,6,19,15,-15,6,1
14.418997,8,-25,-12,-2,7,-7,17,12,1
14.420337,-5,31,-25,-14,-6,-3,-30,-15,1
14.420344,-4,-47,5,-9,4,-3,5,-13,1
14.443634,-4,19,-6,-9,-11,1,-8,3,1
14.443645,7,39,-14,3,25,-5,-40,1,1
14.443648,0,-5,-27,-2,-10,-1,42,17,1
14.443651,-2,-15,48,-3,-13,20,5,-4,1
14.455771,2,-7,-3,-2,-19,-17,3,-3,1
14.455786,-7,-3,-6,1,7,2,-4,-5,1
14.464045,0,0,-2,-16,-7,-1,-14,1,1
14.464063,-1,10,-12,5,24,-5,-23,-14,1
14.479544,6,24,-13,-7,-12,3,10,22,1
14.479574,2,-20,5,7,4,15,35,-5,1
14.479696,4,8,31,34,-11,-1,-13,-1,1
14.479713,-3,0,6,-4,-26,3,14,9,1
14.501485,-5,-7,24,0,23,-7,1,9,1
14.501513,4,4,6,9,-2,6,-2,-13,1
14.503746,-6,-9,1,-3,10,0,-3,-4,1
14.503755,3,-3,4,-18,-13,-2,-6,-16,1
14.515813,1,24,-32,3,13,-2,10,8,1
14.515837,-6,-12,9,-9,-25,-3,-10,-1,1
14.524608,0,-15,12,22,34,0,-3,11,1
14.524639,-2,51,6,9,22,-4,23,2,1
14.539228,-4,-24,-16,-7,-26,11,-6,-26,1
14.539338,2,-43,8,-3,1,-8,8,16,1
14.539666,5,0,5,-2,-11,-1,-16,1,1
14.539747,-4,9,-25,-18,-5,-7,-3,10,1
14.561520,-7,-4,-16,-7,-41,-8,4,-13,1
14.561551,3,-3,7,1,56,0,-30,-8,1
14.564100,2,60,-77,-6,11,-21,-33,-2,1
14.564118,-16,-95,87,24,-8,16,11,-29,1
14.576483,8,26,-6,-8,-16,2,9,15,1
14.576525,-1,36,-28,-4,-13,-12,-11,-19,1
14.584253,-6,-17,-9,-7,-10,4,1,0,1
14.586125,-2,18,-28,10,49,-3,-2,15,1
14.598909,0,-13,14,4,-16,-7,-18,-10,1
14.598925,5,-6,5,-4,-8,6,6,10,1
14.599627,-7,-1,8,-8,0,-3,30,10,1
14.599706,-2,-6,22,2,-12,4,5,-37,1
14.621943,-1,-25,6,32,20,-5,-1,13,1
14.621969,0,16,-11,-6,-25,-6,2,-4,1
14.621976,-1,-13,21,-13,5,-4,-8,-4,1
14.624275,5,28,-25,-7,-35,-2,-1,23,1
14.636153,-4,-9,-29,-4,37,6,-9,-7,1
14.636185,-11,-25,55,4,-32,0,-2,-2,1
14.651517,2,4,-9,7,20,-1,-12,-1,1
14.651534,-7,-4,71,8,2,9,36,6,1
14.659192,2,-12,-4,-5,-3,-6,9,-9,1
14.661059,-1,17,-31,-11,-24,-8,-10,5,1
14.661067,4,-18,17,0,-14,0,1,-10,1
14.661070,6,25,-37,-9,-34,-7,-24,9,1
14.681455,0,16,4,-1,18,2,-4,-1,1
14.681482,-4,9,-50,-21,20,-5,-5,17,1
14.683158,-4,-35,92,25,-11,40,48,-30,1
14.683165,2,12,-39,-8,-4,-20,-29,-22,1
14.705568,0,10,10,-9,-13,-2,5,2,1
14.705581,3,-11,-14,29,38,-4,-1,-4,1
14.705588,-6,-7,-14,-21,6,-6,-9,15,1
14.705594,2,1,-18,-1,6,12,3,11,1
14.719045,-2,-21,18,0,-11,-7,3,-12,1
14.719071,-3,18,7,-2,-4,5,7,2,1
14.720738,5,-2,-26,1,-62,-4,-26,6,1
14.720745,-9,50,14,-9,59,1,-46,-15,1
14.741401,7,-42,-11,-2,-17,4,40,-8,1
14.741417,-1,0,4,-16,-25,-6,-7,-1,1
14.742648,0,0,11,35,33,-6,5,-1,1
14.742681,0,0,-42,-23,-14,-11,-24,3,1
14.764249,-5,16,3,9,41,9,-15,3,1
14.764267,-1,-8,10,4,-5,6,12,-5,1
14.766400,-2,-2,-9,-19,-29,-5,-2,-7,1
14.766408,-3,-6,-7,5,1,-5,7,9,1
14.779400,6,59,-8,0,34,6,-7,3,1
14.779451,-9,-74,31,-12,-27,7,7,-5,1
14.782331,-2,24,-17,-4,17,-13,-21,-12,1
14.782338,3,-18,-6,-10,-36,0,10,11,1
14.801391,-2,3,7,-7,-3,-9,-5,-3,1
14.801419,0,8,-8,9,23,-3,-2,8,1
14.802315,3,1,-2,-14,-46,16,-5,-7,1
14.802342,-2,-13,4,-1,3,-3,24,6,1
14.823853,-1,-13,-41,8,18,-12,-35,5,1
14.827356,-2,22,48,15,20,19,30,-4,1
14.827369,-2,-10,5,0,2,-8,7,12,1
14.827373,1,2,-5,6,-21,-5,4,-5,1
14.838857,-4,17,-52,-30,-15,-9,-19,-4,1
14.840253,1,-41,31,23,-1,0,7,1,1
14.840271,3,16,2,-3,19,-4,-6,0,1
14.840281,-3,-4,-8,8,3,3,-4,2,1
14.861702,-2,-1,3,-13,-2,-6,-7,-1,1
14.861717,-2,25,-33,-21,-38,-1,-29,-1,1
14.862050,-5,-4,1,-7,50,1,-3,-13,1
14.862058,9,27,-1,-10,24,-3,7,14,1
14.884185,-7,-70,28,32,13,9,12,-12,1
14.884209,-2,7,-7,-4,-26,-13,-12,-7,1
14.886173,0,4,-2,-7,-19,-7,9,7,1
14.886180,-5,-15,-13,8,47,13,-2,7,1
14.909201,3,14,20,-17,-17,6,11,-2,1
14.909249,0,5,-33,2,-8,-7,-6,-4,1
14.909253,-4,33,-25,-10,-6,-15,-13,9,1
14.909256,-7,9,8,28,0,23,9,-8,1
14.922157,6,-14,7,-1,-31,10,-23,-19,1
14.922204,6,14,-16,0,19,-14,-8,4,1
14.923799,1,-9,-7,-8,-40,-1,8,0,1
14.923806,-1,9,-20,-8,-7,-15,-12,5,1
14.943921,-9,7,9,-6,26,-6,16,17,1
14.943944,2,49,-41,4,-4,3,-25,-13,1
14.944686,-5,-32,63,-5,3,9,21,17,1
14.944701,0,-22,4,1,13,-9,-7,-31,1
14.959274,-4,-1,-3,16,17,6,13,9,1
14.959344,0,-1,-4,-19,-46,-8,3,-1,1
14.960153,-3,7,-17,15,38,8,1,10,1
14.960185,6,-15,-1,-17,-39,-1,4,4,1
14.981640,-1,10,16,14,4,-10,-3,-11,1
14.981657,-5,9,17,-7,24,12,-1,11,1
14.984220,3,-26,-16,5,-7,2,-11,-12,1
14.984227,-2,-17,3,-1,-28,-8,25,6,1
15.003851,8,41,-33,-3,-11,-3,-37,3,1
15.003861,-6,-34,12,-10,3,-7,42,3,1
15.004512,-3,11,10,8,-3,10,-24,-8,1
15.004521,4,-28,5,5,21,-8,-22,-11,1
15.018177,1,8,-10,-7,-39,-14,-2,20,1
15.018193,2,-3,-1,-14,-5,2,12,-13,1
15.026467,0,18,-13,0,21,-5,10,4,1
15.026488,-3,4,-19,-11,-46,6,-16,-4,1
17.045462,2,35,2,5,-7,-4,-2,-3,0
17.045800,0,-6,2,-1,10,-2,-1,-2,0
17.053176,-4,-19,3,-1,-22,-5,-2,0,0
17.053189,2,5,-5,-5,19,-1,-2,-2,0
17.067256,-2,-8,-4,-8,-1,-4,-2,0,0
17.067281,-4,29,-3,1,-2,3,-2,-2,0
17.069646,-3,3,-1,-7,-2,-2,1,-1,0
17.069654,5,5,-2,-3,-26,-5,-2,-3,0
17.089552,1,16,5,-5,8,-1,1,-1,0
17.089568,5,23,0,4,-4,2,0,-1,0
17.091497,-2,8,3,0,-1,1,1,-3,0
17.091589,-1,-3,-1,-5,29,3,0,1,0
17.103182,-3,-12,-6,-3,0,-3,-1,0,0
17.103198,1,8,6,10,49,1,-1,-4,0
17.113803,-4,-2,0,7,11,-1,-1,-2,0
17.113810,-5,-41,-5,-4,-42,-2,0,0,0
17.127220,4,26,9,0,5,-2,0,-2,0
17.127244,-2,-4,-2,-10,-17,0,0,-2,0
17.129103,-6,3,-9,-13,14,-2,-2,-1,0
17.129133,9,11,-2,11,-4,-2,0,-3,0
17.149618,-4,10,-5,-5,15,1,-2,0,0
17.149642,-7,-23,1,0,-38,-1,-1,1,0
17.151273,3,4,-2,-2,14,3,0,0,0
17.151295,0,12,10,-4,-10,-4,-3,-2,0
17.163548,-1,10,-5,-2,7,1,-3,-5,0
17.163566,-2,-30,-9,-12,-61,-2,-3,-2,0
17.174772,3,-27,-6,-11,0,2,1,0,0
17.174781,-15,-7,3,11,16,1,-2,-1,0
17.187494,4,3,6,17,-7,0,1,-2,0
17.187514,1,21,-1,-3,5,-4,-1,-1,0
17.189030,-1,-4,1,4,-16,-3,0,1,0
17.189060,4,7,-4,-7,-9,-1,0,-1,0
17.209767,-2,-4,-3,-9,-9,0,-1,0,0
17.209804,-3,2,4,14,15,1,1,0,0
17.211701,-1,-8,-6,-4,2,-2,0,1,0
17.211709,2,-34,8,10,-3,0,0,-1,0
17.223230,-8,-49,-11,-4,20,-1,0,-1,0
17.223246,-1,2,-3,-11,-3,-6,-1,1,0
17.233579,-10,-19,-6,9,33,6,-3,-3,0
17.233587,1,19,0,-2,-32,-3,-2,-3,0
17.247433,2,17,5,-7,-78,-9,-1,-1,0
17.247471,0,-10,-23,-19,92,4,-3,0,0
17.248685,0,-9,2,24,32,4,0,-7,0
17.248702,11,48,5,-6,-33,-1,3,1,0
17.269756,-7,-88,-2,12,13,2,2,2,0
17.269774,1,20,-1,-8,-28,-5,-2,-1,0
17.271790,-2,9,-4,-3,-3,-4,-1,-1,0
17.271798,7,0,-1,-1,1,0,0,1,0
17.283352,-5,35,-5,-12,12,0,-5,-5,0
17.283373,-4,-11,3,1,-11,-1,0,-1,0
17.294121,4,-3,7,-8,-2,0,-2,0,0
17.294133,-6,1,-7,10,9,1,-1,-1,0
17.309513,0,-25,-2,3,12,1,0,-2,0
17.309537,4,8,4,0,-9,-4,-2,0,0
17.309545,1,2,8,5,-49,-1,0,1,0
17.309552,-7,-5,-8,-14,-26,-3,-2,-1,0
17.330056,-2,19,4,18,40,0,-2,0,0
17.330080,8,5,3,-2,4,5,0,-1,0
17.332052,-13,-10,-6,1,-5,-3,-1,1,0
17.332060,6,4,-1,-4,-32,-6,-1,2,0
17.343411,-3,-1,-7,-29,-1,2,-2,-1,0
17.343428,-2,4,1,2,4,-1,-2,-3,0
17.354829,2,10,6,14,-3,-2,0,1,0
17.354835,-5,3,-4,-3,27,-1,-3,-4,0
17.367394,-1,27,12,-4,-5,-1,-2,0,0
17.367425,-9,-56,5,-1,2,1,0,-4,0
17.370348,10,64,-30,3,50,-6,-3,1,0
17.370355,-6,-25,8,-3,8,3,1,1,0
17.389508,5,17,5,2,-40,-6,-1,-1,0
17.389524,0,34,4,-5,28,2,0,-1,0
17.391016,-2,-19,5,4,-28,-2,-2,-2,0
17.391057,5,-1,-5,-1,5,1,-3,-3,0
17.403194,-1,-5,-10,-4,6,-3,1,-2,0
17.403211,-8,3,-2,6,-11,-3,-2,-1,0
17.413766,-5,-63,-2,-3,15,2,0,0,0
17.413775,2,21,-5,-1,-1,-2,-1,-1,0
17.427193,2,6,8,9,11,2,-2,2,0
17.427224,-1,5,-9,-5,-4,-1,-2,0,0
17.429088,-1,-4,7,-9,-18,-2,-1,-1,0
17.429151,-8,-14,-5,1,52,1,-3,-2,0
17.449579,0,-3,-6,-5,-20,1,2,-3,0
17.449595,-1,26,-10,-19,-45,-4,-3,1,0
17.451150,-1,-68,-8,10,11,-1,0,-1,0
17.451162,10,29,8,0,9,3,0,3,0
17.463486,-10,-3,-1,-3,5,-3,-1,-1,0
17.463500,3,13,3,-1,-3,-3,-2,-4,0
17.473638,-1,12,0,-12,-20,-1,-1,-3,0
17.473646,-2,-8,-4,-2,-35,-5,-2,-1,0
17.487126,5,6,1,3,29,5,-1,2,0
17.487143,-2,-12,6,13,1,1,1,-2,0
17.488690,-3,18,-5,-10,4,-2,-2,-3,0
17.488727,-2,-16,0,-4,-15,-5,-1,-2,0
17.510640,2,21,-4,-5,-11,-1,-1,-1,0
17.510649,2,-3,-2,10,3,-2,0,-1,0
17.511380,2,21,0,-9,-6,-1,-1,-2,0
17.511408,-3,2,1,9,16,2,-1,-1,0
17.532091,2,6,-1,-2,-18,1,-1,0,0
17.532108,-3,-63,-5,3,14,0,-1,-3,0
17.535926,1,-3,0,9,9,-3,1,0,0
17.535932,-3,-4,-1,-10,-7,1,-1,0,0
17.547547,2,12,2,5,-1,-4,-3,-1,0
17.547680,-1,2,4,3,10,0,1,0,0
17.548845,10,33,8,3,-39,-8,-6,-1,0
17.548863,-21,-92,-15,-5,9,1,1,-2,0
17.569929,-2,-10,-4,0,9,-1,-2,-1,0
17.569961,-2,15,5,1,-20,0,0,-1,0
17.572902,-1,-5,-2,0,12,1,0,-3,0
17.572909,5,32,6,8,-5,-3,-2,-1,0
17.592333,-8,-31,-10,-10,-2,0,-1,-1,0
17.592357,5,-1,-4,-2,-6,-4,-1,0,0
17.593899,-6,7,9,-9,1,0,-1,0,0
17.593924,1,9,-11,-1,-21,0,-3,-5,0
17.607032,1,0,3,9,-9,1,-1,-2,0
17.607081,2,11,-1,-5,20,0,0,3,0
17.609396,0,-1,-5,2,-17,-2,1,0,0
17.609442,-11,5,-3,-20,16,1,-2,-1,0
17.630225,5,-26,3,8,-9,-6,0,1,0
17.633173,2,6,4,3,-7,-1,-1,-2,0
17.633181,-11,-9,-3,-5,13,2,-2,-3,0
17.633184,0,16,-2,-4,-14,-2,0,1,0
17.652027,-3,19,-1,-1,8,-1,-2,-3,0
17.652038,3,-8,0,4,11,0,-2,0,0
17.653640,3,1,-1,-6,-6,-2,-1,0,0
17.653663,-14,0,0,4,-19,-3,-2,-2,0
17.667735,7,-40,-16,-2,-9,-1,0,-2,0
17.667743,-2,-2,-2,5,-40,-4,-3,2,0
17.673542,1,3,4,5,5,1,0,3,0
17.673560,7,40,7,4,-1,-3,-1,2,0
17.689946,-1,1,2,-10,-6,0,1,-3,0
17.689978,-11,-6,-2,9,-21,-3,-3,-3,0
17.692670,3,0,-1,16,8,1,2,2,0
17.692682,6,-7,5,2,10,4,2,1,0
17.714760,-2,17,-3,-2,-22,-2,-2,-2,0
17.714769,-2,-38,-11,-16,28,-2,0,0,0
17.714773,-8,-19,0,-2,4,0,-1,-2,0
17.714776,4,0,-2,-6,5,-4,-3,-3,0
17.726888,0,32,8,6,16,1,-1,-2,0
17.726912,-6,-8,1,-4,3,0,0,-3,0
17.733286,1,-17,-8,-13,-20,-3,-2,0,0
17.733310,-6,-11,-2,-6,-4,-3,0,-2,0
17.749443,-2,14,-3,1,49,-2,-3,-2,0
17.749460,4,13,3,6,7,2,1,-2,0
17.755799,-1,9,-1,-3,2,1,-2,1,0
17.755823,1,7,-22,-12,-100,-6,-3,-2,0
17.772007,-2,-38,19,8,68,-3,-1,3,0
17.772023,4,-24,-6,14,3,3,2,1,0
17.774820,-5,-11,-5,-9,6,-3,-4,-7,0
17.774834,-6,-6,8,11,5,0,-1,2,0
17.786365,-7,5,-6,-13,-23,-1,-2,-2,0
17.786381,1,12,-3,-9,-1,-3,-1,0,0
17.793954,1,-2,-2,-1,5,5,-1,-1,0
17.793963,4,-1,3,-2,18,0,0,-2,0
17.809795,-6,-45,-11,-4,-18,0,-1,-2,0
17.809819,-3,11,6,-3,0,0,-3,-4,0
17.811204,0,12,-1,-1,-6,-4,-2,0,0
17.811230,3,-14,6,-1,20,1,0,-2,0
17.840023,3,28,-7,-3,-29,-4,-1,1,0
17.840032,-8,-2,2,11,59,9,1,1,0
17.841024,12,2,-2,6,16,1,0,-1,0
17.841040,-5,-3,3,7,7,1,-2,0,0
17.846792,3,-29,4,-6,-30,-3,1,-1,0
17.846821,2,32,1,-1,-37,-4,-2,1,0
17.853398,-2,7,-4,1,16,2,0,1,0
17.853427,10,10,12,4,20,-2,1,1,0
17.869953,-13,35,1,3,-30,1,1,0,0
17.869965,-1,61,-10,-15,-4,-4,-3,-6,0
17.871197,-5,-35,4,-3,-9,-1,-2,-1,0
17.871217,1,2,-6,0,-8,-1,1,0,0
17.892142,-1,-4,-1,-3,7,0,-2,-2,0
17.892166,3,3,3,0,-12,-3,0,1,0
17.893687,-9,6,-3,-5,8,-3,-2,-2,0
17.893721,1,-16,-4,0,3,2,1,1,0
17.906377,2,34,0,-2,-23,-3,-3,0,0
17.907769,4,18,12,-8,18,-3,-3,-1,0
17.913421,-10,-78,-22,7,-25,-1,1,-2,0
17.913452,-4,4,-2,3,-5,-1,-1,-1,0
17.929993,2,8,6,-1,24,-1,-1,-2,0
17.930030,0,-5,1,4,7,3,2,-2,0
17.931469,1,25,11,-11,-3,-3,-1,1,0
17.931477,1,-1,-1,5,3,0,0,-2,0
17.952135,-2,-9,-13,1,-14,-2,-2,-1,0
17.952154,-3,-25,-7,0,-3,1,-1,2,0
17.953694,0,-35,-4,-10,3,-1,-1,1,0
17.953715,-1,-19,-4,8,11,-1,-1,-2,0
17.966443,5,23,3,-14,2,-2,1,-4,0
17.966464,-2,-24,5,17,19,2,-1,0,0
17.973169,1,38,-10,-3,-14,-2,-2,-2,0
17.973186,3,23,6,-4,2,-6,0,0,0
17.989559,-15,-51,-9,-6,38,5,1,-2,0
17.989576,-5,-14,-6,-11,-60,-5,-2,0,0
17.991105,4,24,1,6,40,-1,-1,-2,0
17.991116,0,44,-1,-6,-9,-1,-2,0,0
18.012268,0,-40,-3,8,-11,0,-1,-2,0
18.012298,-5,-8,-1,-12,1,0,0,-2,0
18.014036,0,24,0,5,-46,-2,-1,2,0
18.014062,1,-19,2,-5,20,2,-1,1,0
18.026606,-9,4,7,2,-31,-5,-2,-2,0
18.026616,-31,-54,-19,-14,36,-2,-2,-5,0
18.036445,4,-8,5,7,13,1,1,-2,0
18.036453,9,18,-1,0,6,3,2,-1,0
18.049585,1,5,10,7,-1,-2,0,-1,0
18.049641,2,14,-6,9,-9,-8,-1,3,0
18.051351,-6,-25,-4,-13,7,4,1,-2,0
18.051373,-7,-18,0,2,2,-4,-2,-1,0
18.074443,-4,-4,-9,-11,-2,1,0,1,0
18.074449,6,11,1,-8,-55,-4,0,-3,0
18.074453,-4,11,-1,2,18,-1,0,-1,0
18.074457,5,9,-2,1,11,3,0,-2,0
18.085888,4,1,-6,-2,9,-2,0,0,0
18.085912,1,36,8,-2,-27,-1,-2,-2,0
18.096023,-2,-48,-7,-10,-35,-1,0,-1,0
18.096035,-4,-15,2,0,31,-3,-1,-1,0
18.110152,0,21,-12,-2,-1,1,-2,-1,0
18.110188,0,-5,4,-5,5,2,2,1,0
18.112959,0,30,4,8,0,0,-3,1,0
18.112978,-1,-6,-1,-8,-22,-4,-1,-3,0
18.132046,-3,-11,-2,15,6,-2,0,-1,0
18.132063,10,2,13,-4,12,3,0,1,0
18.133547,-4,9,-1,-4,-8,-1,0,1,0
18.133557,1,-3,-3,0,-6,0,-1,2,0
18.146085,-1,21,-8,-1,-6,2,-1,-1,0
18.146122,-1,-41,-5,-7,1,-3,1,-7,0
18.155852,-1,14,7,8,26,1,-1,-2,0
18.155865,-5,9,0,-2,-13,2,0,-1,0
18.169702,0,20,7,-6,1,-2,-1,1,0
18.169726,3,13,-5,3,8,4,-4,-2,0
18.171126,4,-1,0,-4,0,-2,-2,0,0
18.171145,-5,-5,-3,1,-10,0,1,-2,0
18.192648,-4,-36,0,-5,-4,-1,1,2,0
18.192683,-3,2,-7,6,-11,-5,-2,0,0
18.195432,-3,11,-1,-11,8,-4,-2,-1,0
18.195476,-6,-16,-3,-1,-2,-1,0,-1,0
18.205751,9,21,1,-3,-21,1,-1,0,0
18.205768,-8,-27,-2,-4,3,-2,-2,-3,0
18.214921,-4,13,0,6,-6,-1,-1,-2,0
18.214928,-7,8,7,6,-29,-6,0,-1,0
18.230897,8,-12,3,-2,47,8,1,0,0
18.230905,-2,-23,-8,0,0,4,1,0,0
18.231193,2,-30,-3,2,-51,-5,0,1,0
18.231203,-2,11,-5,-7,13,0,-1,-2,0
18.252647,-5,11,-1,2,5,-1,-4,0,0
18.252675,0,1,6,-1,-3,-3,0,0,0
18.256803,-1,12,-1,-5,-7,-3,0,-1,0
18.256813,2,-15,-6,-4,-1,0,-2,0,0
18.265891,0,4,2,0,-15,-5,0,0,0
18.265915,2,18,-1,4,16,0,-1,-1,0
18.275301,-1,4,-2,-9,-75,-3,-4,-3,0
18.275322,2,-3,-3,2,65,0,1,0,0
18.289664,-3,37,2,14,19,0,-1,-1,0
18.289687,4,-10,-4,3,7,-3,-1,3,0
18.291157,-5,-13,6,0,5,-2,0,-4,0
18.291173,-3,-18,-3,-7,-37,-2,-3,1,0
18.312412,1,17,-2,2,35,-2,-3,-2,0
18.312456,-1,8,-1,-5,-7,1,-2,1,0
18.314340,0,0,-2,2,12,2,0,0,0
18.314354,1,5,-2,-4,-8,0,-1,-1,0
18.325973,-4,-17,-2,0,1,0,0,-2,0
18.326001,-3,8,-1,-2,-20,-6,-3,-1,0
18.335418,-2,-9,-13,-15,38,-2,-4,-2,0
18.335431,0,7,11,5,4,0,-2,-5,0
18.349570,-1,-21,-7,1,-10,3,-2,-2,0
18.349588,3,5,1,1,4,-1,2,0,0
18.351119,-5,22,-5,-2,7,1,-2,0,0
18.351135,-5,-5,-4,-4,-13,-2,0,2,0
18.372169,1,-12,6,-4,-12,0,-2,-4,0
18.372193,2,20,-2,-2,-9,0,0,-1,0
18.373914,1,2,6,3,16,2,1,-1,0
18.373946,1,1,3,-9,-69,-4,-2,-3,0
18.385922,-4,6,-4,5,89,4,0,0,0
18.385996,5,-12,-12,-1,-13,-2,-1,0,0
18.395318,-6,-11,7,6,14,3,0,1,0
18.395328,6,-43,-3,3,4,-2,-2,2,0
18.409896,-3,-11,-3,-16,-33,-5,-1,-1,0
18.409922,-7,4,2,-4,-1,-2,-1,-2,0
18.411137,-1,-4,-2,8,8,-1,0,1,0
18.411147,0,17,-4,-8,5,0,-1,-1,0
18.432085,-1,0,-8,-9,-28,-2,0,-1,0
18.432126,-3,12,6,10,19,2,-1,1,0
18.433545,2,12,1,-3,-14,-5,-2,-1,0
18.433558,-2,8,-4,6,19,1,-2,-2,0
18.455000,1,-13,1,3,-27,-5,-1,2,0
18.455032,-8,-4,5,0,-4,-1,-1,-3,0
18.457138,3,10,-1,-5,-8,0,-1,0,0
18.457146,2,-6,4,1,20,2,-1,1,0
18.469696,0,9,-2,1,-7,-1,0,-3,0
18.469713,-2,-2,-4,-13,17,-1,-3,-4,0
18.471045,-1,-6,3,12,4,-2,-1,-1,0
18.471055,0,2,-7,-18,-17,2,1,-1,0
18.493666,1,59,5,10,24,-3,-3,0,0
18.493683,-4,-69,-7,4,6,1,0,-2,0
18.493845,1,0,-7,-7,12,0,-1,-1,0
18.493892,-6,1,-7,-8,-37,-5,-1,-2,0
18.514582,5,17,8,4,34,1,0,-2,0
18.514599,-2,-11,1,2,-25,-2,-2,-1,0
18.516548,0,8,4,3,16,0,-1,-1,0
18.516555,-1,-6,-4,3,13,0,-2,0,0
18.530010,-6,-22,-4,-15,-34,-6,-1,-3,0
18.530036,3,16,3,-3,14,1,2,-1,0
18.531219,-4,-13,5,10,-6,-2,1,-1,0
18.531233,-2,12,2,3,-6,-3,-2,-2,0
18.552157,0,33,1,-7,-52,-4,-2,-1,0
18.552224,3,14,-4,7,63,4,-1,2,0
18.554521,3,-27,-5,-4,-4,-2,-2,2,0
18.554527,-3,5,-1,3,-11,-2,0,-3,0
18.574897,1,5,9,1,-8,1,-1,-1,0
18.575054,-5,19,1,-11,-21,-5,-1,-2,0
18.576270,-2,0,-2,1,-7,0,-2,-2,0
18.576302,-1,-5,-3,0,17,1,0,-3,0
18.589476,-1,-19,-1,9,-16,-3,-3,-1,0
18.589491,-1,53,1,17,50,8,3,4,0
18.591002,-3,-46,-3,0,3,-1,1,-1,0
18.591033,4,-1,0,1,7,0,-1,0,0
18.612447,-2,-17,-2,-13,-32,-4,2,2,0
18.612479,-3,17,-3,8,49,0,-4,-2,0
18.615155,-2,20,-1,-6,-12,2,-1,1,0
18.615164,0,3,-3,0,14,-1,-1,-1,0
18.634655,-2,-22,-1,-3,-2,-2,0,-1,0
18.634676,0,-16,1,-7,-35,-4,-1,-1,0
18.636088,-2,4,0,-3,4,-2,-2,0,0
18.636100,-4,-8,1,5,1,-3,-3,-4,0
18.649442,4,11,7,2,-9,3,1,-2,0
18.649451,-1,-28,-9,4,-32,-3,1,-2,0
18.656193,0,7,-2,-6,34,1,2,0,0
18.656224,-5,32,-3,-5,-10,4,0,-4,0
18.672057,-1,-13,-8,5,22,-2,-2,0,0
18.672073,-3,-12,5,1,-38,-2,0,-1,0
18.674558,-3,0,1,-5,-2,-1,-3,-2,0
18.674566,3,13,-4,0,2,-2,0,2,0
18.695171,-2,-11,-5,-7,10,0,0,-2,0
18.695180,0,-2,3,-11,-17,-3,-3,-3,0
18.701132,-1,3,-3,13,-7,0,-2,0,0
18.701164,-4,-16,0,-1,-10,1,-2,1,0
18.709208,-1,-2,7,-9,20,1,-2,-5,0
18.711331,-3,-6,1,-8,-67,-5,-4,-2,0
18.715830,4,3,6,1,8,-2,2,-1,0
18.715848,6,-6,0,2,-2,-2,0,3,0
18.732113,-11,-7,-12,9,-1,1,-1,-1,0
18.732130,-5,-13,-2,-11,-8,-1,-2,1,0
18.733651,-2,16,-2,-9,-9,-1,-2,-3,0
18.733667,-3,-20,-4,-7,-9,-2,-2,0,0
18.755282,3,-1,-5,-2,-10,-2,-2,1,0
18.755322,2,10,1,4,13,1,1,-2,0
18.759073,-5,-34,-2,-3,-25,0,-2,-3,0
18.759093,4,23,-4,7,28,-3,0,2,0
18.768872,-1,11,-3,3,-37,0,-1,-2,0
18.768890,-5,-20,8,3,34,3,0,-1,0
18.775879,2,13,-1,-3,-7,1,2,2,0
18.775904,-4,4,-5,-4,8,0,-1,-5,0
18.792040,-6,-41,-8,-19,-37,-9,-5,0,0
18.792108,6,16,0,1,6,1,-1,-1,0
18.793725,0,9,-1,4,-1,2,0,1,0
18.793756,-4,-3,5,4,-12,-2,-1,1,0
18.814638,1,-4,-2,1,5,2,1,-1,0
18.816222,-3,-51,-18,-10,-6,-3,-2,-2,0
18.816343,1,10,-2,-15,19,0,0,0,0
18.816396,-10,-22,5,5,-27,0,-1,-1,0
18.829178,0,13,1,1,11,0,0,0,0
18.829211,-1,15,0,2,42,2,-1,-1,0
18.836057,3,16,0,4,-12,-1,-1,-3,0
18.836083,1,-9,2,-1,-2,-3,-2,-1,0
18.852864,6,19,-4,-3,1,2,0,1,0
18.852873,-3,5,-3,3,-20,-1,0,0,0
18.853646,-3,-32,6,2,-44,-6,-3,0,0
18.853664,3,32,7,13,31,2,3,1,0
18.874639,0,-20,-4,5,15,-1,0,0,0
18.874659,-2,1,-1,-18,-32,-2,0,0,0
18.877380,1,11,-3,-12,32,3,0,-2,0
18.877389,-11,-20,2,12,47,1,-3,-4,0
18.889142,1,23,4,0,-4,-3,1,-1,0
18.889165,-1,-44,-6,-2,-21,-7,-2,-3,0
18.896166,-4,0,-2,-2,15,1,-1,-1,0
18.896203,0,-7,2,-9,-25,-5,-1,0,0
18.912486,-4,10,2,-2,32,3,-3,-3,0
18.912532,-3,14,-2,-2,-18,-3,0,-1,0
18.914541,-3,-17,-1,-3,-8,-1,-3,-1,0
18.914551,-1,-21,-9,1,4,1,-2,-2,0
18.934671,-6,-12,0,-3,-11,-5,-5,-4,0
18.934695,8,11,5,7,0,2,0,0,0
18.936073,-6,-21,-2,3,-1,-3,0,-3,0
18.936108,4,12,-2,0,-1,0,0,2,0
18.948225,5,6,5,4,4,0,1,0,0
18.948236,-5,-7,-2,2,32,-2,-3,-4,0
18.959056,-3,33,1,21,12,-3,-2,1,0
18.959075,5,-23,-10,-13,-5,-1,-3,0,0
18.972038,-4,-1,0,-6,7,0,-2,-2,0
18.972055,1,24,2,-1,0,1,-1,0,0
18.973531,-2,17,-1,-7,-40,-3,0,-2,0
18.973565,-7,-60,-3,-7,55,2,-1,-2,0
18.994878,3,7,-2,3,-37,-3,0,-1,0
18.994885,0,2,2,0,-10,1,-2,2,0
18.996369,4,-1,-3,-4,-23,-4,-1,-2,0
18.996399,-4,23,-7,-4,20,0,-4,-2,0
19.011561,-21,-47,11,5,20,5,2,-1,0
19.011568,7,-21,-6,-7,-18,-4,-1,0,0
19.017090,0,-3,-6,0,12,0,-3,-2,0
19.017115,0,18,-3,-7,-24,-3,1,-1,0
19.032149,2,9,-2,-5,3,-1,-3,1,0
19.032167,-4,-42,-12,3,-31,3,-2,1,0
19.033597,-3,9,-3,-17,0,-5,-3,-1,0
19.033629,2,-2,2,0,2,-2,0,-1,0
19.055384,2,9,-2,7,15,3,1,1,0
19.055507,-6,7,5,0,1,-1,-2,-2,0
19.058681,-2,10,-4,0,11,2,0,-2,0
19.058694,2,-13,-3,-5,-38,-3,-2,2,0
19.068475,-5,-4,-1,-8,5,-3,0,0,0
19.068499,10,40,-4,5,9,-2,0,0,0
19.078630,-3,-9,2,1,21,3,0,0,0
19.078650,-10,-35,3,-6,-21,-4,-1,-4,0
19.092243,-1,5,-1,12,29,1,0,1,0
19.092283,1,12,0,-6,14,-3,-1,-1,0
19.093886,2,-9,0,2,-15,1,1,1,0
19.093915,-5,30,-4,-17,-47,-5,-7,-7,0
19.114393,4,-8,-5,3,-21,-9,-4,-2,0
19.114428,-5,7,-5,-6,-33,-3,0,0,0
19.120930,1,-21,5,6,31,0,0,3,0
19.120946,1,9,-1,0,-9,-3,0,2,0
19.128398,-1,22,4,4,1,-1,-3,-2,0
19.128426,-3,-40,0,-3,9,-1,0,-3,0
19.139111,3,5,-1,-4,-34,-5,-2,-3,0
19.139120,-5,11,3,3,19,1,-2,-3,0
19.152479,1,-1,-8,0,-1,0,0,2,0
19.152486,-11,-28,0,1,12,3,0,-4,0
19.153657,4,-1,-1,2,-24,-1,-1,-1,0
19.153780,-2,-3,2,5,-7,-4,2,1,0
19.174806,0,3,-3,1,24,6,-3,-2,0
19.174832,-1,33,4,-14,-8,-1,-3,-2,0
19.177982,-4,-11,-10,2,-34,-3,-2,-1,0
19.177997,5,14,3,-1,-1,-4,0,2,0
19.188268,1,2,0,10,6,2,0,-1,0
19.188294,3,9,2,1,18,1,0,1,0
19.198744,-2,-2,3,-9,-15,-2,1,-2,0
19.198751,0,-3,-7,7,4,2,0,-3,0
19.212411,0,-3,-1,-11,-3,2,-1,-2,0
19.212441,-2,4,9,4,21,2,-1,0,0
19.214708,-2,17,-9,0,29,-1,-1,0,0
19.214718,5,-23,-6,1,-20,0,1,2,0
19.234704,-7,2,-4,-12,-24,-3,-1,-2,0
19.234734,1,-16,-11,-6,0,-3,-2,0,0
19.236352,-6,-3,2,-3,-27,-2,-3,-2,0
19.236371,-5,-1,-1,6,29,-1,0,-2,0
19.248222,-2,-16,-2,-7,-6,1,-2,-3,0
19.248240,2,16,3,2,-23,-5,-2,-1,0
19.260230,-1,13,-1,-1,31,1,-2,0,0
19.260245,2,-31,-6,-5,-10,-1,-2,-3,0
19.272082,3,-7,1,-3,2,0,-1,2,0
19.272106,-6,8,-5,-5,-6,-5,0,-2,0
19.274018,4,6,3,-1,19,3,2,-1,0
19.274031,-7,43,5,-3,8,0,-3,1,0
19.294717,1,-5,-1,-5,-9,-5,0,-1,0
19.294731,-2,-1,-7,-5,8,1,0,-1,0
19.296072,-1,-11,5,-1,9,6,1,1,0
19.296094,4,42,6,13,-11,-4,-1,-3,0
19.310144,-6,-76,-12,-6,2,2,1,0,0
19.310159,0,-2,-2,-1,-7,-1,-2,-2,0
19.317582,-6,-23,0,4,-3,-5,-2,-4,0
19.317589,0,7,-5,-10,-8,2,-1,2,0
19.332047,2,24,5,4,24,-2,-1,-1,0
19.332064,4,16,-1,4,9,-1,-1,0,0
19.333640,-2,-55,-6,1,7,-2,-2,-1,0
19.333677,0,-21,4,-6,-16,-1,-1,-3,0
19.354875,-3,9,-1,-2,-11,-2,-3,0,0
19.354902,-5,1,0,3,-2,0,2,0,0
19.356836,5,35,-1,-17,8,-4,-3,-1,0
19.356844,-10,-20,-3,6,-26,0,-3,-5,0
19.368331,9,19,-3,-7,-12,0,-1,-1,0
19.368359,-2,-6,-11,7,21,-1,-1,2,0
19.377326,-2,6,3,-3,-6,-4,0,1,0
19.377352,5,3,2,0,-38,3,-2,1,0
19.392231,-2,50,1,3,14,-2,-1,-2,0
19.392270,0,-46,-10,0,-27,0,-1,0,0
19.394478,-6,-23,-2,-4,-21,-2,-2,1,0
19.394490,-2,7,-2,-5,13,-2,-1,0,0
19.413984,-1,14,4,-6,-6,-1,-1,-1,0
19.414010,0,22,7,6,7,2,0,-3,0
19.422304,-10,-20,-10,-8,9,-1,-2,-1,0
19.422310,2,1,1,-2,18,0,0,-2,0
19.437290,0,-16,-5,-1,-17,-1,0,1,0
19.437313,3,11,10,-2,25,-1,-2,-1,0
19.438717,-9,23,1,14,2,0,0,-1,0
19.438733,-5,-49,-6,2,-2,-1,1,0,0
19.452063,-5,-12,-2,-17,7,-3,0,-1,0
19.452075,4,4,-6,3,-7,3,0,-1,0
19.453757,4,10,2,-5,31,4,2,1,0
19.453838,4,32,7,9,-14,-4,0,1,0
19.474596,-14,-39,-10,3,-6,-7,-2,-3,0
19.474618,-8,-15,6,-3,0,-2,-3,-3,0
19.477529,5,-13,-10,-6,-17,0,-2,0,0
19.477538,2,46,-3,-11,7,2,-1,-1,0
19.498447,3,-27,1,2,-9,-1,-1,-3,0
19.498459,0,24,0,-7,-17,-5,-1,0,0
19.498701,-2,-5,2,0,-6,-2,0,-2,0
19.498709,2,4,-4,1,19,0,-2,3,0
19.513786,1,17,1,4,-10,0,-1,1,0
19.513796,-2,-33,3,4,3,0,-1,-1,0
19.513802,5,16,-2,0,-9,0,1,-4,0
19.513877,-8,-17,-3,3,-6,-4,-2,-2,0
19.534819,6,46,3,1,26,1,-3,0,0
19.534879,-5,-16,-2,-4,-5,-4,-3,-2,0
19.536183,1,9,4,3,13,1,-1,1,0
19.536199,2,-12,0,-11,-6,-3,0,-1,0
19.557188,6,33,12,16,34,2,-1,0,0
19.557279,-1,7,-9,-4,1,-3,0,-1,0
19.559156,-3,-24,-8,0,0,-5,-2,-1,0
19.559185,2,-2,-6,-10,14,-2,-1,1,0
19.571980,-2,9,-5,-12,-23,1,-2,-2,0
19.572005,7,7,6,8,0,5,1,-4,0
19.578254,-3,-3,-1,0,-4,3,1,-1,0
19.578274,-6,-8,1,-3,-23,-1,2,0,0
19.594718,1,-14,-1,2,12,0,-3,-1,0
19.594744,-1,0,4,-1,-21,0,0,0,0
19.596480,1,9,1,-2,9,1,-2,-2,0
19.596526,-3,13,-1,9,7,0,2,-1,0
19.617182,-6,-28,-2,-19,-14,-6,-1,-5,0
19.617201,-2,9,6,-2,6,1,1,1,0
19.619058,5,55,1,6,-7,-5,-1,-1,0
19.619071,4,-2,1,9,12,1,-2,1,0
19.631508,-19,-40,-2,3,0,-1,1,0,0
19.632686,2,4,0,-4,0,-3,-2,-2,0
19.638420,-3,9,-3,-8,-3,-3,-1,-3,0
19.638444,-1,-33,-2,-6,-58,-4,-4,-5,0
19.654486,-5,60,-5,6,20,2,1,-2,0
19.654517,-1,-20,-2,0,-12,-3,-1,-1,0
19.656014,-1,-13,3,5,23,2,-1,0,0
19.656032,-9,11,1,-8,8,-2,-3,-1,0
19.677275,5,-10,0,1,-9,-2,-1,0,0
19.677297,-1,7,-2,-7,-23,-5,-3,0,0
19.678631,0,-19,-8,-3,22,7,-2,-2,0
19.678639,4,3,-1,4,17,1,-1,-1,0
19.691635,0,-13,-7,-7,-16,-1,-1,-1,0
19.691795,-7,36,-6,-6,4,0,0,-1,0
19.698303,-10,-89,-9,16,-43,-4,-1,-3,0
19.698319,2,10,3,-5,27,0,1,0,0
19.714890,4,-9,0,2,-18,-1,0,-1,0
19.715873,1,7,1,-7,-1,1,-2,-1,0
19.716096,0,32,-4,-18,-43,-5,-2,1,0
19.716238,-3,1,0,6,55,-3,-4,-3,0
19.737296,2,-35,-2,3,-6,0,1,-3,0
19.737324,2,34,-4,-1,5,-3,-1,2,0
19.738766,-4,-19,2,1,9,0,1,-2,0
19.738791,-2,-10,-2,-1,-9,-2,-2,-1,0
19.751359,2,11,5,-5,-4,-1,-1,-1,0
19.751371,-5,-10,-8,-2,-8,0,0,-1,0
19.758915,2,12,-6,-1,-26,-5,-1,-2,0
19.758951,-1,-1,2,-7,23,2,0,-1,0
19.774664,-2,21,2,7,18,0,-1,1,0
19.774691,2,-24,1,2,12,2,-3,-2,0
19.777137,-1,0,4,18,2,-1,-2,-2,0
19.777146,0,-4,0,2,-12,1,0,0,0
19.797315,3,33,-2,2,-8,-1,-1,0,0
19.797324,-5,-31,0,-3,3,0,0,0,0
19.798663,-4,12,-2,-24,6,-3,-5,-2,0
19.798708,-1,-10,7,20,10,-1,0,-2,0
19.811703,-1,27,-5,-4,-12,-2,0,2,0
19.813310,1,-1,-1,1,-2,-3,-1,-3,0
19.818294,-3,2,1,0,10,3,1,-2,0
19.818319,-3,-7,-6,-9,-22,0,-2,0,0
19.834681,-3,10,2,-3,6,0,0,0,0
19.834699,-2,-25,-4,2,5,2,-1,-2,0
19.836375,-3,7,-1,-1,-22,1,0,1,0
19.836383,1,2,0,3,29,0,0,1,0
19.856140,-5,-13,5,2,-36,-1,-2,-2,0
19.856158,2,49,-1,-3,17,-1,0,0,0
19.865025,-10,-85,-2,4,-22,-7,0,2,0
19.865031,-2,13,1,0,62,5,0,-2,0
19.871433,4,-22,-1,1,-16,-4,-1,0,0
19.873662,-10,-8,-11,-17,-4,-2,-3,-3,0
19.878449,9,26,13,5,12,0,0,-1,0
19.878487,-1,-6,-3,-11,-37,-8,-2,-2,0
19.894638,-1,-23,-6,-5,16,2,-1,-4,0
19.894660,-1,10,-1,8,-7,-4,-2,-3,0
19.896248,2,34,-2,-4,19,0,1,2,0
19.896279,-1,-19,-6,-3,-10,-1,-2,0,0
19.917172,2,18,2,1,-1,-3,-4,-3,0
19.917188,-8,-27,3,1,4,1,0,0,0
19.919913,-2,11,1,-4,-20,-1,-3,-2,0
19.919921,1,3,-2,2,-17,-1,2,0,0
19.930913,6,1,-4,-10,2,-3,1,2,0
19.930932,-8,-71,-2,-4,-1,0,-3,-1,0
19.940588,1,3,-1,4,14,-1,0,-1,0
19.940594,-3,4,3,-3,-61,-2,-1,-1,0
19.954623,-4,-18,-5,-8,6,-5,-2,-3,0
19.954648,7,42,1,-3,19,-5,-1,-1,0
19.956894,-3,-11,-9,1,2,8,1,3,0
19.956904,2,4,1,-10,-4,0,-1,2,0
19.977199,-8,5,0,4,0,1,0,-3,0
19.977219,-1,-26,-1,3,11,-1,-2,0,0
19.979635,2,7,3,-8,-36,-5,-2,-2,0
19.979655,0,14,-3,-1,3,1,-2,-2,0
19.990736,-6,-11,-5,-8,8,0,0,-1,0
19.990782,-2,21,4,6,-15,2,2,-1,0
19.999753,-2,-20,-3,15,7,-4,1,-1,0
19.999762,1,-6,-3,-2,17,3,0,0,0
20.014607,-10,-23,-5,0,6,0,-2,-3,0
20.014624,4,10,3,-3,-20,-3,-3,1,0
20.016014,0,7,0,-8,11,0,1,1,0
20.016025,0,-7,-6,-21,-15,-10,0,-4,0
20.037578,5,13,6,38,69,6,-1,2,0
20.037608,6,19,2,4,0,4,1,1,0
20.040399,2,23,4,-7,19,-2,-3,1,0
20.040408,-8,-20,-5,-2,7,-1,-1,1,0
22.061669,-3,-3,11,-3,-18,-1,14,-14,1
22.062326,-2,0,-5,-7,-2,1,22,-10,1
22.063501,5,2,-11,-9,5,-5,-5,18,1
22.063508,0,2,-1,6,-31,-3,-18,-8,1
22.083870,0,-24,-10,3,51,-1,-4,-4,1
22.083894,0,3,7,5,-42,-4,11,1,1
22.084538,2,-30,-10,1,20,9,-17,4,1
22.084551,-2,16,12,-4,-29,-1,4,4,1
22.098837,-2,-4,7,8,18,-3,15,-14,1
22.098854,0,-10,-12,-11,5,3,8,22,1
22.099514,0,20,2,19,0,2,6,-10,1
22.100213,-3,2,-5,3,-8,-12,-31,-18,1
22.121378,-1,-13,8,9,-12,4,8,13,1
22.121394,0,17,6,2,3,-2,-4,2,1
22.124162,1,8,-17,-1,-10,-5,15,8,1
22.124169,-1,-8,-3,0,30,34,4,0,1
22.143984,-3,-13,9,1,-19,-28,-20,3,1
22.144012,0,-14,5,7,7,0,12,-9,1
22.146527,-1,9,-9,-14,-9,-8,-20,3,1
22.146543,-1,9,-8,-6,24,-11,-2,4,1
22.159329,-4,5,-7,-9,-1,11,5,18,1
22.159367,-2,-10,9,-8,-22,-2,7,-9,1
22.160969,-1,15,-13,10,29,-7,6,-7,1
22.160979,-3,-12,-3,4,6,8,2,-4,1
22.181379,0,31,-14,-6,-9,4,-4,2,1
22.181397,-1,-26,24,2,1,-8,6,-8,1
22.182038,-3,9,-7,-9,-13,2,11,2,1
22.182058,-4,-15,2,2,-4,-11,-18,2,1
22.203918,-1,7,-19,-4,-15,-4,-13,-10,1
22.203935,-3,27,10,-4,13,7,-11,2,1
22.205248,1,-34,-3,-8,-9,2,27,-3,1
22.205254,3,5,-30,-12,1,-29,-29,14,1
22.219238,-5,-33,42,11,-3,19,29,-31,1
22.219256,8,6,-23,-7,-6,-5,-14,1,1
22.220571,-1,9,10,7,2,-1,-10,-13,1
22.220579,-4,-17,-3,-4,-1,-7,-4,9,1
22.242948,3,18,-8,-5,-1,-5,-3,8,1
22.242961,-5,-21,0,-5,11,7,6,-12,1
22.242964,-1,1,5,-7,-14,-3,2,5,1
22.242968,-1,9,1,10,32,-9,-5,-11,1
22.264094,-3,11,-21,-3,-7,0,-42,-1,1
22.264120,-8,30,5,-15,5,22,76,14,1
22.266036,-4,-84,7,2,-20,-6,-26,-37,1
22.266043,1,8,-3,-7,-3,-8,0,3,1
22.279268,0,-6,4,0,-3,-3,-10,-5,1
22.279290,5,4,-29,3,-10,-15,-6,5,1
22.280946,-1,26,-10,-6,16,6,5,20,1
22.280952,-1,-8,18,7,-6,1,13,-23,1
22.302615,-1,-2,-4,-1,-2,-4,-19,-10,1
22.302629,0,-6,0,-8,-5,3,6,-2,1
22.302636,0,12,0,-7,-14,-1,-18,10,1
22.302643,-1,-7,13,-9,-29,2,-10,-13,1
22.324611,5,11,-20,-2,39,1,15,37,1
22.324651,-5,1,5,2,0,-10,2,-36,1
22.327239,-1,-20,-5,8,-8,-5,-1,16,1
22.327249,2,7,0,-1,-4,4,8,16,1
22.339096,-4,-14,-3,-8,-20,-4,-7,-27,1
22.339121,-1,18,-1,9,16,-1,-13,0,1
22.340872,6,-19,-38,-20,-17,-4,5,13,1
22.340885,-2,30,18,7,1,0,15,-3,1
22.361490,-2,-27,1,1,-20,-1,14,6,1
22.361513,1,-1,-2,4,7,-4,-19,3,1
22.363873,-1,24,6,-4,17,0,8,-1,1
22.363880,-2,-10,-1,13,-5,0,-10,-1,1
22.384042,-3,-3,2,6,31,3,-10,-3,1
22.384066,2,-16,-10,6,-7,6,28,17,1
22.384712,-5,59,9,-11,6,-6,-26,-20,1
22.384731,-1,-36,9,-8,4,5,13,13,1
22.400381,1,4,-1,6,-10,7,6,9,1
22.400406,1,-17,-5,-4,-8,-10,-23,3,1
22.401328,5,97,-34,-2,5,-16,-18,-6,1
22.401348,-11,-39,41,0,4,21,24,0,1
22.421351,6,4,-1,-10,-44,-18,-7,-14,1
22.421367,-4,18,0,-5,13,1,-4,8,1
22.423399,4,-31,-23,17,43,13,14,10,1
22.423416,1,24,-13,-11,-2,-11,-16,-8,1
22.443890,-3,-10,-2,4,-1,10,-2,5,1
22.443909,-3,-7,13,2,-1,1,13,4,1
22.444616,-5,-14,13,-8,-5,-3,-17,-20,1
22.444625,2,6,-14,-4,-6,-6,-12,15,1
22.459103,-3,-11,-3,2,13,3,37,-6,1
22.459128,-2,11,17,-6,-4,-6,-15,-8,1
22.461390,-6,-32,-4,-6,-19,-5,17,-6,1
22.461409,3,14,-3,14,-8,0,19,6,1
22.481447,0,14,-11,-1,-9,-1,5,-4,1
22.482482,-3,-21,35,3,8,-4,-16,4,1
22.482489,-5,4,9,5,-9,3,11,-18,1
22.482493,-3,-6,-15,-15,2,-3,-15,-18,1
22.503789,5,22,-13,4,-1,-2,5,5,1
22.503801,-2,-21,-1,-3,-13,-1,6,-5,1
22.504536,0,0,16,8,25,8,24,23,1
22.504544,-1,13,-4,3,-20,-4,-31,-23,1
22.520101,0,-11,19,-1,20,-1,5,0,1
22.520108,1,-5,-11,6,-5,5,0,0,1
22.520112,-3,-14,13,-9,23,3,9,-11,1
22.520115,1,15,-16,3,2,-4,5,10,1
22.541508,-3,-21,14,-7,-21,-6,-13,12,1
22.541531,-6,-7,-20,-11,10,-2,1,-14,1
22.544432,0,9,-2,9,-18,4,-6,6,1
22.544440,0,-22,-5,11,-1,-10,-19,1,1
22.565834,3,66,-7,-3,17,23,-6,-13,1
22.565880,-6,-90,53,0,-24,-13,27,19,1
22.565884,1,-8,-9,-16,-15,-9,-24,-28,1
22.565887,-1,-1,-1,-7,25,4,1,4,1
22.579361,1,-5,-9,13,-14,-8,-18,4,1
22.579407,1,35,-23,-3,9,1,17,12,1
22.581546,-4,-13,-11,-4,1,12,-8,-1,1
22.581553,0,24,40,-7,20,-2,-5,-4,1
22.601636,0,-38,-18,10,1,-2,19,4,1
22.601654,2,13,-9,7,8,3,-7,-8,1
22.602293,-2,-15,16,4,-23,-14,-10,7,1
22.603950,1,6,-36,6,15,16,15,2,1
22.624327,-4,4,17,5,17,-1,-30,-14,1
22.624358,5,15,-4,-1,-1,2,9,-3,1
22.627296,-1,-5,-22,-19,-11,-12,-19,-8,1
22.627307,-5,19,4,14,-18,4,7,14,1
22.639008,-6,-16,30,-25,-10,-8,2,-12,1
22.639040,1,-3,-7,8,8,-2,-22,-10,1
22.640947,-3,6,0,3,4,0,0,5,1
22.640955,2,-2,-5,-9,-12,-5,0,12,1
22.661452,-6,-11,-9,-9,2,-5,11,-20,1
22.661465,2,68,-18,-8,7,-2,-60,22,1
22.662166,-2,-82,8,8,-19,9,41,-20,1
22.662181,-2,-5,-9,-3,-8,-11,-11,5,1
22.683985,2,-1,-2,0,14,0,7,10,1
22.684006,1,5,-15,2,2,-3,-1,-11,1
22.686363,1,23,-5,-2,2,3,5,16,1
22.686368,2,-15,10,4,-21,-2,-2,-8,1
22.699011,-5,-3,-17,-12,19,-8,-15,0,1
22.699037,1,-3,11,-1,1,6,28,12,1
22.701378,-1,31,-13,-6,-4,15,17,-18,1
22.701385,-4,-43,20,-4,-3,-9,-33,-16,1
22.723880,-6,6,7,14,26,2,-9,-15,1
22.723888,-2,-11,-2,-7,-6,-13,-9,-4,1
22.723891,1,9,-1,4,-2,-2,-7,15,1
22.723894,1,11,-17,-19,10,7,18,6,1
22.753821,1,23,-15,-10,-21,-5,-14,4,1
22.753830,-6,-36,21,22,-2,9,4,-7,1
22.753833,2,4,17,-3,13,5,31,6,1
22.753836,-4,-6,-3,5,-18,-12,-24,-11,1
22.759254,1,-7,1,-7,-26,5,28,12,1
22.759283,2,16,-18,15,19,3,-3,-4,1
22.761158,1,9,9,5,4,-3,11,5,1
22.761166,4,0,2,7,-2,-2,-15,6,1
22.781550,0,5,-21,2,1,-9,-32,-26,1
22.781573,-10,13,7,-15,-17,10,39,24,1
22.783837,-3,-17,30,10,4,4,-17,-30,1
22.783848,5,-3,-9,-3,15,-1,11,8,1
22.803894,-4,2,-3,-10,-18,-6,-7,13,1
22.803910,4,-8,-2,2,-15,-8,0,-10,1
22.806607,-5,11,19,7,11,-1,-19,14,1
22.806613,-5,4,-5,-6,-10,2,21,-12,1
22.818145,2,0,-4,16,38,7,10,8,1
22.818156,6,53,-36,-16,-18,-12,4,-13,1
22.826585,-5,-63,43,7,-21,-15,3,26,1
22.826608,-5,-11,-14,-6,14,13,-32,-42,1
22.841714,3,7,4,2,-16,-13,0,4,1
22.844129,-3,-7,-13,-5,6,1,-13,-2,1
22.844137,2,25,-30,-3,-7,-3,-3,11,1
22.844140,-3,4,4,-7,0,-9,14,0,1
22.864827,-2,-13,1,3,0,16,2,10,1
22.864845,-4,-7,-11,-1,-11,-9,-15,-5,1
22.865064,2,37,-12,3,-10,5,-37,-11,1
22.865073,-3,-25,19,-3,-15,7,22,-2,1
22.878424,-3,-3,-1,-7,-15,-2,-16,-4,1
22.878452,4,-24,5,2,2,-6,0,6,1
22.886616,-7,-1,-13,-20,4,-1,-20,2,1
22.886640,2,8,-11,1,-10,-5,3,4,1
22.901482,-2,36,-6,-17,-15,-2,1,-4,1
22.901508,0,-45,-1,23,1,2,-11,-8,1
22.903363,-1,-13,6,2,-23,10,6,16,1
22.903369,-4,-6,12,-5,17,-7,-28,-31,1
22.927094,-6,-39,25,-7,-20,-5,36,14,1
22.927103,0,7,-18,-12,0,-5,-17,-25,1
22.927106,1,16,-18,-7,1,-5,13,7,1
22.927109,2,-5,-3,2,-16,-2,3,15,1
22.938678,2,14,1,13,31,4,-6,6,1
22.938693,-3,-5,8,-1,3,-2,-4,-5,1
22.946707,0,4,0,10,5,-1,-9,-6,1
22.946725,-2,6,-4,8,-2,20,3,15,1
22.961570,-2,8,-7,-12,-15,-14,25,-19,1
22.961608,-3,-40,0,-7,-18,0,16,-7,1
22.962576,6,13,4,17,2,-8,-10,3,1
22.962697,2,3,-4,3,16,-15,1,12,1
22.984064,4,11,-8,-1,-24,15,1,20,1
22.984090,-6,2,9,9,39,-1,-11,-13,1
22.986324,1,-3,-19,-15,9,5,-9,-3,1
22.986334,-2,1,9,-2,-21,-4,6,13,1
22.998245,-1,-12,11,0,-27,-6,-7,-10,1
22.998262,0,30,-5,-10,-4,-1,-1,6,1
23.006911,-4,5,4,7,4,-4,-8,-1,1
23.006942,-1,-7,-22,-1,11,-5,14,-1,1
23.021307,-4,-68,37,6,3,7,-7,-3,1
23.021323,-2,16,-4,-9,-10,-4,-27,6,1
23.022014,-1,13,-10,-6,6,4,19,-15,1
23.022048,2,-24,-9,-15,-49,-8,-13,9,1
23.043932,1,14,-9,3,69,-4,9,3,1
23.043951,3,2,2,7,-39,-1,18,-5,1
23.044880,2,-8,5,5,25,4,41,20,1
23.044890,-1,11,-8,-3,-5,-3,-13,-21,1
23.058888,-1,0,21,12,29,8,9,12,1
23.059047,1,0,17,-1,3,4,34,3,1
23.066366,-2,17,2,-16,-36,-9,-18,-7,1
23.066381,-4,-45,-7,7,32,-3,1,-9,1
23.081494,1,7,-12,-11,-47,3,-13,5,1
23.081511,-4,-2,21,15,76,1,5,2,1
23.082117,-3,-42,4,-5,-27,-14,-20,-22,1
23.082134,-2,24,-5,-7,13,5,9,-6,1
23.104164,-1,11,-14,-6,-15,-9,-30,-13,1
23.104188,2,-2,-6,-5,-11,0,0,4,1
23.105840,-5,2,0,1,12,-2,-1,7,1
23.105852,5,-3,5,26,5,-4,-5,9,1
23.128102,1,7,-7,-11,2,-2,26,6,1
23.128112,-6,-24,-5,-12,-13,12,-9,-36,1
23.128116,3,47,-7,13,14,-4,-16,2,1
23.128119,1,-10,-20,-15,9,10,-3,-4,1
23.142857,2,11,19,7,-4,-11,3,19,1
23.142872,-1,-9,-14,-6,-22,-5,44,23,1
23.142876,-2,13,15,-10,17,3,-66,-36,1
23.142879,-5,4,-2,-7,-12,-2,23,12,1
23.163939,0,20,-40,4,40,-1,-24,-11,1
23.163957,-5,-28,17,-12,-19,-1,3,1,1
23.165377,-2,-68,2,2,5,0,18,-3,1
23.165385,0,49,5,-2,-6,-3,-4,-8,1
23.178471,0,-26,-21,-1,-17,-2,-7,3,1
23.178519,-1,28,-9,-2,-5,-8,-39,-6,1
23.186809,-3,-10,6,8,6,12,18,-21,1
23.186841,-5,-9,-14,11,9,1,-21,-6,1
23.201596,-4,8,24,-4,-1,-9,24,8,1
23.201614,2,36,-7,3,11,-2,-33,-4,1
23.203233,-2,-34,4,4,-20,-3,13,18,1
23.203240,0,15,-32,-17,-9,-10,-18,9,1
23.223862,-4,-27,12,14,-22,20,-3,-18,1
23.223910,-1,6,0,5,10,0,-7,5,1
23.224584,2,13,-25,-12,-17,-6,19,8,1
23.224603,1,3,30,-6,15,1,-13,-1,1
23.247323,-5,-10,2,3,10,1,10,-6,1
23.247341,0,-4,2,-4,-14,1,1,14,1
23.249941,-3,7,-21,-11,-6,2,-4,-13,1
23.249950,-2,-18,15,9,0,-6,9,6,1
23.261531,-1,-1,1,-4,-17,-3,-17,-8,1
23.261561,4,-18,17,16,14,-1,30,11,1
23.263927,-2,2,-9,7,0,-3,20,-7,1
23.263936,-1,37,9,-10,-3,-2,26,-9,1
23.283884,-1,-24,-9,2,2,5,-14,11,1
23.283904,-6,1,-18,-9,-6,-2,-16,-8,1
23.284842,1,-11,16,6,27,-6,-2,13,1
23.284898,-2,12,25,-2,-9,28,21,4,1
23.307398,-1,-2,-2,-5,-23,-25,-4,-19,1
23.307421,-1,6,-7,-14,-7,-2,-8,15,1
23.309430,-2,11,0,14,15,-5,-11,-2,1
23.309451,0,-9,-15,-12,-14,-11,-4,-11,1
23.321290,1,17,6,-2,31,12,15,24,1
23.321306,-4,-7,-6,-7,-1,8,-11,-31,1
23.322056,-4,2,-13,-14,-39,-6,-8,1,1
23.322063,1,-29,11,7,13,0,0,3,1
23.345291,5,14,-5,4,-25,-5,-21,1,1
23.345298,0,-25,7,0,14,-6,-8,4,1
23.345302,2,63,-61,-8,6,3,9,2,1
23.345305,-6,-94,59,22,12,11,7,-9,1
23.367405,3,13,-26,-10,-12,-10,-12,-11,1
23.367421,-3,1,1,-1,4,4,-6,1,1
23.369636,1,3,7,-6,-2,4,-1,-2,1
23.369642,-1,34,-18,-13,-32,-7,-8,6,1
23.381588,0,6,-10,-3,-9,-6,-6,-6,1
23.381605,2,-23,18,11,24,12,52,-7,1
23.383261,4,-15,4,-3,-15,-9,-13,20,1
23.383267,2,18,1,-3,1,-6,10,4,1
23.403927,-4,-11,14,0,3,5,-17,-24,1
23.403943,-2,18,-16,-13,-28,-7,-7,12,1
23.406570,1,9,10,14,11,-1,27,3,1
23.406577,-2,-29,-11,3,-9,1,-40,-11,1
23.427588,2,5,-12,5,29,0,12,6,1
23.427624,2,33,-30,0,-8,-9,12,11,1
23.428036,-10,-72,71,-4,2,10,4,-9,1
23.428070,1,10,-19,-5,-9,-14,-18,-9,1
23.441585,-2,6,5,7,-6,1,1,8,1
23.441622,0,2,-26,1,18,-6,-12,-17,1
23.442548,-2,-8,-2,-13,-7,-12,-17,19,1
23.442578,1,20,3,5,16,17,19,-16,1
23.463985,-4,-33,11,-9,-7,-3,1,-3,1
23.464008,0,4,9,7,20,1,-22,2,1
23.465748,3,14,-17,-8,-12,-5,-4,-1,1
23.465756,-3,8,-3,-9,17,3,-2,5,1
23.487219,-2,6,-9,7,5,3,4,1,1
23.487225,2,2,13,-12,-15,1,-22,14,1
23.487659,-3,-10,-7,-13,5,8,1,-17,1
23.487667,-1,-10,-6,9,8,-9,9,3,1
23.503225,1,14,2,-11,-7,5,3,-1,1
23.503238,-3,-12,-3,5,-9,-6,-6,0,1
23.503245,1,-5,-13,4,17,-2,-6,9,1
23.503251,-2,65,6,-1,-17,6,33,12,1
23.524100,-4,-29,8,-6,-2,-7,-21,-28,1
23.524118,-1,-4,-2,4,-7,-2,-5,-7,1
23.526840,-1,-34,-5,14,19,-5,-3,-2,1
23.526850,1,8,-28,2,4,-7,-6,8,1
23.549167,-5,16,3,-3,7,1,5,6,1
23.549174,-1,-10,6,2,-16,-1,7,-7,1
23.549178,1,18,-9,1,5,0,1,-6,1
23.549181,-4,-10,0,-3,-9,-8,5,7,1
23.561494,-2,1,-15,-9,-22,-2,-15,-3,1
23.561624,-6,7,16,1,21,33,30,-27,1
23.564083,0,3,29,0,-14,-25,-13,-1,1
23.564089,4,-12,-5,-18,-26,-8,2,8,1
23.584325,1,3,9,19,-6,-11,2,4,1
23.584344,-1,25,-13,3,8,0,-8,2,1
23.585284,-2,16,2,-7,-9,12,6,-4,1
23.585311,-2,-10,-13,3,10,-3,-7,-4,1
23.607015,1,1,-4,-7,2,3,1,13,1
23.610200,-4,-14,-2,3,0,-4,-10,-9,1
23.610214,-2,-6,-4,-1,2,7,8,6,1
23.610218,2,-5,-4,0,12,-6,-29,0,1
23.621350,-6,47,-32,-44,-16,11,9,-14,1
23.621367,-1,-67,51,58,-25,-14,-11,-10,1
23.622918,1,23,3,-3,21,15,18,12,1
23.622931,-2,-39,-5,34,33,2,-17,-9,1
23.643830,-3,6,-5,-5,-5,-2,3,-3,1
23.643883,1,4,-12,-16,5,-10,-12,10,1
23.644670,-2,6,-19,-6,-11,-4,5,-6,1
23.644691,-1,12,8,-4,8,4,3,14,1
23.668150,-1,-22,7,5,3,-1,-2,-10,1
23.668182,-3,4,-10,-13,3,-13,-8,1,1
23.668192,-2,1,6,5,-12,7,-11,4,1
23.668201,1,7,2,-14,-8,21,41,1,1
23.681471,-4,-16,4,7,-13,-29,28,-13,1
23.681487,1,27,-14,-15,-8,-2,2,-14,1
23.682457,0,-6,25,11,-34,-7,-6,-7,1
23.682464,0,2,8,-2,17,-1,-21,-7,1
23.703769,0,-37,-9,5,19,11,2,17,1
23.703780,1,37,-15,-8,14,5,31,20,1
23.704479,-2,-29,2,4,1,-5,-67,-23,1
23.704496,-2,-18,-9,-6,-4,-3,33,0,1
23.727103,3,24,8,4,11,14,-1,15,1
23.727124,-2,5,-7,-26,-56,9,24,-2,1
23.728518,2,-24,-20,22,74,-11,-8,-1,1
23.728527,-7,41,40,-2,-23,-1,-2,3,1
23.742072,0,-26,10,15,7,-4,-21,-5,1
23.742104,-2,8,-10,-4,20,9,-17,-7,1
23.744237,-2,-3,-11,-10,-19,1,33,13,1
23.744256,1,1,-3,0,-6,-10,-3,-7,1
23.763965,-1,16,-11,0,14,-2,-3,1,1
23.763983,0,-24,20,8,-13,-7,-8,11,1
23.765830,-3,-6,-19,-13,-39,30,23,-9,1
23.765843,0,3,34,-4,37,-47,-46,-23,1
23.787530,4,-8,4,15,-21,2,38,34,1
23.787561,0,14,-7,-1,21,-7,-12,-20,1
23.789733,-3,-12,-13,-6,-2,0,21,12,1
23.789740,0,5,-22,-6,-12,17,-39,-19,1
23.800846,-1,-19,15,-6,-8,5,-10,10,1
23.800867,-2,-7,7,3,-9,-15,5,-14,1
23.809132,1,13,-15,11,46,1,3,6,1
23.809157,-1,9,-18,-8,-14,1,12,4,1
23.824721,0,-12,10,3,6,-8,-12,-12,1
23.824755,-2,-14,-20,-3,-15,4,1,13,1
23.831585,-4,26,28,-19,-2,-11,-26,-15,1
23.831612,2,12,-27,7,-16,-2,6,14,1
23.847347,-7,-58,12,2,27,-9,-17,-38,1
23.847366,-6,2,8,-5,-4,10,15,3,1
23.847757,3,-1,-11,-15,-15,-11,4,-1,1
23.847772,-4,2,30,1,-7,0,6,5,1
23.861361,-2,26,-11,1,8,5,-1,4,1
23.861386,1,-20,-16,-1,8,-4,-2,10,1
23.868952,-6,15,51,10,-1,-12,-24,-9,1
23.868969,1,-9,-22,9,17,17,18,-2,1
23.884671,-2,7,-3,-7,-5,-4,-22,16,1
23.884694,-3,4,-7,2,4,-3,16,-20,1
23.886467,3,-16,-12,3,0,-1,2,12,1
23.886475,-1,-9,9,15,-12,5,-19,1,1
23.907777,3,20,-13,-16,-26,2,16,4,1
23.907798,1,-11,9,5,47,9,-18,13,1
23.908290,-3,-6,11,4,-2,-1,24,-6,1
23.908308,0,-6,-9,-3,1,-6,-30,-4,1
23.920934,-3,3,-14,1,-15,3,-13,-2,1
23.920942,1,11,15,-8,-20,-10,13,12,1
23.929006,0,4,-26,-6,-17,2,-4,-1,1
23.929028,-4,-9,10,0,33,-8,16,4,1
23.943959,-2,16,-5,11,8,8,1,-17,1
23.943980,0,-5,-9,-2,-10,-4,-19,-4,1
23.945402,0,10,4,0,7,5,-3,2,1
23.945423,-6,2,-23,-14,-31,10,7,-6,1
23.967296,-2,-13,8,-6,-16,-36,18,6,1
23.967318,5,3,4,-10,2,-1,-9,-11,1
23.967909,-1,4,-17,-8,-7,0,-1,7,1
23.967930,-6,25,-1,-10,1,5,27,-18,1
23.981131,1,-44,-7,6,14,13,-6,4,1
23.981181,-3,0,14,-1,25,-2,-22,-10,1
23.989211,1,6,-3,-6,1,-8,-4,7,1
23.989241,4,0,-28,-4,-17,-1,-11,12,1
24.004231,-3,26,37,8,13,-3,9,-8,1
24.004266,-2,-13,-17,-1,-14,-3,30,29,1
24.006526,2,-9,21,6,-8,2,-14,-34,1
24.006532,-4,-6,-7,1,27,3,-11,-6,1
24.027235,2,11,-4,-15,-29,-2,-6,0,1
24.027257,-1,-25,15,18,12,3,-5,5,1
24.029653,2,25,-18,-4,-3,-4,-9,-3,1
24.029661,-3,-18,29,-7,-24,-12,1,30,1
24.040699,1,16,-29,0,-37,-6,18,-33,1
24.040716,-2,-9,32,5,14,0,0,5,1
24.048928,-1,-2,13,-3,-5,-17,-7,-7,1
24.048944,2,-7,-13,7,12,5,8,1,1
24.063854,0,-4,-2,-4,4,10,-29,0,1
24.063931,0,19,-9,-7,-12,-10,-2,-5,1
24.064611,-5,-5,-12,2,-4,0,36,8,1
24.064621,0,-27,10,-4,-11,-3,-3,-3,1
24.087099,-2,24,5,-4,-2,-3,-5,0,1
24.087116,-3,5,-15,5,34,5,-14,-6,1
24.088156,-3,-22,-22,-7,-7,-15,6,4,1
24.088168,-4,15,11,3,-3,1,-2,-16,1
24.100872,-1,-41,13,-2,-2,-8,0,-5,1
24.100904,-2,9,2,-4,-12,6,-6,-1,1
24.109014,2,0,-12,0,1,11,-5,11,1
24.109041,1,0,-1,12,23,-5,10,-8,1
24.125530,-2,10,-6,-14,0,2,-2,17,1
24.125539,-2,23,-37,8,-26,-8,-26,-14,1
24.125543,-6,-22,42,1,10,3,-25,-11,1
24.125546,2,24,-18,-12,-18,6,64,12,1
24.147136,-4,-30,6,0,4,3,-5,-13,1
24.147168,1,-5,-33,-25,-66,-6,0,9,1
24.148064,1,23,0,14,50,-1,-4,0,1
24.148070,1,-7,-3,9,-3,4,-18,0,1
24.170734,0,-34,-16,-1,23,1,-1,6,1
24.170741,-1,10,41,2,-17,0,26,-6,1
24.170744,-4,-2,19,-6,-16,-2,-21,-2,1
24.170747,2,-18,5,-8,-3,-5,-3,8,1
24.184063,-2,26,-20,1,7,-8,6,-11,1
24.184086,-2,-3,-2,4,0,2,-14,-21,1
24.185501,1,-6,-12,-20,-15,5,16,11,1
24.185518,-1,66,-16,-10,35,-6,-13,0,1
24.207111,1,-82,40,34,25,5,-1,14,1
24.207127,0,6,3,0,11,-10,1,-1,1
24.207949,-6,5,-19,-16,11,21,13,14,1
24.207970,5,-9,-11,-10,-62,-4,-1,-27,1
24.229856,-5,37,-7,-1,14,-3,-7,3,1
24.229877,-5,-30,8,-8,22,-8,21,10,1
24.231232,1,31,-26,15,4,-3,-23,-5,1
24.231241,-5,-73,21,-9,-15,-13,-2,-12,1
24.244152,3,23,-2,0,-13,7,0,11,1
24.244184,-1,-1,-10,0,-3,4,-7,-18,1
24.246111,-1,2,-5,-4,-18,-10,5,0,1
24.246121,-1,9,13,8,13,0,-1,6,1
24.267104,4,20,-7,-7,-3,6,12,-1,1
24.267118,3,11,-3,1,16,6,-4,14,1
24.267730,-4,-24,37,-1,-25,-5,12,-5,1
24.267737,-3,-2,1,17,7,-6,-23,-23,1
24.290178,-2,9,-6,2,-11,-5,0,6,1
24.290194,4,-12,1,-10,6,0,-7,7,1
24.293247,0,17,-5,4,-9,-1,-10,0,1
24.293260,2,-5,-3,-4,12,1,-10,26,1
24.303902,-5,12,3,-2,-26,-1,8,-22,1
24.303920,-1,25,-14,-5,-7,-3,-7,17,1
24.305090,1,-18,17,10,-10,-12,-1,-14,1
24.305103,-4,-3,11,0,4,5,-12,2,1
24.327581,0,8,-8,-5,-5,-3,5,15,1
24.327589,1,-10,6,0,14,6,2,-13,1
24.327731,1,0,-42,3,4,1,0,-7,1
24.327761,-2,7,35,15,-8,5,-10,6,1
24.349574,1,66,-11,5,15,-17,2,2,1
24.349591,-3,-98,13,7,-17,7,-14,2,1
24.351445,1,8,-6,-17,10,-2,-2,-7,1
24.351451,-1,-5,-12,9,14,-5,5,-8,1
24.364047,0,15,-11,-9,10,6,-4,-3,1
24.364067,-4,25,-10,0,-5,-10,-2,3,1
24.364715,2,-23,9,0,-14,8,16,-5,1
24.364727,-3,-22,-6,-17,-30,-7,-14,7,1
24.387815,-6,-22,13,4,61,13,-7,-20,1
24.387861,0,-2,-17,-6,-8,0,-1,18,1
24.387874,-1,0,0,-7,2,8,2,-11,1
24.389789,-4,11,-12,-5,-12,-8,3,10,1
24.410015,2,-3,14,-5,-10,-8,-7,-1,1
24.410042,1,-9,-4,-5,1,2,12,-1,1
24.411461,-3,4,-18,4,-7,2,2,-4,1
24.411473,2,26,-11,-7,4,3,10,-3,1
24.424441,3,-5,-17,-7,0,0,2,6,1
24.424471,-1,-29,6,7,8,2,9,-5,1
24.425239,-2,-13,10,6,5,-5,-9,9,1
24.425390,-2,-12,-31,-11,-7,4,5,-8,1
24.447148,-1,18,-2,-6,-4,-5,-9,0,1
24.447168,0,35,41,3,-13,10,-11,-12,1
24.448198,1,-15,-14,7,-1,-12,34,8,1
24.448206,-7,-13,-10,-4,0,-4,-14,-12,1
24.470032,0,-14,-5,-7,-39,-1,2,-3,1
24.470052,-2,-1,-14,6,49,-2,-7,-5,1
24.470296,-1,36,-1,-9,-25,7,-16,5,1
24.470409,1,-37,52,13,13,-1,7,14,1
24.483796,-4,6,-23,-17,-14,6,2,-13,1
24.483807,-4,1,-1,4,-10,-9,-21,-21,1
24.484610,-6,-11,21,-12,-8,-9,10,21,1
24.484633,1,21,-12,-3,7,-9,-2,-10,1
24.507789,0,-1,23,10,1,-1,0,18,1
24.507829,0,2,-3,-2,-1,1,-5,-3,1
24.510234,2,5,-7,5,20,-2,5,1,1
24.510249,2,16,-13,3,-10,1,-7,-6,1
24.530021,-4,-36,16,0,0,-5,2,-10,1
24.530031,-5,12,7,-1,-26,-5,23,-1,1
24.530377,-2,-8,-14,-7,17,-8,-13,-6,1
24.530386,0,-11,-5,-8,-29,8,17,7,1
24.544749,3,-11,-18,10,41,7,-2,-7,1
24.544761,3,28,3,-7,2,-7,-4,7,1
24.544764,4,32,-29,-1,-29,-5,-8,6,1
24.544767,-5,-74,50,11,1,3,18,-6,1
24.576485,-3,-18,0,-11,-7,2,-8,0,1
24.576538,-2,30,-6,0,0,-3,10,-4,1
24.576541,1,-24,2,7,22,-2,-18,-8,1
24.576544,5,32,-23,0,-12,13,13,13,1
24.591916,-7,2,4,-10,-13,-19,6,-5,1
24.591933,-2,-12,-8,-6,31,-9,3,-24,1
24.591938,4,9,-7,-12,-27,3,-8,2,1
24.591942,-3,0,-3,17,63,-2,3,-4,1
24.604030,5,6,-8,-1,-8,5,3,7,1
24.604046,0,31,-36,-12,-23,1,-2,16,1
24.605396,-6,-81,17,1,8,-3,-9,-17,1
24.605403,-2,15,-10,-13,-10,-2,-9,-17,1
24.627442,-3,2,-8,-3,-5,-3,-9,-6,1
24.627475,3,7,-24,1,-9,-8,-16,17,1
24.629562,-6,45,42,-12,8,16,27,-14,1
24.629572,4,-20,-10,5,-34,-10,-9,2,1
24.649553,-1,4,-7,-4,10,-1,-13,-2,1
24.649570,0,-14,20,3,-21,-1,15,0,1
24.651621,-2,0,-12,-2,36,-4,-26,-4,1
24.651639,-2,10,-11,-21,-63,0,-11,-1,1
24.663991,1,22,17,35,60,2,44,3,1
24.664008,-2,-41,40,11,6,20,-21,1,1
24.665009,-2,-10,2,4,-4,-8,-11,0,1
24.665015,2,25,-27,-7,14,5,2,5,1
24.686211,1,-20,-3,-5,-33,-8,0,8,1
24.686229,-2,6,1,3,6,-13,7,-8,1
24.694140,-2,-6,11,0,-5,14,5,10,1
24.694176,-4,18,8,-4,25,-3,-5,5,1
24.709743,4,0,-38,-10,-17,24,0,-11,1
24.709769,-5,-10,57,12,8,53,-9,-13,1
24.711960,0,23,-12,4,-25,-70,29,11,1
24.711970,0,-24,-17,-7,18,-14,-12,2,1
24.723306,-4,-3,-1,-7,-5,1,-14,2,1
24.723334,0,28,-13,-11,-16,-6,-6,0,1
24.732675,-2,4,-16,4,0,20,22,4,1
24.732691,-3,-3,15,-8,-12,-2,-4,2,1
24.748394,-3,-4,6,-2,9,-4,-31,7,1
24.748405,6,-8,2,23,2,-5,11,-15,1
24.748409,4,11,10,-4,-12,9,-10,10,1
24.748413,-4,-16,-4,7,39,7,-15,-46,1
24.770311,-1,26,-1,-9,-30,-8,-14,32,1
24.770338,1,-19,-2,-12,-6,-15,27,8,1
24.772386,-5,-27,-2,18,18,8,-12,-19,1
24.772397,3,14,-21,-22,-20,8,-6,-2,1
24.783409,-7,-16,27,11,-1,2,13,-3,1
24.783433,3,9,-12,-3,9,-23,-5,29,1
24.794392,0,-11,-1,-3,12,3,0,-19,1
24.794417,-2,-8,0,2,-9,-10,-2,3,1
24.807213,-7,13,-14,-11,2,-3,-7,-3,1
24.807237,1,-8,-15,1,-5,23,-9,2,1
24.809221,-4,-21,-1,-20,0,-21,-8,-3,1
24.809237,-4,-2,22,16,17,0,17,18,1
24.829942,-1,3,8,-1,7,-5,-19,-23,1
24.829968,-3,26,-16,-24,-54,-25,-6,-2,1
24.831451,4,-35,16,33,38,34,-4,8,1
24.831463,1,14,-2,-15,2,0,1,3,1
24.843407,0,-9,-4,14,-10,-12,14,-5,1
24.843433,-3,-9,8,-14,34,-3,-8,-7,1
24.852541,-1,30,-36,-24,-40,4,-2,-6,1
24.852548,-2,-23,46,20,26,-10,7,15,1
24.867187,2,-25,-16,4,-12,8,2,7,1
24.867209,-2,9,1,1,-4,-10,18,15,1
24.868696,1,22,4,6,33,4,-16,-22,1
24.868715,0,-1,-17,-1,-27,2,-9,1,1
24.889642,1,3,9,-15,-16,-1,19,-7,1
24.889660,-2,-16,-16,3,8,9,18,4,1
24.891331,0,19,30,1,-19,-7,-6,8,1
24.891407,0,6,-4,8,-5,0,0,3,1
24.904298,1,32,-17,0,-7,-2,-15,-20,1
24.904310,-5,-27,14,-3,-19,0,-3,4,1
24.913234,1,30,5,10,52,1,2,16,1
24.913247,0,18,-18,11,-11,-8,0,-14,1
24.927086,-3,-8,-18,-10,9,-3,-5,-3,1
24.927108,-5,-50,-8,8,2,-2,2,-21,1
24.928830,-1,10,-7,-6,-23,-4,-5,2,1
24.928861,0,9,2,7,-3,8,15,15,1
24.949985,1,-9,-3,-5,25,14,16,8,1
24.950000,2,14,-15,-1,-13,-6,-5,-14,1
24.951429,-8,-19,26,-5,0,-14,-31,17,1
24.951466,2,4,-3,-4,1,-3,-16,-23,1
24.963533,1,28,15,6,-13,0,6,2,1
24.963569,1,-19,-19,-14,3,0,-15,8,1
24.973372,0,-24,-17,9,-1,0,8,10,1
24.973383,-5,-15,20,-3,7,1,-36,-5,1
24.987214,-2,0,6,-4,3,-1,12,8,1
24.988661,-3,41,0,-3,-21,-3,-30,-25,1
24.988669,-1,-3,-10,-3,47,1,22,2,1
24.988672,-5,-20,-2,-6,-23,-3,5,-10,1
25.009718,3,-10,25,4,6,1,-18,-3,1
25.009740,2,0,-6,2,-4,-1,15,11,1
25.011948,2,1,-18,-21,-26,4,-18,1,1
25.012114,-2,-8,20,-12,0,0,31,0,1
25.023202,-4,-7,-10,11,2,-7,-28,-10,1
25.023219,1,2,-2,2,24,28,29,20,1
25.032502,0,35,30,6,-26,-15,-24,-26,1
25.032509,-5,-18,-27,-4,12,9,17,1,1
25.047525,6,8,-1,-5,-9,-9,4,1,1
25.047577,-3,-11,-12,7,22,5,-45,-15,1
25.048668,-1,-8,22,6,-23,5,24,15,1
25.048687,1,-7,23,1,8,-26,-2,-8,1
27.074482,-2,-8,-1,-7,-3,-2,-2,-2,0
27.074870,-5,-10,-8,1,-2,-3,-4,0,0
27.074880,2,30,7,-6,-5,0,-2,-1,0
27.074884,-3,-25,5,5,3,-4,-1,-2,0
27.094785,11,1,-7,-8,-11,-1,-2,0,0
27.094811,-9,36,8,5,-11,0,1,-1,0
27.096228,-5,-14,-17,-7,10,2,-1,-1,0
27.096262,1,18,4,3,2,0,0,-4,0
27.117330,0,-19,-2,-7,-14,-2,0,2,0
27.117354,5,27,-3,3,11,-3,-3,-3,0
27.119376,7,-6,5,-1,24,4,1,2,0
27.119385,2,-3,10,0,16,-2,-3,-2,0
27.132312,-7,22,-1,6,-19,-5,-2,-1,0
27.132337,0,-14,-4,-2,-24,-1,-1,-2,0
27.135190,0,-40,-3,-9,-15,-7,-1,-3,0
27.135200,3,10,-5,13,-1,3,1,-2,0
27.154560,-6,-3,6,6,7,2,1,-3,0
27.154607,-1,-11,3,-2,-5,-2,-2,-2,0
27.158868,-4,40,1,-2,3,0,-1,-3,0
27.158883,-8,-40,-15,-7,-10,-2,-2,-4,0
27.177188,11,43,-1,-2,-20,-3,-3,-4,0
27.177208,-5,-27,-9,-2,7,-1,0,0,0
27.180055,8,0,8,-1,1,0,-1,-1,0
27.180068,6,19,0,0,0,0,-1,1,0
27.192065,-7,10,1,0,16,2,-2,-2,0
27.192086,18,7,3,-9,-9,-3,-3,-2,0
27.198177,-9,15,0,6,36,-1,0,2,0
27.198194,-4,-26,-1,-8,0,-3,-2,1,0
27.214551,4,1,-2,-4,-12,0,0,0,0
27.214568,-27,-37,-4,13,13,3,0,0,0
27.216045,12,-23,-2,-11,-31,1,-1,-2,0
27.216065,-3,24,-7,2,-11,-6,-1,-3,0
27.237055,-11,-12,0,-3,9,-4,0,2,0
27.237071,3,-13,4,2,-6,-1,0,0,0
27.239849,-5,37,1,5,-4,-3,-1,-2,0
27.239856,-1,0,-4,-6,1,3,2,-1,0
27.251669,2,3,-1,-4,3,-3,-1,-1,0
27.253532,1,-8,2,-4,-11,-3,-1,-2,0
27.258402,-13,13,2,1,11,1,-1,1,0
27.258424,10,-10,3,2,-7,-4,-1,-1,0
27.276037,-7,-27,-14,-7,-19,-1,1,2,0
27.276053,-5,-24,-4,-2,29,0,-2,-1,0
27.276281,-6,3,-5,-7,-1,0,0,-3,0
27.276292,4,27,0,2,-2,-3,-3,-1,0
27.297490,-7,-16,6,6,36,4,-4,-4,0
27.297515,2,4,-6,-1,-12,-1,0,-2,0
27.299688,1,-12,5,3,-26,-7,-2,-2,0
27.299695,-7,-27,-6,-5,37,8,1,4,0
27.311863,5,-11,-2,-12,-12,0,-1,-2,0
27.311951,-4,11,2,0,-5,-1,0,-1,0
27.318472,8,12,11,9,0,-2,-2,-3,0
27.318504,-5,-6,4,-6,-6,-3,-2,0,0
27.334988,-8,9,1,-2,-8,-1,-3,-3,0
27.335019,-2,-4,-12,-7,10,0,-1,0,0
27.338329,2,-22,-2,-6,-2,0,-1,2,0
27.338338,-12,-27,-7,-12,-17,0,2,-1,0
27.357697,1,18,3,12,22,1,-1,-1,0
27.357730,2,16,-4,0,-2,-1,-1,-2,0
27.360545,-1,-9,-1,-4,2,0,-1,0,0
27.360559,5,18,-3,-6,-29,-2,0,-1,0
27.370649,2,-7,3,4,48,-1,-1,1,0
27.370663,-4,-12,-2,-4,-13,-3,-2,-1,0
27.381302,7,48,6,3,-3,0,2,2,0
27.381310,-21,-56,-8,-10,0,1,-5,-5,0
27.394745,14,-17,-2,5,-8,-2,0,-1,0
27.394768,-16,14,4,-4,-1,0,1,-1,0
27.396322,1,-10,-13,5,24,1,0,-1,0
27.396328,10,63,21,5,-6,-2,-2,-5,0
27.417233,-5,-17,-17,-11,2,0,-1,2,0
27.417243,10,-13,-4,-3,4,1,-1,-4,0
27.418652,-13,-54,-6,-20,-30,-3,-3,-2,0
27.418672,-5,5,-2,9,44,2,-2,-5,0
27.433354,3,19,5,-5,-52,-5,-1,1,0
27.433363,8,17,5,17,58,-1,-1,-1,0
27.438358,-9,-1,-4,-1,2,-1,-1,0,0
27.438374,7,25,-4,0,-11,-3,0,0,0
27.454602,-4,-16,3,-7,-27,-3,-1,-1,0
27.456440,0,13,-3,0,-2,-1,-1,-2,0
27.456458,-1,8,2,3,-5,0,-1,0,0
27.456466,4,-15,-2,-10,6,-4,1,4,0
27.477342,-4,2,6,18,11,3,-1,1,0
27.477378,6,57,1,3,-12,-1,-2,-1,0
27.479267,-6,-34,-5,1,13,0,-2,-6,0
27.479276,2,13,-1,-8,-21,-3,1,3,0
27.491644,-1,17,0,0,6,-2,1,-4,0
27.491677,6,0,-4,-9,-8,0,-1,0,0
27.500503,-2,-24,4,-1,-7,-3,-2,0,0
27.500509,-5,10,-5,14,19,0,0,-2,0
27.514695,4,24,-5,-5,-3,-3,-2,-1,0
27.514713,-3,-27,8,0,-9,-2,-2,-1,0
27.516179,2,13,-4,-5,-5,0,0,0,0
27.516197,-3,21,-4,-7,-6,0,0,0,0
27.537062,-3,-24,0,1,5,-2,1,-4,0
27.538253,-3,-13,3,-6,-26,-6,-1,1,0
27.538839,-4,52,-17,-12,-8,-3,-2,-4,0
27.538905,-3,-27,6,7,5,-1,-2,0,0
27.551001,-4,10,-3,-26,-14,-1,-4,-3,0
27.551025,-4,-28,0,22,20,0,-2,-2,0
27.560972,1,19,5,-7,-11,-3,-3,1,0
27.560979,2,11,1,5,-17,-3,-1,-1,0
27.574431,-6,-23,-10,-7,10,1,-3,-4,0
27.574548,-1,-10,2,-18,-20,-4,-2,-4,0
27.580946,2,-35,-5,3,16,-2,0,1,0
27.580971,-2,15,-3,3,-18,-1,1,1,0
27.597214,-3,-32,0,-4,5,-3,-1,-4,0
27.597235,-7,11,1,-5,6,3,1,0,0
27.598752,5,19,3,7,4,-1,1,-1,0
27.598788,5,-11,-4,-1,10,0,-1,-1,0
27.610924,0,-3,-9,-2,-15,0,-2,-1,0
27.610944,-9,-36,-1,0,5,-1,-2,-1,0
27.619748,9,15,0,5,8,-1,-1,0,0
27.619761,-12,-39,9,5,-8,0,-1,-1,0
27.636745,-6,-3,1,-2,2,-3,1,-1,0
27.636755,3,15,-5,-5,-5,-1,-1,-2,0
27.636758,-8,-14,1,-4,1,2,0,2,0
27.636761,8,18,0,2,-23,0,-2,-4,0
27.658049,2,12,0,-4,8,-2,0,3,0
27.658087,-1,-3,-2,2,-13,-2,-1,0,0
27.661268,2,15,5,5,11,3,-1,0,0
27.661286,2,-46,-7,-7,-12,-3,-2,3,0
27.670959,-22,-12,0,12,-3,0,-1,-2,0
27.671001,-13,10,-7,-6,-12,-1,-2,0,0
27.680346,4,-5,-5,-10,-19,0,-1,-3,0
27.680354,0,-2,10,7,23,3,0,-3,0
27.694952,9,-9,-9,-8,-15,-1,-1,2,0
27.694995,0,-18,-3,4,17,-2,-3,-3,0
27.698094,-1,8,7,9,-6,-2,-1,-3,0
27.698104,2,4,-4,-15,4,-1,-3,0,0
27.717205,10,20,8,10,0,0,0,1,0
27.717220,-5,-9,0,-12,-5,0,1,-2,0
27.718734,0,-38,-4,5,10,-1,-1,-1,0
27.718751,1,9,-9,1,-1,0,0,-2,0
27.730751,3,20,3,2,2,2,0,1,0
27.730857,3,2,-5,-9,-25,-1,-2,-3,0
27.740734,-1,2,4,-10,15,1,0,-1,0
27.740741,-4,-3,-2,5,7,-4,-2,-4,0
27.755224,3,24,-12,-6,-14,-4,-1,-1,0
27.755268,-5,-27,3,11,50,0,1,4,0
27.757167,-3,-13,-1,-5,-15,-2,0,-1,0
27.757173,3,59,-5,-4,11,-2,-2,0,0
27.777261,0,-16,-1,-5,-5,0,-2,-1,0
27.777271,5,13,3,2,-21,-5,-1,-1,0
27.778716,-7,-5,-14,-2,9,-2,-4,0,0
27.778736,-2,16,7,-6,9,1,-1,-1,0
27.792236,-3,-9,2,2,-5,-3,0,-1,0
27.792255,16,-17,-5,-6,-13,-1,1,2,0
27.800588,-21,4,3,4,7,3,-2,-1,0
27.800595,0,-10,-3,-2,-19,-2,-1,-2,0
27.814562,2,25,7,1,16,1,0,0,0
27.816460,-4,-63,-1,-3,-4,1,-1,-4,0
27.816467,13,41,3,-6,-3,-1,-1,-1,0
27.816470,-3,0,-2,8,-4,0,-2,-1,0
27.837086,-9,-27,2,-7,5,2,0,-1,0
27.837123,7,56,6,6,-28,-7,-3,-3,0
27.838497,5,22,0,17,2,3,-1,-3,0
27.838514,-10,-46,4,4,8,-1,1,0,0
27.850652,3,13,-5,-4,4,-1,-1,-2,0
27.850668,4,23,9,7,4,3,-1,2,0
27.861129,-7,-83,-14,-12,-22,-3,-2,-3,0
27.861146,2,18,-4,-8,-2,2,-2,0,0
27.875051,-3,8,1,4,15,1,1,-3,0
27.875081,-6,-2,-13,-13,-11,0,-2,-2,0
27.877142,3,13,7,2,-3,-2,0,0,0
27.877151,6,4,2,1,-18,2,1,2,0
27.897839,-4,-28,-7,-3,28,-2,-2,-1,0
27.897854,-6,7,-3,-3,2,0,-2,-6,0
27.898624,1,8,3,-7,-7,-2,0,-2,0
27.898638,0,0,-6,6,9,-1,-1,-3,0
27.911010,5,6,7,5,-16,-2,0,1,0
27.911047,-5,-12,-6,-5,4,-1,-1,0,0
27.921028,-5,-3,2,1,5,-2,-1,2,0
27.921035,2,3,-10,-13,-45,1,-1,1,0
27.934649,1,13,2,10,30,1,-1,0,0
27.934675,-16,-29,-5,-4,-4,0,-1,-3,0
27.936147,5,9,9,-10,5,-7,-3,-2,0
27.936216,-5,-32,-5,1,-11,-5,-3,-3,0
27.957371,-2,7,-5,3,-22,-3,-2,0,0
27.957409,1,19,4,1,26,3,0,0,0
27.959523,-4,11,-6,-9,-8,0,0,-1,0
27.959540,1,-13,1,2,37,2,0,-1,0
27.980069,-2,1,0,-6,-42,-3,-3,-1,0
27.980106,-3,-24,-1,1,-2,-2,0,0,0
27.981168,3,11,-1,-1,-2,-2,-1,-1,0
27.981184,2,21,4,8,20,-1,0,0,0
27.994674,-11,13,-5,-4,-3,-1,-1,-2,0
27.994690,4,9,9,-4,-25,-2,0,0,0
27.996290,1,9,-11,11,15,0,0,1,0
27.996310,-5,-9,3,-3,14,0,-2,-5,0
28.024652,3,-54,-5,-1,-2,-2,1,-2,0
28.024672,0,15,2,-5,-8,0,-2,-3,0
28.026330,-1,2,-2,2,10,0,-1,-2,0
28.026363,1,-5,-1,-5,-14,-4,0,0,0
28.041637,-14,5,0,-11,-19,-4,0,-2,0
28.041660,3,-6,-5,4,-12,4,-1,0,0
28.041669,9,-20,2,0,10,-2,-3,0,0
28.041675,-9,7,-2,2,-3,0,0,-2,0
28.056577,7,0,9,0,0,-1,-1,-1,0
28.056586,-4,-7,-11,-6,-13,-6,-2,-2,0
28.056590,-2,12,5,-1,-13,-1,-1,-1,0
28.056593,7,13,0,-4,12,1,-3,-2,0
28.077170,0,1,-4,3,-15,-3,-1,-1,0
28.077265,-11,-9,3,0,42,1,0,0,0
28.079409,10,45,3,13,-17,0,-2,0,0
28.079419,-7,-35,-8,0,59,6,-1,1,0
28.099721,1,4,-1,-2,5,3,-1,-1,0
28.099740,2,14,3,3,4,-3,-1,-2,0
28.101993,-6,-11,-3,-11,-11,-3,0,-1,0
28.102003,-1,12,5,1,-27,-5,-1,1,0
28.113941,-3,-6,-3,1,11,-1,-3,-1,0
28.113963,3,8,-7,-5,-21,0,-2,1,0
28.120722,-6,-21,-2,0,-7,-2,-1,-1,0
28.120738,2,1,6,16,-16,-4,-1,0,0
28.136961,-4,-8,-3,-6,15,1,-2,-1,0
28.136973,0,13,3,9,-5,0,-2,0,0
28.138437,-5,-9,0,-4,-6,1,0,0,0
28.138471,-3,15,-8,-7,-4,-1,0,-1,0
28.159768,0,-4,1,-1,-17,-5,1,3,0
28.159789,7,17,2,3,1,-3,-1,-4,0
28.161375,-15,-52,-13,-6,9,2,-1,-2,0
28.161381,0,3,-1,-3,-8,-3,0,0,0
28.174368,6,30,7,3,1,0,0,-2,0
28.174394,0,-36,0,1,19,0,0,0,0
28.180893,5,-3,3,-3,-1,-3,-1,-2,0
28.180915,-5,-19,-4,-9,0,-4,0,-3,0
28.197054,3,-1,-3,1,-4,3,-2,0,0
28.197064,-1,8,0,5,18,-2,-2,2,0
28.198541,-2,10,-8,-9,-33,-2,-1,-2,0
28.198555,-5,1,1,-6,3,0,0,0,0
28.219818,8,-2,-4,0,-6,0,-2,0,0
28.219835,-6,28,1,-6,12,1,0,-1,0
28.222270,7,-18,-3,2,-33,-4,-2,1,0
28.222278,-12,-5,0,-11,-17,-2,-4,-2,0
28.234086,8,7,-2,2,8,-1,0,2,0
28.234105,-2,-18,-10,-8,-26,-3,1,1,0
28.240899,2,24,4,-1,18,1,-1,0,0
28.240916,-9,-37,0,2,-9,-3,-1,-2,0
28.257277,-2,-25,-3,2,1,0,-1,-2,0
28.257294,-7,-11,-1,-5,5,0,-1,0,0
28.259824,2,17,2,-4,5,0,1,-2,0
28.259839,9,10,-1,-3,-3,-2,-3,0,0
28.279975,-7,-5,3,2,12,-2,1,0,0
28.280003,7,44,3,6,-4,-2,-1,1,0
28.281214,-14,-37,-2,1,16,1,-1,-1,0
28.281234,4,-1,2,-7,-35,-4,0,-2,0
28.293994,-4,-15,-1,3,-33,-1,-1,-1,0
28.294011,8,21,3,-1,-8,1,0,-4,0
28.300924,-5,6,-2,12,47,0,-1,0,0
28.300951,-8,-7,-3,2,11,3,0,1,0
28.317304,-4,12,-3,-10,-7,1,-2,-3,0
28.317335,1,-47,-4,-1,-18,-4,-1,-3,0
28.319256,1,17,9,-5,-10,-4,-2,-2,0
28.319268,3,9,-3,9,8,0,-1,0,0
28.340055,-2,5,2,-8,8,-1,0,0,0
28.340063,-1,20,1,0,0,-2,-2,0,0
28.340957,6,-7,1,-5,2,0,-2,-1,0
28.340969,3,12,1,-2,2,0,-2,0,0
28.354438,3,45,-2,-3,-10,-1,-2,-4,0
28.354454,-7,-84,-3,-5,22,0,0,-1,0
28.360913,-6,1,-7,9,-2,1,1,-2,0
28.360936,8,17,7,-1,5,-2,1,2,0
28.377227,12,32,3,1,-18,0,-2,1,0
28.377254,-19,-41,-7,-20,-54,-7,-2,-3,0
28.378934,-1,8,10,4,17,1,-1,-2,0
28.378990,0,5,-2,2,10,0,-1,-2,0
28.399821,-7,-30,-5,2,29,2,0,-1,0
28.399852,10,32,1,-6,-4,0,0,0,0
28.401829,0,1,-2,-4,-18,-3,-1,-1,0
28.401835,-2,-4,6,0,-11,-1,-1,-1,0
28.413980,2,27,-6,-6,-7,-3,-1,0,0
28.414005,-5,-44,-5,-3,12,1,-1,-2,0
28.420748,-5,-5,0,10,-3,-4,-2,1,0
28.420772,0,12,5,3,0,1,0,-1,0
28.437036,-9,-31,-7,-5,19,-4,-2,-3,0
28.437083,4,30,3,0,-3,-3,-1,-2,0
28.438482,-4,3,-5,15,11,-1,-3,-4,0
28.438519,0,0,-1,-4,-6,-1,-1,-3,0
28.459761,5,-51,-2,-2,-5,-2,-2,-2,0
28.459787,-11,4,-5,9,-3,-2,-2,-1,0
28.461457,-2,-8,-6,-12,22,0,-1,2,0
28.461472,1,11,2,-3,-16,-1,-2,0,0
28.473289,-2,-3,3,4,8,1,0,-1,0
28.473305,-3,12,-7,5,16,5,1,0,0
28.482109,1,-11,3,-5,-14,0,-1,-3,0
28.482148,-1,-11,-17,-2,-15,-6,0,0,0
28.497384,0,7,6,-2,13,-3,-3,0,0
28.497401,2,21,6,3,-1,0,0,-1,0
28.498477,3,-12,-8,-17,-72,-6,1,0,0
28.498488,6,37,2,9,24,-4,-2,-3,0
28.519827,-4,-22,-3,-5,-11,2,1,-1,0
28.519852,-3,-2,2,2,5,-1,2,0,0
28.522251,2,6,-5,-1,11,1,-3,-3,0
28.522259,-6,-3,2,-11,-9,0,-3,-3,0
28.533226,-4,-5,4,6,1,0,0,1,0
28.533272,2,14,1,-5,-1,-3,-1,0,0
28.544230,-6,10,1,2,9,-1,-3,0,0
28.544239,17,-17,-1,-3,-1,-3,-3,-3,0
28.557584,-22,-32,1,4,3,-1,-3,-3,0
28.557615,10,15,-1,1,1,1,-1,1,0
28.560844,-13,-13,-1,-4,6,3,-1,2,0
28.560855,6,23,1,-3,-1,1,-1,1,0
28.580205,3,-6,-4,-1,-13,-2,-1,-3,0
28.580327,5,16,-2,-11,-7,-2,-1,-2,0
28.581532,1,-17,1,1,0,-2,0,-1,0
28.581555,-15,-36,-7,5,33,4,0,-1,0
28.593283,6,13,-2,0,3,1,-1,0,0
28.593308,-6,13,-2,6,6,1,-2,-3,0
28.602303,3,-23,0,-7,11,-2,0,0,0
28.602309,-5,-15,-4,3,-73,-5,-2,0,0
28.617080,2,36,-4,-1,23,1,-1,3,0
28.617097,4,2,4,6,7,-1,-2,-1,0
28.619611,-6,-13,-8,-12,-13,-1,-2,-3,0
28.619617,1,9,3,-2,-8,-4,1,-1,0
28.640646,0,2,-5,-5,-22,-2,1,-2,0
28.640654,1,-8,-1,-6,14,0,-2,-2,0
28.641030,-2,14,-3,9,10,-2,-3,-1,0
28.641046,1,-2,7,17,27,5,1,-1,0
28.653512,2,-1,2,-1,9,-1,1,-2,0
28.653540,8,29,5,12,-7,-4,-1,0,0
28.663309,-18,-43,-1,-7,-8,-2,0,-4,0
28.663316,8,19,-1,-6,15,0,0,-1,0
28.677218,-4,-6,-6,-2,-7,-2,-2,-3,0
28.677247,-3,-3,-1,-8,-8,-1,-2,0,0
28.679408,11,25,3,9,-4,-2,3,0,0
28.679429,-11,-8,-7,-2,-3,0,0,0,0
28.699715,0,-33,2,-1,-4,-4,0,-1,0
28.699747,-4,-10,-5,-8,5,2,-2,-3,0
28.702385,3,19,3,5,-18,-2,-4,-3,0
28.702393,-7,-1,-6,-2,14,-1,-2,-2,0
28.713548,0,11,-1,-10,-12,0,-3,-1,0
28.713578,-6,-10,0,25,12,1,0,-1,0
28.723514,2,7,0,2,0,-1,1,-1,0
28.723523,-4,3,0,-1,-17,-4,0,1,0
28.737025,-5,-5,-4,-3,26,3,0,0,0
28.737050,-1,17,-1,-10,-6,-2,0,-2,0
28.738535,-7,-54,-1,-4,-12,4,1,0,0
28.738548,-1,-4,0,2,25,-3,-2,1,0
28.759812,5,15,-2,6,10,-2,-2,-3,0
28.759833,-12,-13,-5,-7,-6,0,-1,-3,0
28.761216,-2,22,-2,-3,-3,-2,-1,0,0
28.761225,-3,-60,-13,-10,-5,1,0,-1,0
28.773757,-2,2,4,0,-5,-3,-2,0,0
28.773782,5,6,0,0,-2,-5,-2,-1,0
28.791642,3,-48,-2,-4,1,-2,-3,-3,0
28.791653,-3,3,3,-5,-5,1,-1,-1,0
28.797254,-2,14,2,4,-2,-1,0,1,0
28.797279,-5,-11,1,-5,-15,-3,-1,-3,0
28.798959,1,17,-1,-14,9,-3,0,-1,0
28.798967,6,44,5,-2,-5,-2,-1,-1,0
28.819843,-12,-43,-5,-3,-31,-1,0,-3,0
28.819867,-4,-62,-4,5,9,0,-1,1,0
28.821811,-1,16,-6,-7,10,-1,-2,-1,0
28.821817,-2,5,3,2,4,0,1,-2,0
28.833221,3,27,3,0,-28,-2,0,1,0
28.833258,-2,-1,-4,-6,6,-2,2,0,0
28.844570,3,20,4,2,-15,-3,-1,-2,0
28.844595,-4,-29,0,-6,-18,-3,-3,-4,0
28.858098,3,31,-7,4,37,4,0,-1,0
28.860146,0,-4,2,-3,-19,-1,-3,-1,0
28.860159,-1,37,-2,5,7,-2,-1,-2,0
28.860162,-4,-43,7,2,-8,-5,-2,-1,0
28.879715,-5,-11,-1,-2,-5,-4,-3,-4,0
28.879736,-1,16,-6,3,6,1,0,1,0
28.881162,2,6,0,-29,-22,-6,-2,-1,0
28.881180,-1,-1,-2,23,53,8,0,0,0
28.902055,1,-1,-7,-9,-7,3,1,-1,0
28.902073,3,0,-2,6,1,-2,-1,-2,0
28.903443,4,10,4,6,-1,-1,0,2,0
28.903494,-7,-16,-2,-12,-11,-2,-2,1,0
28.916400,-5,27,-1,-2,-14,-4,-2,-1,0
28.916418,8,6,2,0,4,-1,-1,0,0
28.923301,-2,-2,-2,2,3,2,-1,-2,0
28.923325,3,10,0,-1,-10,-2,1,-2,0
28.941319,2,9,7,5,8,1,-1,0,0
28.941330,1,4,-3,-12,-18,-4,0,-3,0
28.941335,-4,22,0,9,5,0,-2,2,0
28.941338,7,-14,-5,0,-3,2,0,0,0
28.962391,-2,-16,0,-10,10,1,-1,0,0
28.962409,-4,-9,0,-4,-8,0,0,0,0
28.963624,9,28,-4,-2,-15,-9,-3,-3,0
28.963649,0,16,0,-2,-33,0,0,-1,0
28.977144,0,-20,1,-1,15,-1,1,-1,0
28.977169,-2,2,3,-10,-1,-1,0,-1,0
28.979023,-2,5,-5,5,-28,-4,-2,0,0
28.979059,-8,-10,5,-5,25,-3,-3,-3,0
29.000297,7,16,-4,-2,-7,-4,-4,-3,0
29.003209,1,14,-4,0,2,2,-3,-1,0
29.003216,1,-20,0,-8,-8,1,0,1,0
29.003220,3,35,1,-2,-5,-4,-2,0,0
29.022019,-6,-84,-3,2,7,-2,-1,0,0
29.022031,-4,14,2,1,0,-2,-1,-3,0
29.023669,2,-5,0,3,1,3,-2,-1,0
29.023687,4,8,-5,-4,11,-1,-2,0,0
29.036364,8,38,7,-4,-5,-1,0,1,0
29.036381,-23,-47,-7,-1,-4,-2,-1,-3,0
29.043396,2,-21,0,12,20,1,2,0,0
29.043422,-6,2,-3,-2,-11,1,0,1,0
29.059593,4,6,1,-11,-20,-7,-2,-2,0
29.059612,-4,-9,-13,13,20,3,-1,0,0
29.061154,0,-5,11,8,17,0,-2,-1,0
29.061175,1,18,-9,0,3,-2,1,-2,0
29.082100,-1,23,2,-5,-3,-1,-3,0,0
29.082166,12,9,-2,-4,-5,-2,-1,0,0
29.083545,-8,-14,-5,-12,-8,-4,-2,-1,0
29.083557,3,12,0,1,-23,0,-3,-1,0
29.096432,-10,-23,-2,2,-3,1,-3,-1,0
29.096463,2,3,5,1,1,-1,0,1,0
29.103260,2,17,4,3,13,2,0,-1,0
29.103275,-2,-73,-14,-8,-13,-1,-1,1,0
29.119515,-2,22,0,0,-25,-5,-2,-1,0
29.119531,3,14,4,4,10,-2,-1,0,0
29.121029,-7,-30,-3,-1,2,2,0,-2,0
29.121069,-1,44,1,-3,10,-1,-1,-2,0
29.142997,0,-22,-8,3,2,0,1,-2,0
29.143009,0,6,-4,2,-7,-4,-1,1,0
29.143744,2,-7,2,0,8,0,1,1,0
29.143761,-1,27,6,7,10,0,1,-1,0
29.156515,-7,-57,-8,-5,2,0,-1,-3,0
29.159230,7,9,10,-3,-1,-2,-2,1,0
29.163338,-4,1,-7,-3,4,1,1,-1,0
29.163357,0,14,-2,3,3,-1,0,-4,0
29.179829,2,9,6,3,-4,-2,0,0,0
29.179847,-1,9,-1,-6,-3,-2,-2,-1,0
29.181169,-15,-54,-9,-5,-21,-4,-1,-3,0
29.181187,5,-24,5,-11,25,2,-1,1,0
29.201996,-3,32,1,15,5,2,0,0,0
29.202012,2,-7,0,-1,-3,0,-1,-1,0
29.203514,-4,-23,-3,2,15,2,1,0,0
29.203548,2,16,-4,-6,-33,-9,-1,-1,0
29.216421,-11,-23,-5,-2,13,5,-1,-3,0
29.216438,-1,11,-1,-6,1,1,0,-1,0
29.223183,4,10,0,-13,-49,-2,-2,-2,0
29.223199,-6,-15,-12,9,95,6,0,3,0
29.240386,11,24,12,15,5,-2,-1,1,0
29.240395,-8,-27,-6,-5,-17,-2,-1,-2,0
29.241142,-6,20,0,2,20,2,-1,-3,0
29.241155,-2,0,0,-7,-29,-1,-2,-1,0
29.262220,1,5,-1,-6,-5,-4,-2,-1,0
29.263597,-2,-8,-5,3,7,5,1,-1,0
29.263650,5,15,6,-2,6,-2,-4,0,0
29.263674,0,-2,-1,5,-12,-3,-3,-5,0
29.276608,1,7,-1,-2,8,-2,-1,0,0
29.276637,0,8,-5,-2,-24,-2,0,1,0
29.283240,11,-10,-4,-6,21,0,2,0,0
29.283264,-9,-47,6,-2,-18,-4,-2,-3,0
29.302026,-1,0,2,8,-12,-2,-2,1,0
29.302033,-1,20,0,19,10,0,-1,1,0
29.302036,2,18,6,9,8,0,1,-2,0
29.302040,0,5,-3,-16,-13,-1,1,1,0
29.322097,0,-10,0,-2,-1,-2,-2,-1,0
29.322113,-4,-16,2,-5,2,0,-1,-2,0
29.324891,3,4,-6,-1,6,0,0,-1,0
29.324910,-4,14,6,1,-25,-1,1,1,0
29.336373,-1,21,-2,-12,7,-1,-1,1,0
