timestamp,emg1,emg2,emg3,emg4,emg5,emg6,emg7,emg8,label
10.022595,-4,32,-3,-3,2,3,10,-25,0.687888223
10.022733,19,-3,4,1,13,0,-4,39,0.687888223
10.023618,50,16,-2,1,12,-7,16,24,0.687888223
10.023642,-47,-13,2,6,42,15,-13,-6,0.687888223
10.036495,66,19,-3,-15,-36,-21,-6,25,0.687888223
10.036510,-19,-10,-6,11,54,-49,-3,-24,0.687888223
10.043448,-12,-37,-3,-7,-2,21,-6,-37,0.687888223
10.043473,31,49,-3,0,-25,-8,20,45,0.687888223
10.059749,-17,-37,-2,0,31,-11,2,-28,0.687888223
10.059766,-10,3,1,-11,-27,-3,-9,-14,0.687888223
10.062125,-10,0,-1,8,41,2,-4,-33,0.687888223
10.062133,7,19,4,-7,-43,-22,-16,3,0.687888223
10.082398,-42,-25,-4,4,-26,18,6,2,0.687888223
10.082412,8,9,-3,-6,-30,-2,1,2,0.687888223
10.083888,-33,26,1,-3,31,-12,-2,3,0.687888223
10.083907,6,-18,-2,9,-10,10,-1,-26,0.687888223
10.098845,4,47,0,-11,-16,-30,-4,-21,0.687888223
10.098861,-4,-27,-5,1,16,16,11,43,0.687888223
10.103428,-11,6,-1,-10,-13,-3,-3,30,0.687888223
10.103448,23,-8,-3,-5,14,15,7,14,0.687888223
10.119785,7,13,7,2,64,-32,-12,-12,0.687888223
10.121061,-10,7,-1,12,19,3,1,17,0.687888223
10.121314,6,-11,-3,6,22,1,3,-11,0.687888223
10.121324,-52,34,2,-7,31,26,2,-18,0.687888223
10.144779,37,-24,-5,5,10,23,-8,-22,0.687888223
10.144788,-21,-4,1,2,-56,7,3,-8,0.687888223
10.144792,38,-15,-2,-7,3,-4,-8,-14,0.687888223
10.144794,8,2,0,9,4,-17,2,38,0.687888223
10.156003,-6,-4,-4,-12,-44,-10,-16,26,0.687888223
10.156027,-19,28,0,-10,-15,9,-5,-17,0.687888223
10.166546,14,15,3,8,43,-7,-1,8,0.687888223
10.166559,14,-33,-5,-18,-64,-4,-5,30,0.687888223
10.180149,-7,16,3,6,-4,-6,2,-41,0.687888223
10.180173,7,-5,2,6,-30,-26,9,21,0.687888223
10.182742,-11,-73,-3,3,7,10,-3,-17,0.687888223
10.182755,13,26,-4,0,-35,-21,-7,-36,0.687888223
10.202179,-15,-5,-1,-15,12,20,1,-16,0.687888223
10.202197,7,17,1,14,41,-35,-10,-2,0.687888223
10.203664,-14,14,0,-9,-67,36,5,-30,0.687888223
10.203732,19,14,0,7,33,-29,-5,18,0.687888223
10.216686,27,-52,-6,-2,-23,37,13,57,0.687888223
10.216705,-7,33,-4,-10,-18,-32,-4,-49,0.687888223
10.223451,-39,-19,-6,-3,7,15,-6,0,0.687888223
10.223468,11,-11,-3,-3,2,-1,0,-13,0.687888223
10.239786,9,8,-3,3,4,-25,0,-18,0.702900010
10.239803,-12,15,1,-24,13,53,4,1,0.702900010
10.241099,-19,-1,1,20,96,-61,4,70,0.702900010
10.241116,-27,34,-2,11,-42,-2,-1,-21,0.702900010
10.262327,-23,10,-3,-17,-11,8,13,-5,0.702900010
10.264046,3,-22,2,11,0,4,-7,5,0.702900010
10.264054,7,17,1,-8,12,-11,-3,-23,0.702900010
10.264057,-2,-19,4,3,22,6,-1,-31,0.702900010
10.276153,9,24,4,2,18,-5,-5,-1,0.702900010
10.276187,-28,-11,-3,-7,-27,-4,2,-20,0.702900010
10.285425,4,31,-4,-6,-20,13,8,-9,0.702900010
10.285438,17,-39,-4,-22,-47,34,8,-61,0.702900010
10.300674,-20,-67,-5,28,27,-12,-6,-20,0.702900010
10.300688,-14,9,0,0,8,10,-3,3,0.702900010
10.301280,44,-3,-1,2,-9,12,-11,7,0.702900010
10.301298,15,-12,-3,-18,-31,-10,-8,7,0.702900010
10.322658,6,27,4,11,56,-3,5,-27,0.702900010
10.322682,-23,-38,-1,-6,-8,-7,1,4,0.702900010
10.323706,7,3,-2,8,-35,42,7,-15,0.702900010
10.323730,24,4,-3,-4,-7,-7,3,81,0.702900010
10.335908,-19,10,-6,-11,3,-26,-11,-21,0.702900010
10.335925,17,8,4,4,-14,-24,2,38,0.702900010
10.346828,-27,11,0,-19,-37,-25,-9,-32,0.702900010
10.346838,58,6,-1,14,16,-7,6,-18,0.702900010
10.359823,-15,-47,-3,-3,-14,9,-2,0,0.702900010
10.359841,6,-18,-3,4,27,5,0,-18,0.702900010
10.361805,-20,2,0,-1,-58,-16,3,-4,0.702900010
10.361822,-23,-18,-1,-5,45,-1,1,-6,0.702900010
10.382623,7,8,0,0,-15,-2,-1,13,0.702900010
10.382647,13,17,-2,-9,7,6,1,-12,0.702900010
10.383912,1,-6,0,11,16,1,4,-14,0.702900010
10.385563,-59,-1,-3,-1,-58,-30,-7,-16,0.702900010
10.395871,5,35,1,-2,26,12,9,43,0.702900010
10.395914,9,-41,-3,5,51,13,-14,-61,0.702900010
10.405416,37,-5,-5,-10,4,-52,-10,17,0.702900010
10.405428,-10,-10,-1,10,41,23,7,-12,0.702900010
10.419955,-37,44,-2,-11,-23,-25,3,-4,0.702900010
10.419987,1,-8,2,2,-11,36,-1,8,0.702900010
10.422301,10,39,5,1,-5,-33,-4,-5,0.702900010
10.422312,0,-23,0,-2,8,6,-7,11,0.702900010
10.442255,29,0,2,9,-7,26,-8,-27,0.702900010
10.442299,24,48,1,-6,-38,-2,-3,-3,0.702900010
10.443603,-59,-32,2,3,28,14,-5,-35,0.702900010
10.443612,-9,47,-2,-3,-1,42,6,18,0.702900010
10.456704,22,-34,-3,-2,-39,-19,-8,4,0.702900010
10.456720,-8,13,-3,-6,-3,12,-1,-17,0.702900010
10.466181,-7,-5,-1,-7,-19,7,6,3,0.702900010
10.466193,3,9,0,-4,-14,-26,-9,3,0.702900010
10.480284,-14,-22,3,9,68,47,10,-8,0.702900010
10.480328,-11,-43,-3,9,29,-23,2,12,0.702900010
10.483136,46,2,-5,-2,-2,12,6,78,0.685003937
10.483148,-17,-9,2,-11,-17,11,2,-50,0.685003937
10.502656,47,3,-2,-4,-11,-10,-10,1,0.685003937
10.502670,-43,-29,-1,1,-45,-13,-1,-3,0.685003937
10.503779,-45,7,2,-7,16,17,-4,-26,0.685003937
10.503801,67,-12,-3,8,4,-16,-2,-9,0.685003937
10.515943,-11,10,0,4,-9,-13,-3,15,0.685003937
10.516004,6,19,-2,-27,-21,-8,-2,23,0.685003937
10.526176,-5,11,3,24,-26,-17,-2,-18,0.685003937
10.526195,-3,-46,-3,-1,43,-10,-15,-2,0.685003937
10.539742,-31,-6,0,-2,-35,-15,2,-13,0.685003937
10.539760,20,1,-2,1,25,13,7,66,0.685003937
10.541169,10,-19,-6,0,-22,-26,-7,18,0.685003937
10.541217,-17,17,3,-10,-73,17,-9,19,0.685003937
10.562368,31,21,-1,13,96,-17,7,5,0.685003937
10.562385,-9,2,-1,-12,-68,15,7,18,0.685003937
10.564487,18,-8,-2,-2,15,14,-7,0,0.685003937
10.564507,3,23,1,5,12,-4,14,63,0.685003937
10.576035,-40,-36,2,-2,18,2,-16,-50,0.685003937
10.576052,7,40,1,-9,-77,-20,-7,-19,0.685003937
10.586032,-9,-11,-3,5,57,14,6,-2,0.685003937
10.586043,-66,6,0,-1,19,-18,-7,-49,0.685003937
10.599747,30,6,-2,-9,-34,-4,7,1,0.685003937
10.599766,-5,-5,0,-4,30,23,-4,-13,0.685003937
10.601064,5,-10,-1,10,42,9,4,-3,0.685003937
10.601086,-4,2,-6,-5,4,-13,-11,-21,0.685003937
10.622659,-3,-27,1,-7,-57,-14,13,19,0.685003937
10.622691,-14,12,0,11,33,0,-3,-3,0.685003937
10.625264,21,-13,-8,-11,1,3,-17,6,0.685003937
10.625274,9,-13,1,0,7,-6,12,11,0.685003937
10.635946,-30,-4,2,11,-39,-4,-7,15,0.685003937
10.635963,20,1,-5,-2,39,9,8,-12,0.685003937
10.646133,-5,16,1,-21,-30,-8,-5,-38,0.685003937
10.646140,-5,-17,-2,11,29,1,-4,-27,0.685003937
10.659702,-7,-13,-5,-16,-108,24,-5,-8,0.685003937
10.659714,-8,-22,4,26,57,-19,-9,-5,0.685003937
10.661021,-2,37,3,-4,19,45,4,-1,0.685003937
10.661039,25,-51,-6,-7,3,-19,2,-18,0.685003937
10.682337,11,29,3,9,25,-8,-3,-3,0.685003937
10.682364,25,-7,-5,-4,-10,-11,-5,-39,0.685003937
10.684292,-6,7,5,-2,-123,-38,1,19,0.685003937
10.684307,-10,7,-1,11,112,41,1,5,0.685003937
10.705385,-45,-32,-5,-25,-39,1,-20,24,0.685003937
10.705398,31,-27,-5,5,10,-8,2,-12,0.685003937
10.706074,9,41,1,-12,-20,-2,6,22,0.685003937
10.706082,-7,-4,0,19,37,-28,-1,4,0.685003937
10.721140,23,17,0,-2,54,5,6,-3,0.685003937
10.721154,-20,8,4,-6,-17,7,11,-15,0.685003937
10.721160,-33,-26,-1,1,-40,5,-3,-15,0.685003937
10.721219,26,1,-5,-7,-32,-7,-4,10,0.685003937
10.742342,12,22,-1,5,34,13,6,-25,0.685373489
10.742375,-21,-28,-3,-13,-46,-32,-7,32,0.685373489
10.743764,8,-19,-3,18,31,35,5,-15,0.685373489
10.745406,-4,26,0,-13,-21,-5,1,61,0.685373489
10.765568,-12,26,-1,5,6,-8,0,-3,0.685373489
10.765618,40,14,3,3,-8,-10,-15,39,0.685373489
10.768094,4,7,-1,9,54,-1,12,-13,0.685373489
10.768105,-11,19,1,-12,37,30,-15,38,0.685373489
10.780028,-35,-14,-6,-11,-46,22,6,-18,0.685373489
10.780061,-28,-13,-3,8,21,-10,1,0,0.685373489
10.787492,-6,-6,0,-3,2,0,-4,16,0.685373489
10.787520,5,-7,3,7,-33,-21,2,-17,0.685373489
10.802226,18,4,-1,-14,22,17,4,26,0.685373489
10.802241,-16,11,-3,1,-12,11,-8,-62,0.685373489
10.803755,-10,-11,-1,-12,4,-4,-1,12,0.685373489
10.803776,10,4,-2,2,-22,24,3,-13,0.685373489
10.824900,19,-13,-1,-5,-37,-67,-5,2,0.685373489
10.824933,2,35,0,10,32,12,6,-27,0.685373489
10.826687,-33,-14,-5,-7,25,-38,-1,-8,0.685373489
10.826699,2,24,-1,-8,-66,-11,2,-6,0.685373489
10.838878,5,-11,1,0,7,-7,-8,-8,0.685373489
10.838898,-10,10,1,14,36,16,10,-33,0.685373489
10.847107,15,-10,1,4,-59,2,5,41,0.685373489
10.847118,14,-6,0,-11,-61,-31,-27,-11,0.685373489
10.863398,-3,31,0,6,98,41,9,6,0.685373489
10.863406,12,-32,-6,-16,-57,-20,-4,37,0.685373489
10.863515,-18,4,2,2,-14,6,16,-16,0.685373489
10.863523,-15,-46,-4,0,13,-16,-1,-30,0.685373489
10.884772,14,-11,-8,2,17,0,-26,-39,0.685373489
10.884791,9,-7,2,-7,-15,-2,-4,29,0.685373489
10.886189,-61,3,-2,-3,21,4,-7,-5,0.685373489
10.886245,6,2,0,8,28,11,10,-4,0.685373489
10.899092,-24,-22,3,2,-22,-13,6,5,0.685373489
10.899112,-24,1,2,-4,7,-2,0,11,0.685373489
10.906009,59,-25,-8,21,-30,11,-16,-22,0.685373489
10.906035,-55,11,-2,-26,4,-20,6,42,0.685373489
10.923881,-17,0,-1,-3,-48,0,-8,8,0.685373489
10.923890,40,-4,-4,9,17,0,-10,-47,0.685373489
10.923893,15,-3,1,-6,-3,-29,-8,16,0.685373489
10.923896,-2,-4,-4,10,31,43,9,-32,0.685373489
10.945107,5,28,7,21,-36,-11,-2,19,0.685373489
10.945138,-3,5,7,-8,49,23,-15,-2,0.685373489
10.946640,-8,3,-5,-7,36,-10,7,-29,0.685373489
10.946648,3,-7,-3,-2,-6,-7,5,-15,0.685373489
10.959187,29,33,-1,1,15,-2,3,4,0.685373489
10.959212,-15,8,-1,-6,-53,-14,0,-20,0.685373489
10.966093,-11,10,-1,-6,17,32,-1,4,0.685373489
10.966114,-10,-4,1,2,-2,-1,6,2,0.685373489
10.982459,13,-34,-1,-4,-2,-8,-7,8,0.685373489
10.985090,-39,55,17,15,-8,-29,15,-18,0.685373489
10.985104,54,-3,-17,-27,81,74,-19,-4,0.685373489
10.985107,21,-64,-11,-33,-90,-74,-2,-30,0.685373489
11.006338,14,11,-3,5,29,34,10,48,0.673764251
11.006363,-22,4,-4,5,60,-20,8,9,0.673764251
11.009013,-16,1,9,17,7,11,0,-6,0.673764251
11.009024,20,14,7,9,-9,23,-6,-30,0.673764251
11.019082,-16,-3,-6,-9,3,-7,-3,6,0.673764251
11.019142,17,-7,-2,3,-16,5,1,17,0.673764251
11.025965,-3,11,8,-12,-36,-14,-7,-6,0.673764251
11.025990,20,13,2,4,35,12,12,45,0.673764251
11.042305,50,-9,-3,5,5,-19,-3,-29,0.673764251
11.042322,-68,-27,-8,-11,9,29,-4,8,0.673764251
11.043966,-22,24,-3,1,-4,-37,-2,-34,0.673764251
11.043982,-4,-17,1,6,-12,-4,-5,-14,0.673764251
11.064980,-26,31,-1,-12,27,-2,3,2,0.673764251
11.064994,54,15,-1,-2,38,-16,3,45,0.673764251
11.066235,-5,0,2,5,-46,12,5,13,0.673764251
11.066254,2,24,2,1,47,3,-19,-5,0.673764251
11.080556,-4,-5,1,2,-65,40,8,-5,0.673764251
11.080566,17,-6,-5,-4,-42,-81,-7,-6,0.673764251
11.085847,-8,-13,1,1,-1,15,3,63,0.673764251
11.085869,-25,11,8,13,82,9,3,-3,0.673764251
11.102201,31,-23,-5,-7,4,14,-7,-35,0.673764251
11.102227,-67,9,-9,-22,-23,31,-6,-2,0.673764251
11.103989,18,-8,-4,18,-43,-10,-7,-26,0.673764251
11.104002,14,11,0,-14,-16,-10,0,47,0.673764251
11.127381,-30,8,4,8,54,4,0,15,0.673764251
11.127393,19,3,2,-8,-23,-5,-3,-3,0.673764251
11.127396,14,1,0,-3,0,-17,12,-13,0.673764251
11.127398,-22,5,-3,12,-32,16,-1,-30,0.673764251
11.139510,-8,1,5,-7,14,-7,4,-8,0.673764251
11.139542,-16,26,2,14,-26,-15,-8,32,0.673764251
11.146095,40,0,0,-24,-64,-8,-12,0,0.673764251
11.146116,-58,-24,-8,10,62,5,1,58,0.673764251
11.162520,52,-11,-1,-5,-11,16,9,50,0.673764251
11.162546,17,17,-5,-4,8,17,-5,-23,0.673764251
11.163660,-28,-4,2,0,-3,-2,6,15,0.673764251
11.163738,8,36,6,3,-20,-25,-2,-24,0.673764251
11.184886,-21,-13,-2,-6,9,-7,-6,9,0.673764251
11.184914,3,-11,3,17,6,40,-2,-1,0.673764251
11.186863,23,12,7,-1,21,-23,-1,-2,0.673764251
11.186880,10,3,-6,20,-3,8,3,-25,0.673764251
11.206526,-18,-2,-1,-29,-1,-33,-14,-47,0.673764251
11.206539,16,-27,-4,21,-20,23,1,-9,0.673764251
11.207189,-12,-15,-7,-2,49,-10,5,6,0.673764251
11.207225,25,0,2,-14,-31,-14,-9,-38,0.673764251
11.221545,-44,-34,-6,4,-14,-8,2,-4,0.673764251
11.221562,14,5,0,-8,-15,-9,8,70,0.673764251
11.222114,23,-16,-1,6,-36,-14,1,-35,0.673764251
11.222137,-19,-6,-7,-15,-5,-5,-4,-4,0.673764251
11.252309,49,3,1,12,38,57,10,29,0.686513679
11.252322,-5,-9,5,-4,-2,-4,-1,24,0.686513679
11.253248,18,45,-12,-24,27,13,3,1,0.686513679
11.253270,-8,-34,2,7,-29,-30,5,2,0.686513679
11.267159,-11,12,1,4,26,6,-8,6,0.686513679
11.267172,0,-11,-1,5,40,-36,1,-14,0.686513679
11.267254,1,16,2,1,-62,-5,-7,-52,0.686513679
11.267262,14,11,-1,-4,24,-1,-6,9,0.686513679
11.283945,-31,6,2,7,-19,36,18,-54,0.686513679
11.283965,49,-8,-5,-18,-15,-14,-16,19,0.686513679
11.283971,-33,-43,0,8,37,-12,-8,1,0.686513679
11.283976,43,11,-8,-11,21,19,-17,33,0.686513679
11.304223,-6,-3,-2,2,-73,-67,-4,19,0.686513679
11.304277,3,-1,-1,-1,10,23,11,-21,0.686513679
11.306700,-14,-11,1,3,-4,-3,-6,-15,0.686513679
11.306706,-8,11,4,11,16,2,3,11,0.686513679
11.328771,35,11,-3,-12,55,-25,-6,14,0.686513679
11.328778,-11,-6,-6,-20,-35,15,3,-30,0.686513679
11.328781,-13,-44,-7,8,63,8,-4,32,0.686513679
11.328784,-22,-7,4,6,-36,1,9,-21,0.686513679
11.344760,-1,-1,2,-3,-19,-20,-3,-32,0.686513679
11.344771,-13,-14,-2,8,1,-10,-1,13,0.686513679
11.344774,-3,11,1,6,-50,40,-10,14,0.686513679
11.344776,24,-7,2,-8,3,-46,-20,-9,0.686513679
11.364469,0,-7,-3,-6,-22,14,4,5,0.686513679
11.364486,-12,-16,-4,-9,-23,-16,-2,-7,0.686513679
11.366396,0,41,0,-7,9,-4,3,-3,0.686513679
11.366408,10,-6,-3,18,-3,-5,4,19,0.686513679
11.386795,-48,10,5,2,-52,6,-4,32,0.686513679
11.386819,-24,14,0,2,17,1,-8,-7,0.686513679
11.389484,31,-6,2,-2,-4,27,7,108,0.686513679
11.389494,35,2,0,-4,-22,11,12,-23,0.686513679
11.401638,-32,-9,-5,0,2,-14,-6,-33,0.686513679
11.401656,-13,12,2,10,24,41,8,3,0.686513679
11.403013,-26,-72,-2,-10,-6,-48,-5,-38,0.686513679
11.403025,21,10,-1,-8,25,60,-3,30,0.686513679
11.424289,25,10,3,9,-16,-56,-4,10,0.686513679
11.424485,-1,14,-2,-5,67,31,-5,-26,0.686513679
11.424710,-13,-7,-4,-18,-52,-17,3,-17,0.686513679
11.424721,-7,4,-2,6,-8,-2,6,4,0.686513679
11.446387,-31,3,-4,-10,24,20,-7,-26,0.686513679
11.446404,55,-31,-3,-27,-71,-32,2,-2,0.686513679
11.448984,-14,-6,4,38,26,-4,4,0,0.686513679
11.448998,-36,-28,-6,-3,40,-37,-10,1,0.686513679
11.462063,22,-5,-2,-23,-19,36,-6,-79,0.686513679
11.462095,-7,5,0,10,27,-4,9,18,0.686513679
11.464333,-15,5,3,-21,-11,4,4,-72,0.686513679
11.464340,-7,8,-1,10,15,33,-5,-14,0.686513679
11.484025,26,-21,-3,14,12,-29,-17,-36,0.686513679
11.484043,-22,16,-1,-3,3,-3,-5,23,0.686513679
11.484755,59,22,-7,-7,17,-8,2,-11,0.686513679
11.484773,-46,25,5,-4,-59,7,7,-12,0.686513679
11.506533,10,-10,-2,1,16,-7,2,9,0.687649369
11.506552,1,10,2,-5,-16,7,-2,-29,0.687649369
11.508097,-43,18,2,24,19,18,2,45,0.687649369
11.508110,22,5,1,-10,1,-1,-3,-26,0.687649369
11.521405,35,-2,-8,5,19,22,7,22,0.687649369
11.521463,-12,-24,1,-1,-17,-23,0,-10,0.687649369
11.522470,-30,65,0,-3,5,-3,-8,-5,0.687649369
11.522479,11,-6,-1,-11,8,38,10,11,0.687649369
11.544550,-24,7,1,3,20,4,-5,1,0.687649369
11.544559,15,-4,-1,1,-5,-2,-2,-11,0.687649369
11.544562,15,3,3,-8,-16,-1,-1,27,0.687649369
11.544564,9,7,-4,5,-6,-18,0,24,0.687649369
11.566590,-49,-12,4,-3,-33,-17,0,30,0.687649369
11.566610,3,11,-9,-2,13,20,-1,-31,0.687649369
11.568230,7,10,2,3,34,-8,1,30,0.687649369
11.568251,-45,-10,9,3,-16,-29,10,10,0.687649369
11.581694,-12,-15,-14,-21,58,43,-6,55,0.687649369
11.581727,8,0,-5,-11,-21,-35,1,10,0.687649369
11.583764,11,4,-7,2,25,-27,5,-26,0.687649369
11.583778,-11,1,-3,2,18,25,3,-14,0.687649369
11.606900,-16,5,8,4,-42,-16,2,-10,0.687649369
11.606915,2,-15,2,5,13,6,-13,-18,0.687649369
11.606921,-2,-2,-5,-5,2,25,1,3,0.687649369
11.606927,-3,13,1,-15,-16,-21,-2,-18,0.687649369
11.626824,-7,0,3,13,-44,-16,-3,7,0.687649369
11.626856,17,12,-1,5,-8,17,3,18,0.687649369
11.627817,-8,-27,3,5,8,-17,-3,-12,0.687649369
11.627822,22,-7,0,-6,-55,12,-5,2,0.687649369
11.641498,-13,6,1,-1,21,1,-1,-1,0.687649369
11.641517,4,-15,-3,3,2,-12,4,-14,0.687649369
11.642302,-2,-11,-4,-14,-18,9,-15,-42,0.687649369
11.644081,-26,0,7,28,13,-23,-5,16,0.687649369
11.664637,52,-22,-14,-9,16,19,13,9,0.687649369
11.664683,-18,-7,1,-4,-18,-12,-2,-4,0.687649369
11.667100,39,5,5,6,3,0,-6,-37,0.687649369
11.667113,-28,-8,-10,-27,46,11,-1,16,0.687649369
11.686509,-10,1,5,10,-5,-55,-7,-43,0.687649369
11.686528,9,15,0,11,19,3,-5,18,0.687649369
11.687293,-14,-2,0,-6,-26,42,3,9,0.687649369
11.687320,16,-16,-4,-5,-38,-65,-6,10,0.687649369
11.701586,10,30,2,10,50,78,13,21,0.687649369
11.701609,-6,-22,-6,-10,-24,-20,-8,-51,0.687649369
11.703033,-22,-5,0,2,-4,-11,1,16,0.687649369
11.703048,9,22,2,2,16,-10,-4,-9,0.687649369
11.724340,20,-13,-7,-8,-40,-14,-5,-15,0.687649369
11.724373,8,21,3,13,-1,13,-1,6,0.687649369
11.726048,18,-33,-5,15,18,-3,-3,-27,0.687649369
11.726053,-6,3,-9,-13,-25,39,7,3,0.687649369
11.746663,-10,-21,2,-3,-1,-24,-1,-3,0.687649369
11.746708,10,3,0,-1,-9,15,2,16,0.687649369
11.747293,14,16,1,-2,-30,-28,0,-1,0.687649369
11.747333,-8,2,0,-4,-6,15,-3,-4,0.687649369
11.761678,22,18,4,5,-7,-9,2,11,0.684332441
11.761711,-19,-16,-2,-26,-23,-7,4,11,0.684332441
11.764754,-50,-50,-7,36,79,14,4,71,0.684332441
11.764774,22,-16,-1,0,-11,-20,-6,-21,0.684332441
11.783959,-29,13,-1,-1,10,34,-1,3,0.684332441
11.783977,24,-15,-5,-2,-28,-80,14,59,0.684332441
11.785624,31,33,0,-39,-2,-17,4,1,0.684332441
11.785639,-57,-7,-5,0,79,-9,8,-8,0.684332441
11.807339,13,-40,0,-13,-30,-10,3,-43,0.684332441
11.807351,-26,44,-6,19,13,22,-6,33,0.684332441
11.807353,0,-11,-4,-18,-51,-6,-1,-1,0.684332441
11.807356,42,25,7,14,0,-4,0,-45,0.684332441
11.823321,-42,-51,-1,-1,0,-8,-1,55,0.684332441
11.823331,-13,56,3,1,14,5,0,-24,0.684332441
11.823334,3,-15,-2,0,-8,-6,0,19,0.684332441
11.823336,25,-5,-2,-2,9,16,-2,-6,0.684332441
11.844228,-29,40,4,8,44,-12,0,12,0.684332441
11.845241,-2,-16,0,-30,-112,58,-3,-16,0.684332441
11.845249,-75,-11,-5,38,102,-29,-11,-21,0.684332441
11.845255,26,-17,2,20,-3,44,10,13,0.684332441
11.866592,7,31,-5,-12,-9,-60,-16,13,0.684332441
11.866616,-4,-20,-1,4,52,37,-5,-1,0.684332441
11.867985,15,-3,4,-8,-84,8,6,-9,0.684332441
11.867998,-36,-34,-4,-14,-1,1,-6,-8,0.684332441
11.881746,4,18,-3,12,10,3,-8,-48,0.684332441
11.881772,25,-47,3,1,19,-34,-9,18,0.684332441
11.883637,-14,47,3,-2,3,47,0,4,0.684332441
11.883650,46,-17,-6,-7,-3,6,-13,10,0.684332441
11.904078,2,1,1,0,-23,-28,14,-29,0.684332441
11.904097,23,50,2,5,8,-13,13,55,0.684332441
11.905148,-29,-36,-13,-10,40,-8,-4,-49,0.684332441
11.905162,-2,17,2,-9,-27,-17,-2,-19,0.684332441
11.927059,6,0,-1,5,15,20,3,11,0.684332441
11.927101,-16,-48,7,11,-20,-10,-10,-21,0.684332441
11.929308,19,6,-1,-21,-19,18,-3,9,0.684332441
11.929315,-23,25,1,5,-10,24,18,-10,0.684332441
11.941407,1,-27,-7,-8,-18,-39,-28,-11,0.684332441
11.941432,-3,-3,1,6,32,13,4,-29,0.684332441
11.942850,27,-16,2,0,-32,-12,1,21,0.684332441
11.942855,7,15,-4,-9,-7,-20,-6,-4,0.684332441
11.964227,-13,5,5,5,5,41,3,21,0.684332441
11.964241,-76,-19,7,6,2,1,0,-2,0.684332441
11.964754,70,24,-13,13,100,-25,-20,20,0.684332441
11.964771,-14,-46,1,-16,-57,-8,1,25,0.684332441
11.986674,-21,20,2,20,51,-7,14,-5,0.684332441
11.986700,7,-22,0,-5,-57,21,0,28,0.684332441
11.988739,-1,4,8,5,-32,-36,-1,-6,0.684332441
11.988749,4,14,-3,-4,0,-2,-7,6,0.684332441
12.001787,22,5,0,-5,-3,8,2,7,0.684332441
12.001805,-26,-10,1,-3,33,-18,-1,-37,0.684332441
12.002961,23,-2,0,7,-52,10,16,6,0.684332441
12.002969,16,12,-5,-14,4,-5,0,49,0.684332441
12.024294,-19,-37,-4,-5,40,-25,-9,-22,0.674390682
12.024365,34,-9,-3,5,15,-33,-3,-56,0.674390682
12.026509,-19,27,-4,-9,-71,-3,9,-16,0.674390682
12.026525,-18,-9,-1,0,53,16,0,4,0.674390682
12.046815,11,12,0,8,-26,9,3,3,0.674390682
12.046844,-9,25,-5,7,41,9,0,-4,0.674390682
12.048899,-31,7,12,3,-4,-31,2,27,0.674390682
12.048920,49,-26,-10,-15,-39,41,-1,-22,0.674390682
12.061750,43,2,-9,-14,-24,0,0,-6,0.674390682
12.061776,-3,-13,-4,4,-3,1,-5,-58,0.674390682
12.063513,-48,-53,1,-4,2,4,2,2,0.674390682
12.063519,-17,-5,1,10,8,-10,-7,-16,0.674390682
12.084071,-9,10,4,1,-57,-3,2,18,0.674390682
12.084090,9,-15,-4,2,77,22,-8,8,0.674390682
12.085433,18,-19,-2,-13,-11,4,-7,2,0.674390682
12.085442,-24,13,2,7,-10,-13,1,2,0.674390682
12.106401,-6,-2,-2,-7,22,25,-3,-16,0.674390682
12.106440,9,6,6,-1,-77,-42,11,-18,0.674390682
12.107077,-25,56,1,-8,36,23,-9,4,0.674390682
12.107112,45,-64,-13,25,22,20,-20,-8,0.674390682
12.121581,-40,16,-5,-12,3,-3,9,-48,0.674390682
12.121598,15,35,-7,-12,-15,25,-6,2,0.674390682
12.123482,-43,8,3,-1,-2,-2,2,-5,0.674390682
12.123495,53,21,1,-5,-32,1,2,39,0.674390682
12.144257,-36,-33,-2,0,25,-6,-5,10,0.674390682
12.144290,-13,-4,0,1,-11,1,-1,10,0.674390682
12.146698,10,-2,-2,4,5,8,3,-23,0.674390682
12.146703,-28,9,2,-2,7,-28,-4,-23,0.674390682
12.174750,8,-2,3,12,-10,0,-4,-48,0.674390682
12.174768,6,25,2,1,-62,-29,8,94,0.674390682
12.176465,-15,-22,-3,26,66,56,-29,8,0.674390682
12.176482,-46,-30,-12,-9,-6,3,4,-32,0.674390682
12.182012,33,9,-5,-17,-78,-60,-1,19,0.674390682
12.182055,-15,-17,-3,-2,57,62,4,2,0.674390682
12.184362,28,26,4,-6,-17,-30,1,4,0.674390682
12.184377,-4,2,11,14,-12,-2,2,10,0.674390682
12.204034,-7,11,0,6,1,15,4,0,0.674390682
12.204052,-2,0,-3,-4,28,11,-10,-17,0.674390682
12.205531,12,5,-1,-7,-45,-52,3,10,0.674390682
12.205544,-15,-8,1,-4,41,21,0,2,0.674390682
12.227095,14,0,0,-3,18,-1,-1,26,0.674390682
12.227128,3,-5,-4,-3,-51,-32,-1,-7,0.674390682
12.229346,1,29,11,-29,31,25,16,-20,0.674390682
12.229357,59,-9,-15,33,-24,-10,-13,-46,0.674390682
12.241616,-12,-16,-5,-12,-9,12,-1,46,0.674390682
12.241658,-5,-26,0,-5,-12,-22,-7,-10,0.674390682
12.249159,21,13,-6,-12,-4,21,2,-15,0.674390682
12.249189,-44,16,8,0,-2,-12,2,0,0.674390682
12.264356,-6,-16,-2,4,16,12,-2,2,0.674390682
12.264424,13,9,-4,-2,-8,-1,0,-7,0.674390682
12.264745,-15,-18,-2,-10,-56,1,-2,-3,0.674390682
12.264767,7,41,15,-1,17,-24,-5,57,0.674390682
12.286439,75,5,-11,11,57,26,-13,19,0.687198696
12.286458,-70,-17,-9,-12,7,-25,9,-10,0.687198696
12.287804,4,-15,-2,1,-44,-10,2,21,0.687198696
12.287815,-2,25,3,-16,-39,4,6,-10,0.687198696
12.300805,-9,14,6,20,48,-17,6,-3,0.687198696
12.302298,14,-1,-1,-8,-53,11,-5,-8,0.687198696
12.309327,-9,-43,-3,0,35,3,3,68,0.687198696
12.309352,-35,5,-4,-4,3,-21,15,60,0.687198696
12.324108,-18,-29,-1,-6,-45,35,-2,46,0.687198696
12.324156,32,27,-2,4,62,11,-8,-5,0.687198696
12.324588,3,-12,-4,14,17,-9,5,-11,0.687198696
12.324604,-18,2,2,-5,24,4,-2,-13,0.687198696
12.346803,-23,6,8,9,-57,-15,3,29,0.687198696
12.346835,48,-12,-5,-1,22,70,1,3,0.687198696
12.349606,28,-63,-11,-4,11,11,-9,5,0.687198696
12.349620,-16,7,-1,-6,-10,-14,-7,-26,0.687198696
12.360808,-8,7,-3,-6,22,-6,-3,-63,0.687198696
12.360825,9,18,5,-9,-83,-17,-2,-29,0.687198696
12.368999,-6,6,-6,14,101,7,-3,-13,0.687198696
12.369018,4,-5,-4,-15,-33,45,8,6,0.687198696
12.384930,-63,-29,1,2,8,-19,-3,-7,0.687198696
12.384945,54,-23,-2,-3,11,-1,5,14,0.687198696
12.384948,31,41,-2,7,-17,12,3,-39,0.687198696
12.384950,-26,-36,2,2,17,-14,0,8,0.687198696
12.406753,-4,11,2,-14,-5,-2,5,-8,0.687198696
12.406779,-4,6,0,24,30,-10,3,65,0.687198696
12.408258,-17,10,-3,11,41,18,6,-11,0.687198696
12.408264,7,13,3,-1,-58,-20,-4,-19,0.687198696
12.421824,17,25,2,-3,14,-2,0,-19,0.687198696
12.421869,-12,-9,-2,-8,-44,-4,-14,22,0.687198696
12.429387,-50,-3,-3,-3,-6,22,-4,10,0.687198696
12.429419,-15,14,-4,-4,25,-6,-4,-48,0.687198696
12.452202,67,-15,-7,-6,-58,23,7,10,0.687198696
12.452231,-7,20,4,1,-41,-21,-2,-21,0.687198696
12.453055,11,10,6,0,43,-53,-10,-1,0.687198696
12.453073,-78,-2,-10,-7,-2,-4,-6,44,0.687198696
12.466523,-1,-42,-5,-8,5,11,-2,-22,0.687198696
12.466540,-8,-13,-3,8,19,-1,0,-9,0.687198696
12.467392,1,8,1,-9,-33,-10,-3,-1,0.687198696
12.467434,10,15,1,7,21,20,7,-31,0.687198696
12.481085,20,14,0,-4,24,-31,-9,9,0.687198696
12.481121,-39,13,-1,1,29,29,1,5,0.687198696
12.489277,-22,-41,1,-3,-30,-23,-1,-36,0.687198696
12.489301,35,-28,-4,-13,29,-5,-4,-3,0.687198696
12.504474,-1,42,1,9,-5,9,-3,5,0.687198696
12.504507,5,-6,4,-2,43,-38,15,-39,0.687198696
12.506616,5,11,-3,-3,-58,42,2,-8,0.687198696
12.506626,-7,10,-6,-9,-11,-13,-6,-6,0.687198696
12.526372,-37,-2,0,-4,8,-10,-1,-14,0.687198696
12.526414,-7,-16,2,-13,-52,18,11,-40,0.687198696
12.527047,50,43,5,19,-41,-39,-18,55,0.687198696
12.527082,-18,-19,-2,-22,53,5,-4,0,0.687198696
12.541320,18,-42,-5,1,-7,-4,10,11,0.684544254
12.541328,-36,10,-4,2,49,-8,-7,-8,0.684544254
12.549030,41,-3,0,-3,-37,8,0,-11,0.684544254
12.549052,-36,-3,5,-13,-67,3,-5,-43,0.684544254
12.563997,13,-4,0,8,40,-1,1,5,0.684544254
12.564014,-6,10,-3,16,12,3,0,6,0.684544254
12.565945,-41,-50,-7,-9,17,26,-1,-53,0.684544254
12.565958,27,6,3,13,37,0,3,-19,0.684544254
12.586777,-14,15,6,-1,-45,-49,7,-12,0.684544254
12.588952,2,6,-5,-15,2,-10,-3,20,0.684544254
12.588964,-19,-3,0,-15,22,6,5,-9,0.684544254
12.588966,37,15,-5,11,-49,-33,-3,4,0.684544254
12.609958,-19,14,-1,-15,-3,52,4,3,0.684544254
12.609983,29,-18,2,16,-29,-1,0,13,0.684544254
12.611886,-33,-44,-5,-8,49,3,6,-3,0.684544254
12.611892,6,-7,2,16,18,7,-9,36,0.684544254
12.624244,-6,17,1,-24,-37,-9,-7,8,0.684544254
12.624304,17,-12,-3,-2,10,9,1,29,0.684544254
12.624740,-6,16,-1,1,1,-1,5,3,0.684544254
12.624863,25,-9,-4,4,-8,7,2,9,0.684544254
12.647285,-16,-9,-3,3,20,11,-2,-27,0.684544254
12.647308,-21,9,4,-2,1,-11,4,15,0.684544254
12.649398,-19,7,0,12,-21,-4,-1,-3,0.684544254
12.649410,0,0,-1,-31,-1,37,27,46,0.684544254
12.669719,8,13,-6,22,16,-74,-10,-3,0.684544254
12.669737,-1,-42,-4,-12,26,26,-2,4,0.684544254
12.670433,14,31,0,0,-29,-8,-3,26,0.684544254
12.670444,29,8,1,9,1,-23,3,-7,0.684544254
12.684089,-38,5,-2,-11,-38,52,-3,20,0.684544254
12.684108,-18,-11,-3,3,2,-21,-7,-33,0.684544254
12.684802,7,53,0,4,19,-16,-5,2,0.684544254
12.684812,8,-12,0,-1,12,8,-3,-17,0.684544254
12.706714,9,10,7,4,-9,11,2,18,0.684544254
12.707916,-9,17,0,16,-49,-23,-10,-22,0.684544254
12.707927,-2,19,1,-18,21,12,-15,-19,0.684544254
12.707934,-38,-2,-7,-17,-35,-23,-8,-31,0.684544254
12.729731,-30,-12,-6,2,-18,-18,3,-39,0.684544254
12.729771,21,2,-5,-13,66,32,-1,12,0.684544254
12.730344,-2,-7,2,-2,-12,-17,-1,-11,0.684544254
12.730378,-11,-1,0,16,9,-2,1,-18,0.684544254
12.743905,8,-13,5,3,13,38,3,17,0.684544254
12.743913,7,3,3,-2,27,-39,-2,-45,0.684544254
12.744727,31,-4,-5,-8,-29,20,0,24,0.684544254
12.744743,13,18,-3,-15,-5,-30,-10,-5,0.684544254
12.766487,-48,-2,4,36,12,16,4,21,0.684544254
12.766505,21,-1,-9,-13,20,17,-4,34,0.684544254
12.768139,13,-45,-3,1,22,6,17,14,0.684544254
12.768151,25,8,2,3,-71,11,-2,13,0.684544254
12.790480,6,56,1,-14,-19,-41,-7,4,0.703972604
12.790489,-25,-64,-1,3,26,6,9,2,0.703972604
12.790491,-9,5,5,0,-7,-17,-1,1,0.703972604
12.790494,-18,3,-8,-3,0,-1,-3,-26,0.703972604
12.804300,40,-10,0,7,4,10,-12,54,0.703972604
12.804329,30,9,-3,-4,-20,13,-8,-27,0.703972604
12.806921,-15,6,-3,-1,3,-16,-6,17,0.703972604
12.806933,-40,27,11,0,-29,-21,-1,-12,0.703972604
12.827025,27,-19,-9,-7,42,-14,-4,-12,0.703972604
12.827053,2,19,1,-4,-12,-8,9,-12,0.703972604
12.829287,-9,-19,0,-7,-22,36,0,-4,0.703972604
12.829294,-23,8,-3,2,-1,-34,-3,-6,0.703972604
12.849777,1,-5,-3,-23,11,22,-2,-5,0.703972604
12.849796,-3,17,4,6,-6,-1,5,47,0.703972604
12.851719,6,5,-1,-1,30,-14,2,-3,0.703972604
12.851735,7,-20,4,13,-35,10,-4,10,0.703972604
12.865027,59,9,0,-23,-41,13,0,-32,0.703972604
12.865061,37,-24,-4,18,24,-13,-7,-15,0.703972604
12.867392,5,-11,3,14,2,15,11,5,0.703972604
12.867411,19,18,0,-9,5,-8,0,20,0.703972604
12.886441,-29,-28,-3,5,20,-38,-17,-32,0.703972604
12.886463,33,21,3,-12,3,26,7,61,0.703972604
12.887215,-21,4,-7,-5,-21,-26,-1,-27,0.703972604
12.887238,33,23,3,13,84,58,-4,40,0.703972604
12.909895,41,-19,-5,-9,-48,-68,-7,16,0.703972604
12.911307,-39,19,-1,-19,-2,4,-2,-29,0.703972604
12.911312,-22,-7,4,6,-21,-56,-6,-33,0.703972604
12.911315,38,-32,0,12,21,9,6,-28,0.703972604
12.924470,-38,-6,0,12,52,14,9,64,0.703972604
12.924494,-58,14,4,-5,-35,1,-7,-6,0.703972604
12.926873,53,9,-2,-17,-84,-1,-11,37,0.703972604
12.926880,25,-26,-6,0,-14,-44,-7,-15,0.703972604
12.947235,-23,5,-2,0,-3,23,16,-10,0.703972604
12.947244,3,-43,-8,-19,-17,-2,-7,-11,0.703972604
12.947247,-1,-4,1,10,67,-19,5,-3,0.703972604
12.947250,-36,41,0,3,-3,24,-1,-49,0.703972604
12.969776,8,1,2,17,19,18,-13,39,0.703972604
12.969803,5,34,1,-4,15,18,2,1,0.703972604
12.971550,-25,-43,-3,1,10,-53,-5,-27,0.703972604
12.971652,1,35,-1,-4,3,15,7,74,0.703972604
12.983968,-5,-8,-1,-7,9,23,4,-53,0.703972604
12.985465,-11,53,4,14,-14,-33,-9,-9,0.703972604
12.985482,-5,-46,-6,-6,-15,26,-4,11,0.703972604
12.985485,-35,-12,-4,-1,23,-14,-19,-9,0.703972604
13.007816,25,0,0,-6,-72,55,-11,24,0.703972604
13.007838,10,18,0,1,0,-34,10,7,0.703972604
13.007842,-12,2,0,1,9,-12,-8,-25,0.703972604
13.007846,-25,-23,-3,-18,-31,23,3,-2,0.703972604
13.029858,-17,17,3,20,34,-23,7,-25,0.703972604
13.029940,0,-17,-7,-36,-77,3,-8,1,0.703972604
13.031147,46,39,2,21,48,31,3,11,0.703972604
13.031156,16,-40,-2,-9,-8,-25,0,3,0.703972604
13.044390,7,-5,0,2,-13,-8,4,-2,0.709948479
13.044430,-35,-14,-1,8,28,30,-3,0,0.709948479
13.045730,-18,11,2,-7,-40,10,7,-41,0.709948479
13.045735,17,-33,-7,5,63,1,2,76,0.709948479
13.066486,30,-2,-2,-14,-34,-4,4,-23,0.709948479
13.066507,-18,-22,-1,6,8,-9,-2,-3,0.709948479
13.068566,10,6,-9,-19,-21,11,0,3,0.709948479
13.068581,4,6,5,35,59,24,3,53,0.709948479
13.090271,-10,11,2,-3,2,0,5,-8,0.709948479
13.090304,-4,4,1,5,7,-10,-5,-20,0.709948479
13.092253,-9,4,0,2,16,15,5,2,0.709948479
13.092260,8,28,8,9,-61,-34,5,39,0.709948479
13.103935,-22,-50,-9,-22,50,23,-2,-10,0.709948479
13.103961,-17,17,-7,3,71,4,-6,-6,0.709948479
13.104877,14,-14,-9,2,24,-1,-12,5,0.709948479
13.104902,-20,-19,-1,-33,-60,0,-1,-13,0.709948479
13.126783,7,15,3,26,24,-5,4,-11,0.709948479
13.126816,1,-1,7,-5,-34,-3,-1,8,0.709948479
13.127922,12,-9,-10,0,19,17,-7,-10,0.709948479
13.127926,15,12,-3,-5,11,7,-1,-36,0.709948479
13.149776,-7,15,1,-6,-6,-5,1,3,0.709948479
13.149804,-5,12,-8,-1,-47,-16,4,27,0.709948479
13.150465,1,19,7,0,-46,-24,-4,45,0.709948479
13.150525,-44,-9,6,6,-3,5,6,-17,0.709948479
13.163856,30,-17,-7,-11,-26,-14,0,-23,0.709948479
13.163897,-10,-4,-5,20,93,27,5,-2,0.709948479
13.164826,-6,-6,-2,-22,-3,11,8,-1,0.709948479
13.164847,13,6,2,4,6,11,-2,-15,0.709948479
13.186734,-7,12,3,6,8,-22,6,101,0.709948479
13.186751,14,-29,1,-19,-46,-2,-8,-21,0.709948479
13.189134,-29,30,-2,21,33,1,6,0,0.709948479
13.189144,3,-23,-8,3,39,10,2,-19,0.709948479
13.211238,-45,8,-1,-6,-7,4,0,18,0.709948479
13.211248,5,-11,1,0,-24,-20,-4,-12,0.709948479
13.211251,-13,-5,3,-2,-15,-8,3,4,0.709948479
13.211254,36,11,-2,-2,-25,-14,-9,20,0.709948479
13.223551,-17,-3,-1,4,48,-6,-6,-24,0.709948479
13.223577,-11,25,10,1,-95,-28,0,-19,0.709948479
13.232480,-8,-34,-6,28,72,41,22,24,0.709948479
13.232522,-2,-54,-11,-13,5,38,-7,-27,0.709948479
13.246758,11,7,-2,-9,1,0,-1,-37,0.709948479
13.246787,13,9,0,1,-6,5,6,29,0.709948479
13.248344,-2,10,7,-5,-35,-8,-10,-13,0.709948479
13.248365,9,7,2,0,14,-14,4,-3,0.709948479
13.269772,-1,-4,-3,-3,-32,4,-3,-21,0.709948479
13.269792,-6,-6,-1,2,2,3,-1,-9,0.709948479
13.271590,21,20,6,-7,21,10,-2,9,0.709948479
13.271603,-36,-3,-4,3,74,-30,2,-7,0.709948479
13.283519,-29,-24,-4,-35,-17,2,1,76,0.709948479
13.283545,-10,19,0,25,44,30,5,66,0.709948479
13.292062,106,-15,-9,-7,-26,-3,-1,-5,0.709948479
13.292094,-20,11,3,-12,-39,-30,1,-17,0.709948479
13.306686,13,9,5,7,-6,26,-3,18,0.693345823
13.306704,-9,25,2,-3,18,7,5,-18,0.693345823
13.307255,-24,-16,-4,-7,6,-52,0,-24,0.693345823
13.307293,13,15,4,11,17,16,-2,5,0.693345823
13.329741,33,12,-5,14,-11,-14,-5,-33,0.693345823
13.329759,17,-39,-2,-2,7,4,-1,-15,0.693345823
13.331643,-55,3,4,-11,-59,-5,3,-22,0.693345823
13.331664,-11,-17,-8,-4,-25,-4,-5,-43,0.693345823
13.343523,0,-2,-4,1,17,-4,-5,-9,0.693345823
13.343542,-1,0,-1,6,-24,-11,-4,-16,0.693345823
13.351523,-7,4,1,-12,19,22,-8,3,0.693345823
13.351540,-23,-12,0,0,5,2,5,27,0.693345823
13.367635,-9,31,3,4,-55,-6,-8,28,0.693345823
13.367649,5,-40,-5,-6,-36,-7,4,-3,0.693345823
13.367653,-7,7,4,5,18,18,-9,-7,0.693345823
13.367656,26,8,-10,-25,-60,32,2,25,0.693345823
13.389941,-14,-9,-2,18,42,-7,-7,-18,0.693345823
13.389960,13,-1,-3,0,39,-1,1,-13,0.693345823
13.391186,-7,-5,-1,1,-14,2,0,28,0.693345823
13.391195,34,9,4,3,-26,-7,-2,-9,0.693345823
13.403277,-38,18,1,-2,8,-9,-2,-2,0.693345823
13.403296,1,-25,-2,3,35,-10,-2,-11,0.693345823
13.411916,-8,40,0,3,-20,7,6,-10,0.693345823
13.411948,-22,25,5,0,0,-19,-1,-54,0.693345823
13.426632,22,-28,-2,3,-5,-2,10,66,0.693345823
13.426668,51,-25,-6,-7,107,4,-11,5,0.693345823
13.428593,-25,30,-8,-17,-4,-38,-2,-20,0.693345823
13.428605,47,-23,-3,0,-57,6,-4,-28,0.693345823
13.449984,-24,-11,1,-8,-5,-5,0,-29,0.693345823
13.450002,-38,8,7,7,-34,5,-3,4,0.693345823
13.451988,9,-17,-3,-5,-23,1,-6,18,0.693345823
13.451999,-21,3,0,1,42,-33,-5,-9,0.693345823
13.463446,8,-34,0,6,-10,-13,-1,-32,0.693345823
13.463472,-10,30,1,-13,-48,19,4,10,0.693345823
13.471640,15,-21,-8,8,25,4,-7,14,0.693345823
13.471774,10,6,2,-1,-10,-2,9,-37,0.693345823
13.486598,-34,-8,-4,21,64,-47,-1,0,0.693345823
13.488604,50,23,0,-16,-65,3,-1,-19,0.693345823
13.488612,-34,-49,-7,-6,15,9,3,-11,0.693345823
13.488615,43,23,-6,1,11,10,-4,32,0.693345823
13.509739,19,-42,-1,-17,-20,11,-6,-12,0.693345823
13.509782,-7,12,0,18,-60,-8,-2,-28,0.693345823
13.510468,-6,9,-3,-3,25,6,5,-30,0.693345823
13.510504,-62,-48,-3,-4,35,26,-4,28,0.693345823
13.532451,33,16,-6,-5,-17,5,-4,-58,0.693345823
13.532609,-32,-6,-5,1,12,25,-10,3,0.693345823
13.534416,29,-17,5,7,-25,-40,-5,8,0.693345823
13.534430,-41,-1,1,-1,23,11,-5,-15,0.693345823
13.546534,-16,32,-3,-7,-29,-22,-3,-10,0.693345823
13.546551,47,-19,-6,-16,35,13,-9,19,0.693345823
13.547867,8,0,-3,-7,7,36,10,1,0.693345823
13.547878,18,6,3,0,12,-15,4,67,0.693345823
13.571174,-25,54,3,5,-7,16,9,-22,0.697235101
13.571192,-58,-16,0,-2,26,-73,0,7,0.697235101
13.571198,7,17,4,4,-11,12,-3,15,0.697235101
13.571204,2,-6,3,9,-46,-13,-16,3,0.697235101
13.592448,22,-9,-1,-13,-34,16,3,8,0.697235101
13.592483,-5,-27,-4,2,-5,-37,-2,-4,0.697235101
13.594294,-10,-7,-2,1,53,-8,-3,-23,0.697235101
13.594309,-16,0,6,9,1,-3,-6,-77,0.697235101
13.606971,-36,0,4,-2,-1,19,5,22,0.697235101
13.606997,26,38,0,-9,4,-17,-1,73,0.697235101
13.608873,58,-7,-1,10,63,23,-4,3,0.697235101
13.608878,-30,-11,-5,-18,-50,-82,5,-9,0.697235101
13.630167,5,-5,-2,-2,22,48,-2,-28,0.697235101
13.630199,3,5,2,1,22,-8,0,-17,0.697235101
13.632811,9,-6,2,-5,-13,13,3,13,0.697235101
13.632825,29,24,-6,6,40,38,-5,-12,0.697235101
13.652260,-13,-15,-2,-11,-91,-54,1,-6,0.697235101
13.652277,33,-3,-2,7,23,4,7,-8,0.697235101
13.653052,-26,20,2,7,-51,-15,-10,3,0.697235101
13.653066,14,4,0,3,-38,10,0,45,0.697235101
13.666398,3,12,-1,1,49,11,3,13,0.697235101
13.666413,-18,-4,1,-9,15,51,-4,26,0.697235101
13.667141,-57,16,4,7,9,-18,-1,4,0.697235101
13.667158,77,22,-9,0,5,-2,-2,55,0.697235101
13.689719,42,-7,0,-12,-18,-10,-9,-18,0.697235101
13.689737,-52,-29,-4,-1,-27,13,1,40,0.697235101
13.690658,-8,8,0,-7,-2,-16,4,-24,0.697235101
13.690788,-34,24,0,2,16,26,1,-5,0.697235101
13.712068,21,4,1,3,5,6,-13,-11,0.697235101
13.712114,-31,10,-1,4,37,0,9,-78,0.697235101
13.712872,35,5,1,-36,-63,7,-6,-3,0.697235101
13.712924,-14,-10,-1,44,48,-21,-2,-54,0.697235101
13.727775,-11,5,-1,-7,-5,23,-5,10,0.697235101
13.727789,-12,-8,-1,11,-46,-43,-7,-31,0.697235101
13.727795,-15,10,10,8,-9,-19,-9,24,0.697235101
13.727801,30,-5,-3,-14,30,28,20,-2,0.697235101
13.749990,-27,-12,-8,-5,-17,-12,0,17,0.697235101
13.752163,18,11,4,-6,-44,6,-5,6,0.697235101
13.752174,-3,-18,-2,12,-18,-5,-5,-26,0.697235101
13.752177,-12,16,0,-8,-34,-13,-11,-23,0.697235101
13.774243,-29,-47,0,15,45,-14,5,15,0.697235101
13.774254,-5,11,-3,-13,6,27,7,-5,0.697235101
13.774257,3,-13,-7,-12,-46,9,1,4,0.697235101
13.774260,-4,-7,4,8,111,27,0,11,0.697235101
13.786614,29,15,-2,-16,-38,-59,1,45,0.697235101
13.788947,-16,-11,2,8,-32,0,8,-69,0.697235101
13.788963,0,8,-1,-15,38,-13,-6,-7,0.697235101
13.788969,-53,-8,2,-9,-23,21,1,-12,0.697235101
13.809791,41,58,-3,2,2,1,-15,-6,0.714639946
13.809815,-2,0,0,16,38,-13,-15,19,0.714639946
13.811276,4,5,1,10,-20,2,8,29,0.714639946
13.811281,-48,-31,0,-7,-40,-7,5,24,0.714639946
13.832238,25,-25,-8,-1,21,9,-6,-29,0.714639946
13.832262,24,13,0,-14,-12,-6,-5,3,0.714639946
13.834298,-34,-12,-7,10,8,12,2,53,0.714639946
13.834311,2,4,3,-4,-23,-31,-15,12,0.714639946
13.847015,-34,4,9,13,46,10,7,20,0.714639946
13.847047,46,-14,-9,-15,14,18,-1,35,0.714639946
13.849096,9,-39,-5,16,7,22,7,-54,0.714639946
13.849111,-15,-20,-4,-9,-53,-7,0,-12,0.714639946
13.869938,25,9,2,-3,54,-19,-4,26,0.714639946
13.870003,-3,10,0,10,9,-21,0,-3,0.714639946
13.870550,12,9,0,-14,0,9,-1,-15,0.714639946
13.872584,36,21,0,-13,-22,-6,-1,-5,0.714639946
13.892796,-36,-20,-3,17,-25,6,-3,23,0.714639946
13.892839,-16,-31,-3,2,13,14,-4,24,0.714639946
13.895130,3,9,-2,-9,-3,-14,0,4,0.714639946
13.895136,21,5,4,-2,-61,-19,5,5,0.714639946
13.906640,-36,4,-2,-14,-11,18,1,13,0.714639946
13.906665,-29,1,-7,-3,63,-4,-11,9,0.714639946
13.909516,21,-7,-2,2,-29,-8,1,21,0.714639946
13.909522,0,-13,-4,-5,1,-9,0,15,0.714639946
13.929808,1,2,-1,-14,-25,39,-6,-57,0.714639946
13.929854,27,2,2,-10,-70,-60,-2,-16,0.714639946
13.930436,-16,10,3,15,57,21,10,58,0.714639946
13.930451,10,41,-6,-2,8,15,-3,-10,0.714639946
13.952175,-20,0,3,14,7,-27,2,-46,0.714639946
13.952194,-4,-26,-2,1,-1,5,4,3,0.714639946
13.954174,4,5,2,-6,-37,3,-1,-12,0.714639946
13.954193,4,3,0,9,29,-24,1,-6,0.714639946
13.966746,-18,20,2,-5,-41,4,4,19,0.714639946
13.966764,-14,-25,-5,12,82,-10,-6,-17,0.714639946
13.968096,7,7,0,5,29,58,-7,-14,0.714639946
13.968202,12,19,1,-3,13,14,4,75,0.714639946
13.990446,12,-18,2,-4,-19,-3,-10,-16,0.714639946
13.990457,6,9,5,-7,-21,0,0,12,0.714639946
13.990460,-53,-20,-10,-2,-44,-29,-7,-34,0.714639946
13.990462,5,-3,-6,-20,73,5,-1,-8,0.714639946
14.012267,3,-7,7,15,9,8,6,13,0.714639946
14.012282,5,8,-2,-3,23,28,6,10,0.714639946
14.015237,-2,25,-1,-28,-91,-47,-7,11,0.714639946
14.015251,-50,-49,-1,37,71,52,1,36,0.714639946
14.027005,28,-6,-2,-5,-32,-3,4,66,0.714639946
14.027057,-3,-3,1,2,13,40,3,-35,0.714639946
14.028691,10,6,-1,-9,32,22,-11,-8,0.714639946
14.028697,-20,-44,-3,-11,6,-28,9,-34,0.714639946
14.050236,10,-2,-3,0,-11,16,-7,-28,0.714639946
14.050249,-6,2,1,-1,-16,4,0,18,0.714639946
14.050252,11,-6,-2,14,-5,-12,-5,3,0.714639946
14.050304,-5,30,0,7,16,-1,-9,-59,0.714639946
14.072115,1,-20,-7,-13,61,6,-1,-24,0.722531159
14.072172,-6,20,0,-8,-61,-14,11,-16,0.722531159
14.072909,2,28,0,-3,7,-18,-1,-3,0.722531159
14.072929,-21,-16,-2,4,-8,-13,-7,-3,0.722531159
14.086621,21,9,-1,-6,-26,-7,1,-11,0.722531159
14.086640,-22,17,5,-15,-63,-2,-8,28,0.722531159
14.087298,16,1,-1,28,40,3,17,-15,0.722531159
14.087361,2,-4,-1,-6,-15,32,-10,-4,0.722531159
14.111113,8,-11,-2,2,-7,2,18,-13,0.722531159
14.111145,-7,22,3,-8,-1,3,1,-16,0.722531159
14.113332,8,-7,-1,-17,-1,-8,4,2,0.722531159
14.113348,11,0,-2,-3,-40,3,-4,-1,0.722531159
14.132459,14,31,0,7,77,-7,-12,-6,0.722531159
14.132477,5,-38,-9,-12,-68,29,13,4,0.722531159
14.133085,0,5,5,10,15,-10,3,-27,0.722531159
14.133098,-12,-34,-9,-23,-35,-17,-18,-29,0.722531159
14.145737,2,7,0,5,37,-6,1,-3,0.722531159
14.145753,-23,22,0,11,57,-13,-5,-7,0.722531159
14.153919,30,-11,-4,-2,-16,-7,-7,-7,0.722531159
14.153937,17,4,8,-16,-32,-8,5,-19,0.722531159
14.169668,-15,9,-5,11,-1,-42,-8,43,0.722531159
14.169686,-42,-12,-6,25,50,4,-11,-7,0.722531159
14.171894,21,-18,0,-8,-17,13,6,-10,0.722531159
14.171903,5,2,-12,-10,27,-46,-13,-17,0.722531159
14.192080,7,-22,-1,-12,-17,11,28,-13,0.722531159
14.192093,-18,7,-2,-2,-76,-2,-5,3,0.722531159
14.193603,2,9,2,-6,3,-19,-3,11,0.722531159
14.193638,-9,19,1,16,-5,18,14,4,0.722531159
14.207800,2,11,7,-3,2,3,-14,-22,0.722531159
14.207810,27,-8,2,11,44,-12,2,14,0.722531159
14.216160,-18,-13,-4,10,78,35,2,11,0.722531159
14.216171,28,-25,0,-8,-76,-8,-4,-6,0.722531159
14.229743,6,3,-7,-8,-47,13,-3,-32,0.722531159
14.229760,11,-27,-12,1,80,-3,7,53,0.722531159
14.232506,-31,24,-1,-2,-44,-21,-14,0,0.722531159
14.232519,-12,2,3,19,51,2,7,16,0.722531159
14.252893,15,9,2,-22,-76,-22,3,3,0.722531159
14.252907,8,10,1,3,-21,11,-3,-21,0.722531159
14.253738,-1,-13,0,-6,20,-4,-1,12,0.722531159
14.253759,5,19,-1,5,10,-4,-1,14,0.722531159
14.267855,-18,-8,0,4,-11,13,-2,-13,0.722531159
14.267869,17,7,2,-3,9,-13,-3,-11,0.722531159
14.276671,-13,-14,-4,0,22,-4,-7,-10,0.722531159
14.276678,-4,6,0,-14,-56,12,-5,-52,0.722531159
14.289752,-7,-30,1,8,46,10,-18,6,0.722531159
14.289779,12,22,-3,25,-7,9,6,31,0.722531159
14.291146,6,11,10,-8,26,-6,3,49,0.722531159
14.291175,13,2,-13,-5,-15,26,9,-8,0.722531159
14.312257,-27,-58,-6,13,-17,10,1,9,0.722531159
14.312274,25,10,1,-12,3,-13,-2,-22,0.722531159
14.314357,-16,6,1,5,-6,-24,-3,-5,0.722531159
14.314370,-9,16,6,2,22,48,7,4,0.722531159
14.326157,9,26,3,0,-42,-7,6,37,0.703932044
14.326181,21,-6,-2,-32,-33,19,-21,-41,0.703932044
14.335768,4,-9,-6,35,-25,-8,-1,11,0.703932044
14.335780,25,-42,0,-19,17,-14,-2,13,0.703932044
14.349825,1,23,-2,12,7,-8,4,-7,0.703932044
14.349842,-31,-44,-1,-4,-1,-13,0,-12,0.703932044
14.351137,22,16,-1,-14,-28,16,-1,10,0.703932044
14.351189,-32,-4,1,5,33,-22,-1,21,0.703932044
14.372186,5,15,0,-2,-8,21,0,-18,0.703932044
14.372203,-3,-7,-2,1,24,-45,-5,5,0.703932044
14.373605,13,23,-1,3,22,65,-9,51,0.703932044
14.373683,-21,29,-5,4,-19,-56,-6,14,0.703932044
14.385768,14,0,1,-18,19,25,-3,-8,0.703932044
14.385794,8,-22,-4,-4,-10,-14,10,47,0.703932044
14.395871,-10,14,-5,-4,-2,-8,-2,-47,0.703932044
14.395885,1,3,6,-13,-25,-5,-8,-3,0.703932044
14.409743,5,-7,-3,31,42,6,-3,-3,0.703932044
14.409759,-11,25,-3,-7,-15,8,-2,-19,0.703932044
14.411106,-9,-16,2,1,-16,-16,-3,-21,0.703932044
14.411142,11,-49,-4,10,-13,-18,0,-19,0.703932044
14.432367,-31,21,3,-12,0,1,4,-29,0.703932044
14.432396,4,-22,0,16,-21,36,-3,6,0.703932044
14.434537,39,-5,-1,-29,-35,-54,-11,-13,0.703932044
14.434552,-4,33,4,12,51,9,-4,-21,0.703932044
14.446065,22,-16,-6,-42,-43,11,-2,-13,0.703932044
14.446097,10,-7,3,46,93,7,-3,20,0.703932044
14.454753,-14,4,-4,-9,-32,0,10,-8,0.703932044
14.454762,-2,-34,-5,-1,2,23,4,7,0.703932044
14.470827,-10,17,5,-1,-3,-58,-7,-43,0.703932044
14.470837,2,13,-2,-19,-24,-9,2,16,0.703932044
14.471054,-18,-15,0,9,6,-5,0,-31,0.703932044
14.471063,25,13,1,6,-4,9,0,13,0.703932044
14.492232,-21,-9,0,13,29,1,0,-43,0.703932044
14.492258,64,24,5,-16,-23,-1,-1,32,0.703932044
14.494276,-88,-17,0,14,19,-4,-3,61,0.703932044
14.494291,-20,-1,4,-5,-76,-17,2,9,0.703932044
14.514947,28,-42,-7,10,10,24,-3,2,0.703932044
14.514980,-10,26,-1,-16,-3,-40,1,9,0.703932044
14.517463,3,-16,-5,-14,1,20,0,-21,0.703932044
14.517477,-8,-5,1,7,4,7,2,10,0.703932044
14.529983,15,8,-4,-8,50,-36,-13,1,0.703932044
14.530070,-32,-15,3,-2,-23,6,6,-31,0.703932044
14.532705,-3,3,1,-2,8,2,4,-21,0.703932044
14.532718,-18,29,1,-1,7,-10,1,7,0.703932044
14.552274,6,-28,-5,3,-12,5,-2,-9,0.703932044
14.552298,12,-5,-3,-3,-1,7,-4,-27,0.703932044
14.553832,-12,1,-1,1,-7,-9,-5,-61,0.703932044
14.553854,29,-1,0,4,12,10,0,66,0.703932044
14.575032,13,11,5,6,-15,12,5,14,0.703932044
14.575069,-19,-21,-6,-25,-40,26,-19,-29,0.703932044
14.576683,37,-3,-5,13,-27,-18,15,33,0.683030008
14.576691,-2,-9,-5,-11,11,1,-2,-32,0.683030008
14.590201,-2,0,3,2,1,2,3,31,0.683030008
14.590234,-7,5,5,2,-23,-3,-6,-4,0.683030008
14.592652,17,30,6,8,26,-12,7,-26,0.683030008
14.592664,5,-14,4,-13,37,22,-2,55,0.683030008
14.612053,-43,-15,-7,-6,-5,35,-3,19,0.683030008
14.612087,-43,8,3,9,4,-49,16,-14,0.683030008
14.613870,29,1,-5,-13,-30,-1,-7,-16,0.683030008
14.613879,-26,25,-2,5,-12,-11,-6,-18,0.683030008
14.642107,18,4,1,-4,14,-8,6,-3,0.683030008
14.642126,18,14,-2,-5,-51,-12,3,37,0.683030008
14.643533,-20,4,1,2,22,36,0,30,0.683030008
14.643543,-3,-36,-4,23,48,-53,-4,-19,0.683030008
14.649011,5,16,-2,-8,-44,-15,-9,7,0.683030008
14.649031,-2,19,-3,-6,11,7,3,-51,0.683030008
14.655870,40,-16,0,2,19,-11,-14,59,0.683030008
14.655900,8,38,-10,-10,-31,-35,2,-20,0.683030008
14.673497,-8,-12,0,-3,26,-3,3,19,0.683030008
14.673509,-16,-3,0,1,-19,13,-1,-31,0.683030008
14.673618,-8,-25,0,-8,67,-3,0,1,0.683030008
14.673625,-20,14,4,-8,66,19,-9,-8,0.683030008
14.694731,-45,8,1,-2,-33,-15,7,5,0.683030008
14.694751,62,-6,-5,-1,4,-7,-1,-29,0.683030008
14.696079,-33,-13,0,5,-23,7,-7,57,0.683030008
14.696087,2,-30,-4,-4,-4,2,-3,-37,0.683030008
14.709359,9,49,1,-7,-52,-6,8,-49,0.683030008
14.709391,-46,-7,2,24,105,31,0,15,0.683030008
14.716006,16,-22,-3,-19,-41,-20,-2,-28,0.683030008
14.716026,11,19,-2,1,-35,23,0,7,0.683030008
14.732212,3,-20,-4,-1,17,-17,-3,11,0.683030008
14.732232,-47,-40,-5,3,21,1,-7,0,0.683030008
14.735134,-8,8,0,0,2,17,10,-16,0.683030008
14.735147,38,3,6,-1,-103,-20,0,-12,0.683030008
14.754871,-2,3,-5,14,91,66,-17,76,0.683030008
14.754895,19,17,-3,-17,-47,-26,2,31,0.683030008
14.756102,-23,-5,-4,-8,-6,18,5,-30,0.683030008
14.756127,7,0,1,-5,-16,14,-18,14,0.683030008
14.769027,4,10,1,3,-14,-45,-8,21,0.683030008
14.769041,11,-2,4,9,24,38,7,29,0.683030008
14.775950,-9,11,4,18,-31,-15,-1,-61,0.683030008
14.775982,-54,12,7,7,84,12,-15,35,0.683030008
14.792425,75,-17,-9,-3,28,-3,8,-4,0.683030008
14.794152,21,2,-5,-7,-18,-17,-13,-26,0.683030008
14.794170,-34,-17,-1,-6,2,-12,-6,-5,0.683030008
14.794175,24,-9,-4,-2,-5,15,6,-45,0.683030008
14.815804,-33,13,2,5,-11,-7,4,27,0.683030008
14.815819,10,2,4,-6,-32,-4,7,11,0.683030008
14.816304,-7,36,5,2,5,16,4,5,0.683030008
14.816323,11,7,-7,3,-15,-4,2,-16,0.683030008
14.831195,-26,-25,0,-4,-9,-2,-1,22,0.683030008
14.831207,-5,14,1,6,-20,1,-3,21,0.683030008
14.835834,-6,-35,-4,-10,66,27,-4,6,0.711570887
14.835858,-7,8,2,13,-28,12,18,24,0.711570887
14.852325,8,-5,-1,-9,19,22,-2,-71,0.711570887
14.852351,-16,40,6,4,-3,37,7,3,0.711570887
14.854175,4,-12,-10,-1,-2,-81,-5,-8,0.711570887
14.854188,13,-46,-2,-38,-13,7,10,-46,0.711570887
14.875013,14,3,-1,24,-7,-2,-2,2,0.711570887
14.875045,-4,5,0,5,-2,-13,0,-30,0.711570887
14.877551,2,0,-1,-6,-45,34,-5,-19,0.711570887
14.877561,-10,-9,4,6,26,-2,4,-21,0.711570887
14.889147,20,11,-1,0,-23,8,1,62,0.711570887
14.889171,-15,-36,-7,-21,6,-9,-4,8,0.711570887
14.896169,11,-8,-2,-25,-42,-9,2,14,0.711570887
14.896189,6,9,4,53,20,-30,-6,5,0.711570887
14.912450,-12,11,-1,-1,50,23,-5,-26,0.711570887
14.912474,11,-69,-6,0,32,-51,-2,-9,0.711570887
14.913603,21,-13,1,6,-6,27,6,29,0.711570887
14.913622,-21,41,-4,-23,6,-5,5,14,0.711570887
14.934590,44,-6,2,-1,-24,-20,-5,-2,0.711570887
14.936701,-68,-10,-4,4,2,40,-13,28,0.711570887
14.936722,-40,-1,1,-3,-24,-7,0,-21,0.711570887
14.936728,40,57,-5,3,-4,-24,-9,15,0.711570887
14.949161,-24,-51,-2,14,56,-9,15,-4,0.711570887
14.949184,24,30,1,-19,-38,17,-4,1,0.711570887
14.955967,10,-8,-3,25,28,12,5,21,0.711570887
14.955991,-35,1,0,-16,-52,24,0,3,0.711570887
14.972367,3,14,4,-6,-33,-9,-9,-33,0.711570887
14.972422,25,18,-1,7,-28,-21,1,5,0.711570887
14.973744,24,8,-1,-20,15,2,2,-10,0.711570887
14.973837,-12,-29,-5,11,0,1,-4,17,0.711570887
14.995149,-47,29,1,-6,-13,-19,5,-21,0.711570887
14.995182,21,-30,-2,-8,9,-4,-9,5,0.711570887
14.997536,-12,-5,-1,3,19,-11,-4,8,0.711570887
14.997544,4,-7,-3,-3,-10,1,-2,-9,0.711570887
15.008824,-5,0,-1,-6,47,18,-1,-8,0.711570887
15.008856,-5,28,-1,-11,38,-21,-2,-43,0.711570887
15.017207,7,4,-3,11,28,-1,-11,-16,0.711570887
15.017225,-11,-4,1,-16,-10,-35,-12,-12,0.711570887
15.032197,-1,-38,-5,7,-3,10,-1,21,0.711570887
15.032267,12,2,3,3,14,0,5,-14,0.711570887
15.033814,-15,32,1,1,-37,-15,-2,-25,0.711570887
15.033832,-1,-8,0,-10,2,1,6,32,0.711570887
15.054812,-18,10,-4,-9,-41,23,5,-22,0.711570887
15.055750,37,0,-2,12,5,5,1,2,0.711570887
15.056132,30,17,5,-4,-54,0,-3,6,0.711570887
15.056219,32,-19,-14,-4,31,11,-2,5,0.711570887
15.068395,-5,-4,1,-5,-34,-18,2,0,0.711570887
15.068435,-7,16,0,-11,28,18,5,14,0.711570887
15.078256,13,-9,-1,22,-11,-2,-1,6,0.711570887
15.078272,-4,-10,2,-11,-56,-4,3,-23,0.711570887
15.093299,4,11,2,2,-20,27,4,6,0.709560902
15.093307,-25,-18,-4,-6,23,6,-4,-25,0.709560902
15.093531,-2,13,-4,-23,-80,-18,-5,-11,0.709560902
15.093539,35,-2,1,29,100,70,-12,24,0.709560902
15.114855,23,-23,-4,-8,0,-56,-4,51,0.709560902
15.114886,-38,47,1,2,-21,35,-8,20,0.709560902
15.117094,38,-21,-2,5,-17,12,6,32,0.709560902
15.117106,-26,7,-6,-3,9,6,0,-15,0.709560902
15.137372,12,13,0,-2,-23,-14,-9,-26,0.709560902
15.137397,-53,-20,3,-3,-25,-12,-7,-1,0.709560902
15.139788,-24,-9,-1,18,88,-12,1,2,0.709560902
15.139800,-16,-8,3,-4,-32,-6,7,-18,0.709560902
15.152169,3,36,2,10,4,-1,-2,-10,0.709560902
15.152187,14,-19,-3,1,15,2,11,-23,0.709560902
15.154820,-3,5,0,10,-65,-11,-5,35,0.709560902
15.154832,6,-14,1,-17,15,-7,20,23,0.709560902
15.175055,-25,-2,-3,-4,-11,3,-5,-5,0.709560902
15.175089,18,11,0,-12,-89,-19,-1,-5,0.709560902
15.176864,14,5,-4,16,84,-10,-1,-12,0.709560902
15.176873,14,-1,2,9,-29,-9,-1,-2,0.709560902
15.197384,-27,-16,2,2,35,-12,-4,15,0.709560902
15.197415,49,-14,-6,-2,-29,1,12,3,0.709560902
15.199594,-17,19,1,-10,-5,-14,-2,16,0.709560902
15.199606,4,12,-1,-17,-38,14,6,13,0.709560902
15.212639,-9,-16,-2,-19,28,5,-20,-7,0.709560902
15.212673,-26,36,6,47,50,-19,9,19,0.709560902
15.215014,19,-13,-4,-25,31,-22,-18,-95,0.709560902
15.215029,11,11,-3,3,16,-14,-12,17,0.709560902
15.234747,-4,-20,-2,-21,-32,14,7,-19,0.709560902
15.234766,-14,14,2,11,20,-5,-1,5,0.709560902
15.236176,-43,-25,2,-2,1,-1,8,-29,0.709560902
15.236280,-12,8,0,0,-12,-5,-9,-62,0.709560902
15.250394,21,3,0,-8,2,-12,3,2,0.709560902
15.250411,-7,-13,-5,-8,24,4,-8,37,0.709560902
15.257975,-25,-3,1,-3,-20,25,7,-4,0.709560902
15.257981,8,-37,-5,-10,-43,-19,-3,-4,0.709560902
15.272197,-5,-1,-2,9,-20,12,5,-5,0.709560902
15.272215,10,4,2,-11,-37,-20,-1,-18,0.709560902
15.274161,-11,6,-2,-2,53,46,-6,18,0.709560902
15.274168,20,-7,1,6,-31,-48,4,-8,0.709560902
15.297026,52,9,2,6,-70,1,4,32,0.709560902
15.297036,-8,-31,-5,4,51,8,6,0,0.709560902
15.297040,-41,11,-2,-2,-8,-43,-12,-7,0.709560902
15.297042,18,1,6,-8,-15,31,23,3,0.709560902
15.308703,-16,-18,-5,7,40,-15,0,-29,0.709560902
15.308737,21,9,0,-18,-22,-12,-7,-11,0.709560902
15.319046,3,-34,4,33,21,33,7,70,0.709560902
15.319052,-44,-35,-4,-8,2,-22,-12,-11,0.709560902
15.332494,23,8,-2,-5,-13,-1,-9,-9,0.709560902
15.332527,-18,15,3,2,16,15,1,-42,0.709560902
15.334524,-26,0,-5,-17,-16,-14,0,-9,0.709560902
15.334539,-44,14,1,10,52,13,-7,4,0.709560902
15.354749,55,-2,-1,3,18,9,-1,0,0.695693809
15.354767,-25,-35,-5,2,-28,-4,-7,-4,0.695693809
15.356233,53,27,0,-13,-2,10,8,-15,0.695693809
15.356247,-1,-7,-1,6,-13,1,-10,-33,0.695693809
15.368388,-53,-35,-5,4,36,-10,2,-20,0.695693809
15.368409,11,21,7,5,-10,-31,-7,-17,0.695693809
15.379059,21,2,-7,-8,37,27,-2,5,0.695693809
15.379065,-24,-7,-6,2,25,10,2,15,0.695693809
15.392470,26,-7,-5,-12,-13,-14,-6,-13,0.695693809
15.392494,19,13,0,15,-10,53,-8,16,0.695693809
15.393559,13,-13,2,-14,-55,-72,6,3,0.695693809
15.393577,6,39,1,-2,-2,2,-8,0,0.695693809
15.415241,-15,-14,-2,3,-15,5,2,-1,0.695693809
15.417127,-2,25,-3,-7,9,-4,-1,12,0.695693809
15.417142,11,-30,1,7,28,9,0,65,0.695693809
15.417145,-22,-4,0,0,-19,-4,4,4,0.695693809
15.428582,6,13,-2,-5,0,-5,2,-8,0.695693809
15.428614,11,-8,-5,-3,-18,-32,6,14,0.695693809
15.438650,-24,-3,1,-3,-43,0,-1,-28,0.695693809
15.438658,28,4,-6,15,47,-1,-13,-28,0.695693809
15.452111,-36,-7,3,-25,7,31,10,7,0.695693809
15.452129,27,6,4,9,43,7,9,40,0.695693809
15.453663,-31,-15,1,1,-34,13,1,37,0.695693809
15.453685,8,3,-4,-7,-33,-13,-5,-10,0.695693809
15.474851,-7,6,-3,4,5,-12,-17,15,0.695693809
15.474875,-1,2,-3,-10,-3,13,-1,44,0.695693809
15.476178,-1,-17,-2,3,18,-29,4,-31,0.695693809
15.476184,41,19,1,-7,26,39,9,24,0.695693809
15.499736,-30,13,1,10,19,-14,-20,9,0.695693809
15.499750,1,-21,-3,-2,-36,-21,-4,-18,0.695693809
15.499754,-3,10,-4,-2,24,14,1,-1,0.695693809
15.499756,-10,-13,2,-3,-21,-9,-2,-2,0.695693809
15.512752,10,14,1,0,23,12,7,5,0.695693809
15.512780,-11,-21,-2,-14,15,-8,-4,-22,0.695693809
15.515248,36,19,4,12,2,-11,-3,-15,0.695693809
15.515271,-90,-17,-5,4,27,-8,-16,-25,0.695693809
15.534672,-43,-4,0,-7,-9,33,13,45,0.695693809
15.534722,-4,-21,-5,-8,-4,-2,-1,-16,0.695693809
15.536248,-14,14,-5,-18,4,23,-2,-22,0.695693809
15.536266,19,8,4,31,23,-23,6,9,0.695693809
15.557403,7,5,3,9,-36,-27,-3,-13,0.695693809
15.557427,8,7,2,8,-13,19,11,5,0.695693809
15.560005,-21,-2,0,-10,-41,-16,-1,-62,0.695693809
15.560016,-25,-33,-6,-29,3,11,-16,18,0.695693809
15.572041,32,38,-8,-3,16,-37,8,-24,0.695693809
15.572074,2,-64,1,8,-7,-5,-3,80,0.695693809
15.578359,11,52,-2,1,-3,9,2,-4,0.695693809
15.578375,13,8,5,-8,-10,-7,9,16,0.695693809
15.594837,-9,8,0,4,-5,2,-2,-2,0.695693809
15.594917,-58,3,2,11,-11,-10,0,-55,0.695693809
15.596024,5,-3,0,-30,-36,12,-4,59,0.695693809
15.596033,14,-10,-9,11,25,-4,2,51,0.695693809
15.616352,-25,-12,1,-8,-52,-37,-2,-20,0.697987719
15.616372,-13,-58,-8,4,7,37,-9,4,0.697987719
15.625703,24,-16,2,16,7,-5,-9,-13,0.697987719
15.625717,-6,13,0,-8,-5,1,6,-16,0.697987719
15.631631,23,11,1,7,-17,22,3,-19,0.697987719
15.631654,10,39,3,-25,32,-25,-9,-3,0.697987719
15.638676,-100,-28,-5,14,55,26,-10,0,0.697987719
15.638694,68,-5,-6,-13,-17,7,-4,-2,0.697987719
15.654618,8,-11,3,3,16,5,-4,20,0.697987719
15.654633,-32,4,-5,-4,-19,-7,-2,-11,0.697987719
15.656060,12,6,-1,0,11,36,6,4,0.697987719
15.656073,-5,24,5,-1,-8,-43,1,0,0.697987719
15.678259,-25,-14,-4,3,-102,38,3,-5,0.697987719
15.678282,72,34,1,-5,105,-24,3,54,0.697987719
15.680076,-6,-3,-2,-4,16,-42,0,3,0.697987719
15.680082,-13,-3,-3,3,-18,10,16,-18,0.697987719
15.691592,-9,-19,1,-6,-44,16,18,49,0.697987719
15.691609,18,28,-2,1,-20,18,3,-30,0.697987719
15.698631,-42,-14,0,-2,-29,-16,-7,-54,0.697987719
15.698685,61,-6,-4,2,7,-6,-13,29,0.697987719
15.717110,-14,-9,-5,4,29,-10,1,-23,0.697987719
15.717123,8,8,-3,-6,-16,18,-1,-37,0.697987719
15.717127,-11,50,1,-8,-2,-25,4,7,0.697987719
15.717129,-12,-25,2,15,-1,35,-2,-19,0.697987719
15.737591,12,-1,0,-21,48,-4,-7,-13,0.697987719
15.737630,-10,7,1,19,-7,5,-2,2,0.697987719
15.739464,51,-36,3,3,-24,1,-3,5,0.697987719
15.739470,-72,3,2,-4,5,-16,8,-10,0.697987719
15.751702,32,-45,-9,-9,3,30,-13,-15,0.697987719
15.751720,-7,3,-1,6,14,-61,-3,-40,0.697987719
15.758713,24,15,0,-15,2,-12,-2,47,0.697987719
15.758745,-10,-13,-8,-5,-58,17,-10,-10,0.697987719
15.775539,-27,-2,3,4,15,-9,-3,-11,0.697987719
15.775557,-2,-20,-2,-8,-30,6,8,-12,0.697987719
15.777544,21,1,-1,18,12,2,0,-10,0.697987719
15.777555,0,6,5,0,26,-9,1,-13,0.697987719
15.797528,-3,22,3,0,49,-14,-5,63,0.697987719
15.797552,-15,-13,-6,5,-49,21,4,8,0.697987719
15.798710,-13,-4,-1,0,-8,11,7,3,0.697987719
15.798737,-18,4,-9,-27,47,-9,-3,-6,0.697987719
15.811764,-17,27,4,26,31,-11,-12,14,0.697987719
15.811792,21,-3,-1,-12,-6,9,-2,11,0.697987719
15.818327,7,28,0,9,-18,-6,-7,25,0.697987719
15.818345,14,-14,0,0,-16,15,-1,-12,0.697987719
15.834820,17,11,-1,-2,-8,-2,5,-39,0.697987719
15.834840,8,-19,1,0,-10,-25,-12,15,0.697987719
15.837122,-18,35,-6,-1,31,23,-5,-4,0.697987719
15.837132,56,15,6,-12,42,-8,1,55,0.697987719
15.857786,-14,-2,-5,19,74,-8,-6,-8,0.695053863
15.857803,-12,-52,-1,4,3,-20,-6,-6,0.695053863
15.858546,16,-31,-5,-3,1,-10,12,-2,0.695053863
15.858581,-16,15,3,5,-33,-19,2,-9,0.695053863
15.873916,-3,6,2,-8,5,-8,5,0,0.695053863
15.873923,-18,28,-2,5,-15,5,-8,-40,0.695053863
15.878612,20,-21,-2,-3,0,1,-6,-2,0.695053863
15.878635,-9,-34,-1,-3,-21,-2,-4,0,0.695053863
15.894915,31,-7,1,2,-63,7,4,56,0.695053863
15.894947,-64,1,-7,-8,30,-14,-2,-19,0.695053863
15.896428,-20,-8,0,-8,2,12,-2,-25,0.695053863
15.896435,1,16,2,11,-14,42,0,-4,0.695053863
15.917176,1,-16,-1,-34,-13,-41,0,-46,0.695053863
15.917195,-16,28,6,27,33,5,0,18,0.695053863
15.919025,63,9,-5,-2,-3,14,5,9,0.695053863
15.919038,-19,6,0,18,28,-11,1,27,0.695053863
15.931705,-20,-42,-7,-17,-8,10,-7,-33,0.695053863
15.931731,-17,40,5,-11,-3,14,1,7,0.695053863
15.938764,-8,5,2,-5,-43,-12,-5,-41,0.695053863
15.938795,47,10,-5,0,6,-6,-7,26,0.695053863
15.954628,-8,24,-3,12,9,20,6,-74,0.695053863
15.954646,14,-10,4,-3,11,-4,-5,11,0.695053863
15.956090,-19,-16,-1,8,-37,-8,-2,-5,0.695053863
15.956106,-8,0,1,-6,1,40,14,42,0.695053863
15.977415,-4,35,-2,1,-11,-34,-9,-18,0.695053863
15.977439,37,-5,-4,-8,-19,-6,13,15,0.695053863
15.978648,-39,16,2,-11,-4,-2,-6,2,0.695053863
15.978702,25,-13,3,17,44,-72,0,-30,0.695053863
15.991046,-18,-5,-3,-3,-4,13,9,41,0.695053863
15.991070,25,-8,-3,-6,-31,31,-2,-17,0.695053863
16.000284,20,15,-1,1,32,-19,-8,29,0.695053863
16.000297,-33,-29,1,-2,-4,6,-7,-30,0.695053863
16.017198,-20,16,0,-4,-3,7,0,-6,0.695053863
16.017211,22,-10,-3,-20,-11,-11,1,-19,0.695053863
16.017215,-10,-12,6,19,14,8,4,19,0.695053863
16.017218,-27,24,-9,-18,-49,10,-5,1,0.695053863
16.037357,18,9,0,16,32,-4,3,9,0.695053863
16.037446,-6,-17,-4,-26,-19,12,-3,-2,0.695053863
16.039135,26,2,-3,8,12,-31,-25,8,0.695053863
16.039146,-3,-11,4,1,19,26,6,23,0.695053863
16.050896,16,20,0,-13,-79,12,-2,26,0.695053863
16.050915,8,1,1,13,29,5,-8,-7,0.695053863
16.061692,-8,-8,-3,-14,-1,11,6,-36,0.695053863
16.061700,-14,4,-1,-1,10,-16,-5,-26,0.695053863
16.074904,18,-4,0,-1,1,-10,-8,0,0.695053863
16.074922,-17,-7,6,18,51,75,-2,23,0.695053863
16.077055,10,11,-5,-13,-101,-54,-15,14,0.695053863
16.077072,-44,-8,-10,-29,40,3,-7,-28,0.695053863
16.097560,4,-22,1,19,27,0,4,23,0.695053863
16.097596,12,8,-4,3,-44,-32,-6,-17,0.695053863
16.100105,-26,1,4,10,56,38,3,2,0.695053863
16.100117,14,24,2,-5,-46,-10,-2,-24,0.695053863
16.111132,27,5,7,0,-35,-11,-6,44,0.695053863
16.111159,-42,0,1,-15,16,22,2,-15,0.695053863
16.121237,5,-17,-2,0,31,-1,-11,-14,0.691353868
16.121251,14,5,-3,19,12,-35,9,14,0.691353868
16.134796,-28,-3,-2,-17,15,73,-25,-66,0.691353868
16.134819,-3,5,-1,5,-14,-27,1,25,0.691353868
16.136585,-20,-31,-9,-11,-15,-2,2,-24,0.691353868
16.136598,28,-36,-10,-2,-9,3,-4,-42,0.691353868
16.157228,-68,-27,2,6,33,-26,-2,-21,0.691353868
16.157246,-28,32,1,-3,-18,-17,2,7,0.691353868
16.158611,-5,9,2,-5,27,14,3,0,0.691353868
16.160262,-11,41,2,15,29,6,2,-15,0.691353868
16.170744,22,-18,-4,-3,-34,-24,2,17,0.691353868
16.170763,4,-38,-1,-8,46,63,11,-7,0.691353868
16.181450,-2,-4,-1,37,12,-50,-1,60,0.691353868
16.181464,8,-4,1,-21,-27,48,3,6,0.691353868
16.194803,-4,14,-5,1,18,-27,7,1,0.691353868
16.194836,-16,4,0,-2,-17,-20,-8,-30,0.691353868
16.196937,38,-9,-3,-7,-2,14,2,-22,0.691353868
16.196943,-3,15,6,12,-13,9,-9,31,0.691353868
16.217374,10,-17,-5,-11,1,-5,2,16,0.691353868
16.217388,-1,-18,-3,2,-29,-27,-3,7,0.691353868
16.218730,-17,29,3,-12,-4,16,6,-23,0.691353868
16.218750,26,-27,-5,3,15,-34,-8,48,0.691353868
16.232413,22,36,3,4,-12,16,12,17,0.691353868
16.232426,-41,-25,-4,10,25,-9,-14,11,0.691353868
16.241464,36,8,-3,-14,-14,11,6,-8,0.691353868
16.241475,-41,-5,4,4,-24,-3,1,-16,0.691353868
16.254884,53,-25,-1,-5,13,-9,8,72,0.691353868
16.256739,16,68,-1,1,-28,-21,2,6,0.691353868
16.256757,-42,-11,3,12,-26,19,6,7,0.691353868
16.256763,28,-5,3,0,-66,-14,0,-20,0.691353868
16.277374,8,-19,-5,-14,81,2,-12,-32,0.691353868
16.277393,18,6,-2,-5,-32,8,-12,1,0.691353868
16.279477,-44,-19,0,-28,14,-23,13,7,0.691353868
16.279492,44,-6,-3,32,-8,-12,4,17,0.691353868
16.290823,0,14,-2,-14,-38,11,-2,-21,0.691353868
16.290847,34,-20,-5,-2,15,-5,13,73,0.691353868
16.301040,-10,27,5,2,12,-1,-8,-20,0.691353868
16.301051,-37,-50,-8,8,-52,-42,-4,-11,0.691353868
16.314747,6,13,7,7,62,-6,1,-19,0.691353868
16.314767,9,8,1,18,70,7,-1,-14,0.691353868
16.316280,-7,-19,-5,-19,11,-23,0,10,0.691353868
16.316300,-13,33,-2,-19,34,35,12,7,0.691353868
16.337170,-9,-3,-1,15,-49,5,3,22,0.691353868
16.337187,14,-9,0,-4,9,-14,5,-19,0.691353868
16.338694,18,-17,0,1,-17,13,-3,1,0.691353868
16.338708,-23,10,3,-5,44,-4,-7,-64,0.691353868
16.350867,-2,-41,-3,-3,-37,-7,-4,17,0.691353868
16.350903,3,-1,-2,19,8,14,-6,-2,0.691353868
16.361869,-2,4,-4,-7,1,5,-1,10,0.691353868
16.361876,-7,10,-2,-17,-8,5,7,-9,0.691353868
16.374691,-13,14,2,9,-16,-1,4,-22,0.687320378
16.374703,-22,-1,-2,-1,-28,-25,-13,-16,0.687320378
16.376029,6,-37,-3,0,-1,-25,-4,-16,0.687320378
16.376037,-2,-10,-2,0,40,58,-12,-53,0.687320378
16.397214,-13,9,-5,-24,-14,53,-9,-13,0.687320378
16.397230,21,6,-6,1,-38,-36,22,-31,0.687320378
16.399777,30,3,-3,-4,30,7,-1,22,0.687320378
16.399791,-27,1,4,8,17,-17,-10,1,0.687320378
16.420466,12,-2,0,3,18,2,0,-5,0.687320378
16.420478,3,27,-1,3,21,14,-3,-14,0.687320378
16.421218,-14,5,0,-10,-43,23,3,-30,0.687320378
16.421230,48,5,10,-2,-23,-24,8,55,0.687320378
16.435821,-33,28,-4,2,5,17,-5,-59,0.687320378
16.435833,1,-55,-3,-12,8,-16,-4,1,0.687320378
16.436159,9,13,-1,15,-23,4,-2,16,0.687320378
16.436170,8,2,0,0,5,14,-4,13,0.687320378
16.457477,-42,-3,2,20,9,-23,-2,-26,0.687320378
16.457501,46,-9,-2,-7,-16,6,-3,19,0.687320378
16.458593,-3,4,-3,1,-8,-10,2,-19,0.687320378
16.458599,-7,14,0,-11,8,-8,-2,11,0.687320378
16.479928,12,-25,-6,3,46,-16,-10,-11,0.687320378
16.479958,-16,-5,1,-9,-76,-6,-3,-8,0.687320378
16.482939,23,20,-4,0,67,-7,-11,9,0.687320378
16.482954,17,-15,-4,-8,-89,-22,10,-7,0.687320378
16.495160,-32,6,5,0,34,-20,0,-27,0.687320378
16.495193,6,12,-7,-36,-29,24,-2,61,0.687320378
16.497407,-15,-18,1,33,45,1,0,-22,0.687320378
16.497421,-26,-2,-6,-2,-33,-23,-10,-2,0.687320378
16.517380,55,39,5,1,-24,-15,17,14,0.687320378
16.517444,-43,-21,-2,3,4,59,-3,-25,0.687320378
16.518688,-4,11,5,10,19,-18,8,-8,0.687320378
16.518705,6,-28,-10,-9,10,3,-2,6,0.687320378
16.539843,-7,11,-3,-2,-39,3,-5,12,0.687320378
16.539892,0,20,6,21,66,-24,2,22,0.687320378
16.541358,7,-12,1,-5,-52,14,-10,15,0.687320378
16.541373,-13,24,-4,-11,84,1,4,-15,0.687320378
16.554219,-1,-42,-10,-20,-63,-12,-10,9,0.687320378
16.554245,7,-20,-1,49,-25,2,2,-16,0.687320378
16.560705,2,-10,1,-29,44,-8,0,1,0.687320378
16.560729,22,-3,-4,4,17,6,-7,5,0.687320378
16.577021,-6,15,-1,-16,-21,2,2,-12,0.687320378
16.577034,1,-13,7,14,15,-23,3,51,0.687320378
16.578505,-25,40,0,-6,-47,24,3,49,0.687320378
16.578513,-11,2,-1,21,3,5,-5,-20,0.687320378
16.599641,13,3,-1,3,12,-7,-1,1,0.687320378
16.599660,27,4,-1,-10,28,-8,-3,-30,0.687320378
16.601447,-13,-43,-8,1,-9,-21,-6,-34,0.687320378
16.601457,-44,16,6,-11,-54,16,21,51,0.687320378
16.614090,62,2,-6,-4,106,16,-2,-6,0.687320378
16.614116,-22,-2,4,-1,-19,24,7,-24,0.687320378
16.620878,9,58,-9,-13,-39,-16,1,8,0.687320378
16.620902,-1,-35,-2,11,12,-15,-11,-16,0.687320378
16.637771,-27,-12,7,4,-65,-8,1,11,0.734681201
16.637781,-6,17,0,-10,28,-2,0,-4,0.734681201
16.638612,22,-7,-4,2,13,7,0,3,0.734681201
16.638728,-7,-4,-1,-9,-11,10,-1,12,0.734681201
16.659817,-63,15,4,10,-10,12,3,47,0.734681201
16.659849,-4,-9,-6,-24,19,8,-14,8,0.734681201
16.661648,-8,5,3,46,-84,-40,-4,-17,0.734681201
16.661655,9,11,1,-34,56,21,2,56,0.734681201
16.674303,20,-30,-8,-1,27,10,-10,-7,0.734681201
16.675611,11,22,-2,-14,-2,-21,2,65,0.734681201
16.681450,-23,-12,2,1,25,33,12,12,0.734681201
16.681486,-7,9,4,17,-15,-19,-27,-10,0.734681201
16.697496,-6,-9,-3,-4,-43,-29,13,-11,0.734681201
16.697531,22,53,-3,-5,-32,18,-3,-33,0.734681201
16.699999,-43,-37,-6,-16,3,-11,-11,-22,0.734681201
16.700010,13,21,-4,0,20,8,3,-15,0.734681201
16.719594,-17,12,6,4,28,-13,-4,0,0.734681201
16.719612,-7,-32,-7,1,0,-30,2,-25,0.734681201
16.721217,17,-16,1,-29,-56,0,-4,0,0.734681201
16.721236,2,-2,3,42,37,45,6,-24,0.734681201
16.733980,-9,21,6,8,-27,-35,-22,60,0.734681201
16.734039,-3,-28,-10,-19,23,-22,7,7,0.734681201
16.741193,33,-44,-10,-28,24,20,-6,-11,0.734681201
16.741229,-14,-3,0,2,-18,-11,15,85,0.734681201
16.757492,-14,-39,1,1,-14,2,0,-26,0.734681201
16.757524,5,12,7,-2,-12,12,-3,16,0.734681201
16.760313,19,15,-2,16,20,-2,-2,50,0.734681201
16.760325,7,-11,-4,-13,-30,-13,1,-48,0.734681201
16.779723,4,-7,-5,2,12,12,0,-12,0.734681201
16.779733,-13,12,2,-9,1,-10,-5,-17,0.734681201
16.781216,-4,-4,6,17,24,5,4,-82,0.734681201
16.781318,-15,23,-3,-14,1,-19,-11,13,0.734681201
16.794092,6,24,2,2,34,-16,1,-5,0.734681201
16.794119,-25,-45,-10,-9,-13,12,-8,-19,0.734681201
16.800967,-10,-38,4,5,31,-6,8,-7,0.734681201
16.800992,48,28,-11,-1,-1,-10,-3,-26,0.734681201
16.817164,-12,3,1,-6,-78,12,0,-4,0.734681201
16.817189,-3,27,0,-1,11,-33,-8,-33,0.734681201
16.819017,-7,-9,-1,-5,6,44,-9,21,0.734681201
16.819039,-4,0,3,-1,6,-53,7,-14,0.734681201
16.839729,-47,20,-3,13,56,42,-2,17,0.734681201
16.839756,23,-11,5,41,13,-4,13,-16,0.734681201
16.841322,-5,9,4,-16,-19,4,1,-18,0.734681201
16.841352,6,65,0,11,9,7,2,-17,0.734681201
16.862348,2,-13,-1,-12,-34,4,-3,-65,0.734681201
16.862376,-8,6,1,0,-14,2,-6,4,0.734681201
16.863593,-1,38,1,5,40,-1,0,2,0.734681201
16.863640,-5,-14,11,4,-67,-3,1,11,0.734681201
16.877411,-9,-39,-9,-17,-45,-56,5,-20,0.734681201
16.877445,-7,10,-3,-8,55,46,-2,11,0.734681201
16.879130,34,16,-7,-5,-6,-50,-10,9,0.734681201
16.879135,-17,-38,-6,-2,39,42,-7,-20,0.734681201
16.899943,-24,-4,1,11,-11,-4,5,13,0.734505443
16.902064,3,-19,1,-2,-4,-15,-4,-34,0.734505443
16.902078,-15,28,1,12,-6,7,-3,17,0.734505443
16.902083,7,-17,1,-14,2,-14,-6,23,0.734505443
16.913546,23,11,3,7,88,-5,8,25,0.734505443
16.913563,-6,19,0,-1,-34,40,0,51,0.734505443
16.923476,-7,-7,0,3,-79,-52,-2,-11,0.734505443
16.923481,-1,-25,-6,5,73,71,-1,2,0.734505443
16.937073,-10,-15,-6,-15,-12,-23,-6,-14,0.734505443
16.937094,8,-26,1,3,22,7,0,-17,0.734505443
16.938636,-10,30,-1,19,62,1,11,-29,0.734505443
16.938655,-19,-11,7,-52,-112,-58,-20,8,0.734505443
16.960042,98,32,-9,32,85,67,23,13,0.734505443
16.960075,-16,-2,-1,-6,-18,-33,-3,-18,0.734505443
16.961214,-10,-45,-1,-6,2,23,-17,-11,0.734505443
16.961221,-12,25,0,3,-20,-22,5,-31,0.734505443
16.973504,1,7,1,-7,5,10,-7,12,0.734505443
16.973536,8,2,0,2,-24,-17,-5,0,0.734505443
16.984142,7,-4,4,3,20,0,6,1,0.734505443
16.984156,-15,-1,4,14,15,-2,-5,3,0.734505443
16.998058,20,7,-4,-27,-44,10,-6,-3,0.734505443
16.998071,-10,-1,-5,12,-4,-4,10,-14,0.734505443
16.998802,-41,1,-1,-9,-15,8,-9,-31,0.734505443
16.998820,-7,-16,-5,-14,-25,6,7,-27,0.734505443
17.019765,-37,-7,2,20,15,-28,-3,-2,0.734505443
17.019783,71,1,3,-2,-39,-19,-18,17,0.734505443
17.021096,26,-27,-12,-16,8,8,10,-24,0.734505443
17.021104,45,-20,-5,-4,-10,7,-10,28,0.734505443
17.033314,-13,-10,1,-7,-7,0,2,-11,0.734505443
17.033377,-25,28,4,3,14,13,-6,-1,0.734505443
17.044375,-2,5,0,-9,-60,11,1,22,0.734505443
17.044387,9,52,-4,11,2,20,6,-8,0.734505443
17.057338,4,-19,4,11,46,-36,-12,20,0.734505443
17.057362,2,-2,2,-9,-3,-4,2,8,0.734505443
17.059654,38,-12,-4,-1,7,7,-2,-3,0.734505443
17.059673,22,-19,-3,10,18,1,10,75,0.734505443
17.080300,4,20,1,14,-21,-15,-9,-12,0.734505443
17.080327,-34,2,3,1,26,17,8,-23,0.734505443
17.082454,-9,10,0,2,-8,-3,1,-22,0.734505443
17.082466,-13,-15,-1,-4,21,-20,-13,-71,0.734505443
17.093644,-8,-22,-2,-5,-6,-1,2,-12,0.734505443
17.093658,30,28,-6,-9,21,-5,-6,12,0.734505443
17.103874,-34,-2,3,18,28,6,2,-6,0.734505443
17.103888,2,3,-3,-16,-29,8,0,7,0.734505443
17.117236,27,-5,0,-11,-9,5,-1,-2,0.734505443
17.117254,-67,-1,2,-14,-15,-19,-2,-15,0.734505443
17.118807,58,47,-1,15,33,10,6,21,0.734505443
17.118817,-12,-48,-5,-11,14,0,3,-3,0.734505443
17.139759,4,12,5,9,21,5,6,-8,0.704860425
17.139778,27,16,0,11,-72,-1,-6,10,0.704860425
17.141023,-3,-27,-3,-35,24,-5,-17,36,0.704860425
17.141031,-8,28,3,24,11,17,6,4,0.704860425
17.153357,-61,-15,-4,-17,-24,-69,-1,0,0.704860425
17.153383,-12,-12,-7,-12,72,54,-4,-11,0.704860425
17.163723,-11,-1,2,17,-50,-17,0,18,0.704860425
17.163729,-4,19,2,-2,41,11,3,-4,0.704860425
17.177199,58,-5,-9,-12,-65,15,-11,-28,0.704860425
17.177217,-10,-44,-3,6,51,-19,9,48,0.704860425
17.178899,-29,-27,-2,-4,-49,-26,2,20,0.704860425
17.178913,-11,-22,-1,-9,37,-3,-5,3,0.704860425
17.200222,4,6,1,4,-10,9,-3,-20,0.704860425
17.200238,5,42,3,7,-17,-16,6,-30,0.704860425
17.201151,-31,-31,-10,-8,-30,25,-3,66,0.704860425
17.201171,0,-20,1,1,-1,-31,-7,12,0.704860425
17.213843,32,2,-1,10,20,35,8,8,0.704860425
17.213883,5,-13,0,-32,-77,-38,-8,-19,0.704860425
17.223683,-8,-3,-5,4,113,49,-4,-15,0.704860425
17.223689,-20,18,2,12,-38,-7,5,-3,0.704860425
17.237064,-1,4,-1,-10,-14,5,-1,18,0.704860425
17.237085,6,-8,-2,2,27,0,0,7,0.704860425
17.239189,-1,13,5,9,-13,-14,-3,-15,0.704860425
17.239202,6,-48,-2,-9,-5,-3,7,28,0.704860425
17.260150,-5,0,-3,-1,40,7,-9,2,0.704860425
17.260189,-21,-35,-4,8,-66,-39,2,-14,0.704860425
17.262496,-5,78,0,-10,3,-8,-1,2,0.704860425
17.262503,30,-19,-4,2,-20,-14,-4,-25,0.704860425
17.273714,-13,15,1,1,-37,-11,-9,49,0.704860425
17.273746,1,-19,3,15,-32,9,9,19,0.704860425
17.284887,0,-12,0,-11,16,-19,-14,-15,0.704860425
17.284900,-26,56,-1,-9,-9,-24,-5,-21,0.704860425
17.297544,-48,-33,-8,2,0,-2,-3,3,0.704860425
17.297576,-3,7,2,5,-14,-7,2,-19,0.704860425
17.298948,3,3,4,4,28,22,5,2,0.704860425
17.298972,29,-9,-5,5,39,42,-5,48,0.704860425
17.319737,-11,45,-1,-18,-6,-13,7,-16,0.704860425
17.319763,-8,9,-4,-12,3,3,-8,1,0.704860425
17.321296,10,-4,-1,5,-1,-15,5,10,0.704860425
17.321309,-1,-21,1,-1,-8,-9,-8,-18,0.704860425
17.342615,11,-7,-5,-5,-13,20,2,3,0.704860425
17.342644,6,13,4,0,50,2,-2,-39,0.704860425
17.343686,13,4,7,12,-17,-10,3,29,0.704860425
17.343765,-31,-26,-6,-6,-20,-4,1,-8,0.704860425
17.357281,2,44,-1,2,2,-3,-7,7,0.704860425
17.357339,-25,-2,-4,-5,-4,15,-5,-31,0.704860425
17.358525,1,-65,0,-2,-54,-12,-6,-21,0.704860425
17.358541,-12,25,-2,9,75,11,-5,-13,0.704860425
17.379959,-36,-16,-2,-9,-75,-35,19,5,0.704860425
17.379983,33,-41,-8,-31,33,6,3,69,0.704860425
17.382252,28,34,4,11,-30,-4,4,-2,0.704860425
17.382267,-19,39,4,13,4,2,1,1,0.704860425
17.402194,22,-27,3,10,19,11,-4,-24,0.691169095
17.402209,-8,23,-1,-8,-17,-2,-13,-2,0.691169095
17.403778,8,-8,-10,-32,-2,-10,0,-5,0.691169095
17.403876,-8,16,6,23,-24,-8,3,33,0.691169095
17.417230,-14,-1,2,-8,21,17,-6,29,0.691169095
17.417254,-25,-16,6,13,-10,-2,-1,1,0.691169095
17.418603,31,57,-3,3,27,10,-2,29,0.691169095
17.418620,-8,-25,-4,-16,-14,-8,0,-25,0.691169095
17.440155,-14,-9,0,2,-19,-25,-1,-8,0.691169095
17.440173,-6,5,-7,-1,63,56,5,-19,0.691169095
17.446200,-3,-17,1,1,-12,-65,2,-6,0.691169095
17.446230,33,36,-5,-20,-47,15,1,-13,0.691169095
17.463191,18,-11,0,13,20,3,-10,-8,0.691169095
17.463201,-5,13,-3,5,-16,-16,8,2,0.691169095
17.463573,-20,-8,3,-16,-70,-1,-4,-71,0.691169095
17.463580,-9,1,0,24,48,56,0,-5,0.691169095
17.479465,39,10,1,-17,-35,-4,6,-10,0.691169095
17.479477,-25,-17,-2,5,-4,5,-2,-17,0.691169095
17.483306,-58,-23,-5,-27,-17,7,1,25,0.691169095
17.483384,24,-41,4,26,9,-8,-8,-9,0.691169095
17.499862,-35,-14,0,5,12,-8,-1,12,0.691169095
17.499999,7,33,4,0,23,21,15,-11,0.691169095
17.501996,22,-15,-6,-5,28,17,-10,6,0.691169095
17.502005,7,4,0,-10,0,-27,0,-8,0.691169095
17.522407,-19,21,0,5,43,8,-3,-8,0.691169095
17.522431,45,-21,-1,-2,-41,-35,-3,-17,0.691169095
17.524644,0,27,1,3,4,31,-4,-7,0.691169095
17.524652,8,-43,-6,6,19,-14,-3,-3,0.691169095
17.536690,17,-11,1,-4,-10,2,-3,-13,0.691169095
17.536738,3,-8,5,-1,-58,-46,-4,-5,0.691169095
17.543279,-11,9,-3,39,99,89,-8,0,0.691169095
17.543311,16,7,2,-21,-56,-26,0,-7,0.691169095
17.559753,-20,-14,-10,-7,6,11,7,18,0.691169095
17.559763,8,9,-2,-15,-8,3,-6,21,0.691169095
17.561054,-4,-40,2,37,2,-14,1,7,0.691169095
17.561090,-2,24,9,4,13,12,-13,-35,0.691169095
17.582447,-4,-4,-1,-18,-26,-56,-5,3,0.691169095
17.582479,9,0,1,6,12,18,-2,51,0.691169095
17.584416,-15,13,-2,-10,-21,-25,1,9,0.691169095
17.584427,45,-9,-4,-4,10,-2,6,31,0.691169095
17.596774,33,-8,2,4,-6,15,-9,-43,0.691169095
17.596806,12,40,-6,4,5,-6,-10,20,0.691169095
17.603282,13,-13,0,-6,-4,-9,2,-29,0.691169095
17.603303,-54,16,-1,-6,-30,-1,-2,10,0.691169095
17.621058,0,-13,1,-6,-1,49,0,0,0.691169095
17.621069,1,42,1,27,-25,-46,8,-12,0.691169095
17.621073,6,0,-7,-10,80,-15,-6,-16,0.691169095
17.621153,-9,-28,-8,-40,-5,-5,6,0,0.691169095
17.642321,17,27,-2,4,8,12,-9,14,0.691169095
17.642346,24,-32,-1,4,-12,11,7,-26,0.691169095
17.644418,-20,13,6,11,24,0,-3,24,0.691169095
17.644432,-8,-16,-1,4,-16,-45,-9,-3,0.691169095
17.656547,-11,6,0,-8,-23,5,4,7,0.648067096
17.656568,-22,-2,2,-20,19,2,-9,-39,0.648067096
17.663308,-10,5,7,8,-5,-7,15,-11,0.648067096
17.663326,80,-35,-10,-5,43,-11,-5,4,0.648067096
17.680366,-54,-13,-5,0,-34,20,-2,-16,0.648067096
17.680409,-2,-9,0,-7,-11,-21,2,-24,0.648067096
17.683154,0,-2,-1,-5,-15,-9,-5,31,0.648067096
17.683168,-25,27,5,7,24,19,14,-24,0.648067096
17.702287,37,21,5,-3,-10,-25,-12,13,0.648067096
17.702304,-5,-75,-7,-4,31,11,-8,-18,0.648067096
17.703863,-7,77,-3,1,-17,-5,-3,-18,0.648067096
17.703955,12,3,-4,1,-3,47,0,-8,0.648067096
17.717091,11,10,-3,3,16,11,6,6,0.648067096
17.717106,-31,17,2,-3,-29,-2,4,1,0.648067096
17.725369,13,-5,3,-25,-15,18,0,14,0.648067096
17.725376,-1,-1,0,30,-34,-1,-1,10,0.648067096
17.740061,-6,7,4,13,31,3,5,43,0.648067096
17.740087,9,34,-3,9,55,11,-1,61,0.648067096
17.741900,-4,-27,-6,-17,-59,-5,9,32,0.648067096
17.741912,-16,14,3,-8,-32,-47,-13,8,0.648067096
17.762081,-29,-14,-4,-7,37,57,8,-31,0.648067096
17.762122,-15,-5,11,28,-18,-16,12,-5,0.648067096
17.763551,69,-10,-12,-1,68,56,-32,-40,0.648067096
17.763560,-32,-7,-10,-17,-20,-32,-9,-1,0.648067096
17.776867,14,23,-1,6,31,-7,-2,-55,0.648067096
17.776878,-3,14,1,-5,-15,8,-12,1,0.648067096
17.783240,-4,-12,5,4,-1,8,-1,21,0.648067096
17.783259,-3,1,0,-2,-17,3,5,0,0.648067096
17.799813,-23,-12,-3,1,-20,-21,-3,-21,0.648067096
17.799831,13,-5,-4,-5,-4,25,-10,-7,0.648067096
17.801536,-26,2,0,9,-5,-19,3,-19,0.648067096
17.801546,8,2,-2,-12,11,-32,-2,34,0.648067096
17.822270,17,8,6,3,-17,22,9,6,0.648067096
17.822283,-14,-51,-13,-27,14,7,-5,-58,0.648067096
17.823598,-22,29,0,24,78,16,14,7,0.648067096
17.823612,-10,13,-6,-22,-89,-36,-9,-18,0.648067096
17.836509,17,-37,-6,8,44,-43,-2,13,0.648067096
17.836527,17,6,3,-15,-6,-16,-11,25,0.648067096
17.843426,-18,-12,4,1,-34,-14,-1,-25,0.648067096
17.843487,8,56,4,5,42,47,7,9,0.648067096
17.859959,-8,-24,2,-2,-56,-18,-13,4,0.648067096
17.859994,0,-3,-1,7,41,21,0,-2,0.648067096
17.861336,-17,-4,-4,-17,-48,-27,-2,-7,0.648067096
17.861341,47,24,6,31,39,-6,-6,6,0.648067096
17.882378,-48,-37,-7,-39,-25,-13,-4,35,0.648067096
17.882405,13,1,0,38,-29,-18,7,3,0.648067096
17.884794,-16,-50,-3,-3,68,50,2,-18,0.648067096
17.884808,-16,44,0,-1,-34,-6,2,-9,0.648067096
17.895855,4,2,2,0,1,1,6,-5,0.648067096
17.895874,3,-1,-3,-17,-11,-7,-8,7,0.648067096
17.907059,8,0,3,2,-20,17,-1,-12,0.667211521
17.907066,31,-9,-1,7,-82,34,10,-7,0.667211521
17.919842,-46,-7,-7,-17,-20,-51,-16,-17,0.667211521
17.919864,-33,0,-2,-2,37,23,9,26,0.667211521
17.921301,64,-14,1,1,-55,-21,-5,56,0.667211521
17.921319,-8,-64,-3,-22,53,-33,6,-7,0.667211521
17.942342,-14,-8,-5,23,27,17,0,32,0.667211521
17.942376,-20,1,0,-9,-21,-1,-1,-64,0.667211521
17.944010,-5,12,2,-2,-18,-29,-3,18,0.667211521
17.944016,-11,-16,2,-2,6,23,-3,-13,0.667211521
17.955908,10,-4,-1,21,-18,-10,-4,-76,0.667211521
17.955926,4,23,2,6,106,17,-2,27,0.667211521
17.966346,-54,-11,-10,-21,-55,21,15,-10,0.667211521
17.966361,16,-62,-4,-2,-35,-40,-21,10,0.667211521
17.980596,13,25,-3,-6,-22,13,0,-31,0.667211521
17.980607,-6,12,2,1,53,-10,-3,15,0.667211521
17.981119,34,1,3,13,-10,13,9,-13,0.667211521
17.981134,-5,12,0,-13,12,9,4,8,0.667211521
18.002180,42,6,1,10,24,22,-7,28,0.667211521
18.004067,-84,-37,1,-3,-48,-23,0,-24,0.667211521
18.004079,-8,6,0,-13,14,-3,-2,18,0.667211521
18.004081,-60,-31,-4,-8,-60,-10,-10,-38,0.667211521
18.016116,58,39,-1,5,110,28,-11,13,0.667211521
18.016135,31,16,1,10,-23,5,23,21,0.667211521
18.026532,2,-38,-7,-8,16,-34,4,-32,0.667211521
18.026543,-9,17,3,4,22,38,13,13,0.667211521
18.039755,-67,-30,4,-4,25,-15,9,-32,0.667211521
18.039816,42,-13,-4,-23,-82,8,-3,88,0.667211521
18.041122,5,16,2,6,-10,-20,6,19,0.667211521
18.041178,16,17,7,6,3,-11,-7,-1,0.667211521
18.062626,-9,-29,-2,-7,-71,1,0,-7,0.667211521
18.062653,-24,36,-3,-3,70,4,-7,-31,0.667211521
18.065261,30,7,-5,2,-19,-17,-14,3,0.667211521
18.065274,-15,-19,3,0,41,22,6,51,0.667211521
18.075901,0,17,2,-15,-34,-22,-5,7,0.667211521
18.075939,45,-19,-6,23,49,12,-7,-19,0.667211521
18.086349,-18,43,1,-6,-15,-62,6,0,0.667211521
18.086362,-13,-9,-6,-12,21,46,0,-7,0.667211521
18.099664,37,-1,3,-1,13,14,3,1,0.667211521
18.099683,-24,62,1,3,-22,-1,-7,23,0.667211521
18.101201,6,-22,-5,2,23,-6,-9,-22,0.667211521
18.101211,-70,12,-3,0,27,-25,-8,-10,0.667211521
18.122254,26,-46,-8,-3,-45,8,4,17,0.667211521
18.122271,1,-19,0,-10,-26,-1,9,-58,0.667211521
18.123580,14,17,3,1,-20,24,-18,-9,0.667211521
18.123595,-6,0,0,-1,-28,-47,5,3,0.667211521
18.137554,8,28,-4,1,0,7,-6,16,0.667211521
18.137566,-7,-41,-3,0,-1,-11,-19,-16,0.667211521
18.146041,-23,-24,-3,2,20,25,4,-2,0.667211521
18.146055,-8,2,-1,-5,-2,2,6,-58,0.667211521
18.160467,37,17,4,1,0,-23,-14,35,0.670348176
18.160490,-3,-4,-5,16,-22,1,-1,-15,0.670348176
18.161712,-12,-12,-4,-8,23,-7,5,16,0.670348176
18.161718,9,2,3,-4,-29,-1,-4,1,0.670348176
18.183664,2,-8,-1,26,-10,19,8,-8,0.670348176
18.183677,0,14,3,-10,-26,-2,-4,3,0.670348176
18.183733,-6,-3,-1,3,39,-2,14,-16,0.670348176
18.183759,17,-33,-2,7,6,11,7,-45,0.670348176
18.196236,-29,22,-11,-34,-20,-10,0,9,0.670348176
18.196268,7,-22,0,11,28,2,3,17,0.670348176
18.205900,-7,9,0,-1,-19,1,-6,-12,0.670348176
18.205907,-3,-2,-1,-1,2,0,-9,-23,0.670348176
18.219930,-7,10,9,4,8,-8,9,8,0.670348176
18.219993,10,-5,-8,-12,26,-7,-6,-12,0.670348176
18.221120,19,-43,-3,0,-6,-5,4,10,0.670348176
18.221136,-11,-24,-3,-4,-12,34,-10,-37,0.670348176
18.242333,-13,-5,-1,7,38,-23,5,-8,0.670348176
18.242358,-8,6,-2,-6,-10,-31,-9,-5,0.670348176
18.244353,5,10,2,-2,7,-2,-14,-4,0.670348176
18.244367,20,12,2,7,-34,9,1,60,0.670348176
18.255969,6,-13,5,9,-14,-21,-7,0,0.670348176
18.255993,13,11,3,-7,5,45,5,9,0.670348176
18.266789,-51,-37,-1,-2,-4,-7,-7,-50,0.670348176
18.266804,26,11,-4,5,45,-13,-3,36,0.670348176
18.279736,-23,-3,0,-9,-79,-2,12,-13,0.670348176
18.279794,20,11,-3,-7,16,-42,10,8,0.670348176
18.281153,13,4,-5,12,-3,45,-15,-8,0.670348176
18.281171,1,15,-1,-12,23,-11,6,22,0.670348176
18.302143,-46,-28,0,-9,39,45,-3,2,0.670348176
18.302161,-13,25,1,5,-10,5,4,-30,0.670348176
18.304193,3,-7,1,-2,-35,-16,0,-14,0.670348176
18.304209,11,-29,-6,4,14,-17,7,-37,0.670348176
18.324913,37,17,1,2,22,40,-10,46,0.670348176
18.324921,20,1,-1,-7,-67,-68,21,21,0.670348176
18.326035,-2,17,4,-4,49,2,-1,-8,0.670348176
18.326071,-6,39,-2,9,12,12,2,36,0.670348176
18.340051,5,0,1,-1,28,-7,-6,-30,0.670348176
18.340063,-24,-40,-7,-7,13,14,-12,-5,0.670348176
18.341049,-4,31,3,2,-98,-15,3,14,0.670348176
18.341059,-6,-9,7,17,-79,-8,10,22,0.670348176
18.362242,57,39,-5,9,-11,-18,-11,-50,0.670348176
18.362259,-19,-32,-10,-21,-10,16,-6,38,0.670348176
18.363559,13,24,-3,-6,13,4,1,-5,0.670348176
18.363566,-30,-17,1,3,-14,-16,-13,3,0.670348176
18.384715,-43,14,-3,7,19,14,5,5,0.670348176
18.384736,28,-3,4,0,-3,34,1,-15,0.670348176
18.386292,-24,-9,8,-2,-1,-17,2,24,0.670348176
18.386304,76,27,-16,-7,45,1,-12,-57,0.670348176
18.399864,-2,-38,-3,-2,32,6,1,30,0.670348176
18.399882,-6,-2,2,-3,-48,10,-4,-3,0.670348176
18.401429,12,9,3,-21,-50,7,9,55,0.670348176
18.401445,-15,10,3,25,32,17,-16,-7,0.670348176
18.422107,-9,-24,-2,7,38,-20,16,23,0.674061691
18.422145,0,-13,-5,-17,-31,5,-8,-6,0.674061691
18.423568,-14,-8,-6,4,20,-6,-4,-10,0.674061691
18.424445,-3,9,2,-22,-19,-14,1,22,0.674061691
18.445037,0,18,1,15,-7,8,4,-33,0.674061691
18.445061,-5,-5,7,14,12,5,-5,45,0.674061691
18.446499,-35,-5,1,1,-48,-15,-2,-9,0.674061691
18.446504,69,42,-2,-5,63,11,-7,12,0.674061691
18.459025,-64,-52,-5,-9,-11,-2,-6,29,0.674061691
18.459043,36,-6,-4,2,9,-11,-1,-7,0.674061691
18.465812,21,-10,-2,-14,-44,-20,18,25,0.674061691
18.465833,-30,22,5,25,-4,23,4,-3,0.674061691
18.482239,-3,42,1,-10,-6,-15,-6,-30,0.674061691
18.482257,-5,-1,1,-6,-72,-5,-8,15,0.674061691
18.483789,-31,2,-6,14,73,12,13,-6,0.674061691
18.483872,-15,-37,4,0,8,3,15,9,0.674061691
18.504721,22,-2,-3,-9,56,3,-8,9,0.674061691
18.504738,-19,0,-3,-2,-66,-25,-14,-41,0.674061691
18.506919,27,8,-2,-10,-5,-5,-21,-38,0.674061691
18.506933,-18,-25,-5,5,-7,0,1,1,0.674061691
18.519035,9,33,-4,0,-2,-19,1,51,0.674061691
18.519055,-11,-1,2,0,41,4,6,-5,0.674061691
18.525916,1,-27,-1,2,21,1,-1,-53,0.674061691
18.525934,27,29,1,-8,-1,-23,-3,23,0.674061691
18.542228,-27,-39,-3,-4,-11,23,2,-19,0.674061691
18.542278,18,11,0,2,36,7,5,10,0.674061691
18.543696,9,12,0,23,27,-10,-3,17,0.674061691
18.543779,-9,-9,-2,-21,-15,27,6,-46,0.674061691
18.565243,32,9,1,-14,-24,-34,-7,-40,0.674061691
18.565264,-70,8,0,5,-14,51,6,-6,0.674061691
18.567038,26,-11,-8,-1,53,-29,-19,0,0.674061691
18.567051,-28,7,-2,-11,-40,0,6,-3,0.674061691
18.579115,-39,-26,-4,3,-23,4,-2,3,0.674061691
18.579135,5,-7,2,0,-13,-13,6,-7,0.674061691
18.586081,-9,-28,2,-1,3,21,-10,14,0.674061691
18.586100,3,-2,-1,0,-12,-17,-17,19,0.674061691
18.603236,-2,18,4,-33,8,20,20,-17,0.674061691
18.603247,-11,-10,-3,44,48,-14,-14,19,0.674061691
18.603612,14,15,-3,-10,-38,-2,-3,35,0.674061691
18.603690,-7,-8,-1,2,-31,-28,-4,-6,0.674061691
18.624969,33,36,-3,-10,-20,-14,-4,70,0.674061691
18.624987,0,-6,2,-11,-3,15,6,-21,0.674061691
18.627246,-4,18,-1,-12,37,6,8,17,0.674061691
18.627254,-33,-31,-2,10,19,-4,-1,25,0.674061691
18.638995,13,4,-4,16,58,-2,2,-8,0.674061691
18.639013,1,29,-6,-37,-77,-15,-1,51,0.674061691
18.646099,-3,-18,-2,23,24,35,-4,-11,0.674061691
18.646129,4,8,-1,-10,7,-39,-10,-12,0.674061691
18.662468,-18,5,0,-1,-19,24,1,-46,0.674061691
18.662493,2,8,-1,-15,-34,-2,-10,-16,0.674061691
18.664752,18,-8,3,23,32,0,8,-14,0.674061691
18.664766,-61,-17,-2,-5,31,24,2,49,0.674061691
18.684604,54,-17,-8,4,-16,1,-8,-22,0.682448643
18.684630,22,-3,-1,-4,17,-22,-4,-1,0.682448643
18.686294,-21,6,2,-18,-76,-17,6,6,0.682448643
18.686316,-13,-7,-2,19,-10,57,-8,-28,0.682448643
18.699291,-14,10,5,-10,23,-83,-13,15,0.682448643
18.699310,23,-56,-3,4,18,33,15,33,0.682448643
18.705735,-29,-4,-5,-6,-5,-9,2,41,0.682448643
18.705754,33,12,0,1,32,0,8,45,0.682448643
18.722337,-13,9,0,6,-15,18,6,-6,0.682448643
18.722362,-21,-9,1,-6,14,-23,0,-29,0.682448643
18.724772,8,15,3,6,0,24,-2,-32,0.682448643
18.724781,-5,-12,-1,-16,37,12,-11,-12,0.682448643
18.744729,10,-2,5,4,-26,-17,4,10,0.682448643
18.744738,-4,14,0,7,70,17,0,-13,0.682448643
18.746181,-1,4,-4,-2,39,39,2,-2,0.682448643
18.746188,-48,11,-5,9,-42,-10,-11,-33,0.682448643
18.759527,14,-28,0,-11,-17,-3,-4,11,0.682448643
18.759538,5,-21,-5,4,21,-5,-7,-19,0.682448643
18.765943,9,5,1,-5,-39,-14,-3,13,0.682448643
18.765961,30,5,6,1,11,-12,8,-26,0.682448643
18.782313,-17,49,-12,-16,-6,2,-8,36,0.682448643
18.782332,-13,-34,9,42,19,-17,2,9,0.682448643
18.784133,30,18,-6,-7,43,-36,-5,6,0.682448643
18.784147,-1,-8,2,-5,-30,38,4,-15,0.682448643
18.806969,-15,-7,4,-4,-20,-10,-11,-2,0.682448643
18.806978,2,26,0,13,-3,-2,9,-53,0.682448643
18.806982,-25,-6,-3,-19,20,36,13,56,0.682448643
18.806984,19,-5,-7,5,-38,-10,2,-19,0.682448643
18.818303,12,-3,6,8,-9,6,3,-13,0.682448643
18.818321,-1,7,-2,0,-12,25,-4,-6,0.682448643
18.828946,-25,17,-1,9,12,20,-3,-39,0.682448643
18.828952,36,19,-2,-21,-32,-42,-6,17,0.682448643
18.842423,-9,-8,-4,3,21,9,-1,-29,0.682448643
18.844240,-8,-21,0,-29,-40,-6,-1,1,0.682448643
18.844257,-8,20,1,27,42,20,-7,2,0.682448643
18.844263,21,-31,-6,-10,27,-9,4,5,0.682448643
18.864914,64,2,-1,7,4,0,-2,-2,0.682448643
18.864939,-2,13,2,-7,-8,-5,-4,-24,0.682448643
18.866859,-20,-64,1,-16,-27,-34,1,-13,0.682448643
18.866872,-6,49,-2,-5,1,33,-4,43,0.682448643
18.878393,-11,-18,8,-2,48,-27,8,-3,0.682448643
18.878410,12,37,-6,7,-12,-5,-5,-7,0.682448643
18.888898,15,-22,-2,-5,-40,-32,-5,-18,0.682448643
18.888910,-15,-22,3,9,14,5,3,-12,0.682448643
18.902117,-32,-2,-4,-33,7,24,4,-18,0.682448643
18.902142,-5,16,1,24,11,14,-10,-24,0.682448643
18.903781,-10,7,-5,-20,-60,-60,10,-12,0.682448643
18.903799,-5,30,-2,4,17,-16,-10,69,0.682448643
18.924932,13,-26,-2,7,-25,1,-5,-3,0.682448643
18.924957,11,-5,-4,-10,8,-29,-6,-8,0.682448643
18.926580,25,39,0,2,-8,27,-2,3,0.682448643
18.926591,-31,-3,2,-3,-11,-3,7,-43,0.682448643
18.938828,-39,-3,-1,12,-18,-1,-4,-27,0.695067383
18.938862,59,6,-3,-6,17,-4,6,99,0.695067383
18.948595,-82,-8,2,-3,-12,5,-5,-27,0.695067383
18.948614,59,-2,-4,-3,11,-6,3,-4,0.695067383
18.962936,40,-46,-3,5,18,11,-1,-3,0.695067383
18.962946,-16,-21,1,-4,-19,9,-9,-27,0.695067383
18.963513,-42,-26,-8,-7,10,-12,5,11,0.695067383
18.963521,-21,4,2,8,46,25,9,-9,0.695067383
18.984721,-3,13,-3,-17,-35,4,1,-23,0.695067383
18.984750,16,41,4,12,31,-42,4,49,0.695067383
18.986757,22,-52,-1,-24,-42,65,-16,3,0.695067383
18.986767,-1,1,-2,1,16,-11,-1,-37,0.695067383
18.998649,1,7,-5,10,2,6,-1,41,0.695067383
18.998684,-11,8,-2,-11,56,9,-12,-37,0.695067383
19.009494,15,29,3,1,-73,7,-15,-30,0.695067383
19.009501,-26,-38,-3,-8,-9,-31,-3,-47,0.695067383
19.023654,8,-9,-6,27,26,33,10,54,0.695067383
19.023667,-58,-13,0,-12,-24,-20,6,1,0.695067383
19.023670,88,-13,-5,-11,22,-22,-5,-31,0.695067383
19.023673,-18,24,0,11,-18,3,-5,-32,0.695067383
19.045241,-50,8,8,14,44,-31,-4,-27,0.695067383
19.045323,34,-1,-3,-35,-93,49,19,6,0.695067383
19.047422,-35,5,-2,25,58,-38,0,25,0.695067383
19.047432,0,19,-2,-12,-9,-4,0,14,0.695067383
19.058494,3,-8,3,2,-11,-25,-16,0,0.695067383
19.058518,4,16,-1,-8,53,7,1,21,0.695067383
19.068508,20,-29,-2,-3,-52,-15,-4,2,0.695067383
19.068524,13,19,0,0,-10,6,8,14,0.695067383
19.082407,-35,-11,0,0,-20,2,-5,-8,0.695067383
19.082435,-5,-6,-6,-2,16,9,-9,-21,0.695067383
19.084638,12,6,1,3,1,-8,3,-18,0.695067383
19.084650,-26,9,2,8,-24,-21,-10,-23,0.695067383
19.112361,43,1,2,-14,32,76,-20,-23,0.695067383
19.112378,-21,16,0,0,-56,-24,17,14,0.695067383
19.114493,6,-10,-7,-5,3,-12,6,-21,0.695067383
19.114505,-3,18,-2,0,-2,-4,2,56,0.695067383
19.118381,3,-2,2,4,-26,-16,10,5,0.695067383
19.118409,18,-16,-2,4,25,-7,-10,-5,0.695067383
19.129380,-20,15,2,-5,18,13,0,20,0.695067383
19.129387,19,-21,0,-4,-8,-5,1,-22,0.695067383
19.142471,-9,39,0,8,-18,-11,-3,14,0.695067383
19.142504,-9,-32,-2,11,18,-2,-5,7,0.695067383
19.144225,-3,40,2,-5,6,1,3,17,0.695067383
19.144235,6,-37,-4,-15,-3,13,3,9,0.695067383
19.164712,-3,16,-1,4,3,-30,1,-19,0.695067383
19.164739,8,-16,-3,1,-25,5,-2,-10,0.695067383
19.166252,24,11,3,8,56,1,1,3,0.695067383
19.166271,17,-15,-1,-3,9,9,-8,-12,0.695067383
19.180590,-48,1,0,-7,22,28,3,30,0.695067383
19.180605,-25,-45,-2,3,36,-19,-4,-38,0.695067383
19.188012,27,16,3,-2,62,6,-2,0,0.702039235
19.188024,-49,-34,-7,-10,-41,32,17,7,0.702039235
19.202102,17,32,-3,-3,-5,-13,5,17,0.702039235
19.202119,-7,24,2,-3,-1,1,-6,-30,0.702039235
19.203854,-17,-8,4,9,2,-10,-3,15,0.702039235
19.203877,-2,4,0,4,18,16,-8,-72,0.702039235
19.224996,16,2,-1,-1,-20,-5,0,-14,0.702039235
19.225028,-12,-5,-2,-6,-19,-19,-4,-3,0.702039235
19.227507,2,-18,-2,-5,-32,2,-3,13,0.702039235
19.227515,17,-36,0,22,6,-16,-7,45,0.702039235
19.247554,-2,-13,-2,-7,1,5,-6,-3,0.702039235
19.247574,9,2,-3,3,21,-53,-3,0,0.702039235
19.250403,-9,-3,2,-18,-9,35,-5,-9,0.702039235
19.250417,1,13,-2,5,62,-20,7,44,0.702039235
19.262583,32,-46,-8,-10,-38,-15,-2,0,0.702039235
19.262611,-11,12,6,22,67,5,1,7,0.702039235
19.264612,35,-38,-2,1,-59,-26,15,60,0.702039235
19.264632,-12,34,0,-16,-13,23,10,-14,0.702039235
19.284816,7,23,1,-3,17,-19,2,8,0.702039235
19.284834,18,-2,-2,-10,-18,58,1,-28,0.702039235
19.286288,-31,7,-3,-11,-53,-41,-10,-12,0.702039235
19.286377,-17,2,2,18,24,-6,-6,-17,0.702039235
19.307283,22,-19,-2,3,-4,3,6,-9,0.702039235
19.307296,11,-1,-5,-7,-6,-6,-7,-25,0.702039235
19.308672,-28,30,3,3,-2,14,1,3,0.702039235
19.308712,66,-17,3,4,59,-23,-6,-6,0.702039235
19.322067,-45,42,-11,-13,-30,23,6,-25,0.702039235
19.322100,4,-18,-4,2,-17,-26,-16,12,0.702039235
19.324353,15,5,0,-2,7,6,-6,-16,0.702039235
19.324369,-9,7,3,6,-28,-4,-16,55,0.702039235
19.344254,-21,4,5,17,-22,12,13,-27,0.702039235
19.344288,45,12,-5,-22,9,24,-2,41,0.702039235
19.346660,-10,-2,-5,12,45,-3,0,0,0.702039235
19.346673,4,23,-2,-10,-34,-51,3,9,0.702039235
19.368189,-2,-8,1,-8,52,-10,-1,-38,0.702039235
19.368205,-37,-35,0,-5,-43,19,1,15,0.702039235
19.368208,3,-1,3,-2,-43,-8,4,-26,0.702039235
19.368211,-35,-5,-1,-2,5,73,-12,17,0.702039235
19.383723,2,-45,-13,-15,-34,-25,-12,16,0.702039235
19.383739,-17,45,1,2,18,-7,9,-16,0.702039235
19.389329,-2,6,-4,0,-20,-28,-3,-1,0.702039235
19.389362,-15,-13,1,-7,-18,-8,2,-6,0.702039235
19.403928,-11,-4,8,8,8,2,0,9,0.702039235
19.404008,-24,13,7,1,-26,8,0,-18,0.702039235
19.404731,32,23,-11,13,51,11,1,-21,0.702039235
19.404747,29,-17,-9,-14,-31,-12,0,-3,0.702039235
19.426825,-4,0,4,10,10,14,3,2,0.702039235
19.426857,17,-4,2,12,-1,-23,-1,13,0.702039235
19.428902,-28,20,2,4,8,17,1,-15,0.702039235
19.428911,0,1,-1,-7,-8,1,3,-38,0.702039235
19.442019,4,-44,-2,-23,-26,-6,-6,18,0.702458358
19.442061,-1,52,-5,25,8,-34,14,-9,0.702458358
19.444567,-21,-55,2,-11,-11,29,-4,10,0.702458358
19.444583,19,13,2,-7,-46,-55,-4,13,0.702458358
19.464434,14,-19,-7,5,66,17,-1,-9,0.702458358
19.464459,-11,11,1,-10,17,55,-8,-35,0.702458358
19.465075,5,-6,-2,-3,-8,-4,-8,7,0.702458358
19.465162,5,3,1,-10,9,-21,-4,-11,0.702458358
19.486551,2,18,3,3,-9,-13,9,-4,0.702458358
19.486571,-40,-54,-6,-7,-26,1,-4,-8,0.702458358
19.487876,53,-18,-7,-3,10,0,-9,-27,0.702458358
19.487941,-15,-6,-3,-7,4,3,-3,45,0.702458358
19.501525,-2,23,3,10,-10,-15,1,-4,0.702458358
19.501543,2,4,2,-1,1,6,3,8,0.702458358
19.503171,-8,10,12,2,-17,-13,2,16,0.702458358
19.503185,-46,-14,-13,-8,-30,17,9,-13,0.702458358
19.523868,7,-29,1,7,28,-11,-18,-41,0.702458358
19.523879,77,11,6,-16,34,-12,-5,19,0.702458358
19.524687,-78,-4,-9,-3,-81,41,-11,1,0.702458358
19.524717,-21,-33,0,14,98,13,-1,-14,0.702458358
19.546583,23,10,-1,-9,16,13,11,12,0.702458358
19.546630,-20,54,-7,-16,-61,-16,-10,-53,0.702458358
19.549081,20,-25,1,6,-23,-10,3,5,0.702458358
19.549094,10,9,1,2,-9,8,-5,-18,0.702458358
19.561552,-11,-18,-5,-8,-36,-3,-6,6,0.702458358
19.561568,-7,-7,2,8,0,-8,3,18,0.702458358
19.563316,47,-2,-3,-1,28,-4,2,51,0.702458358
19.563323,-9,4,2,3,-12,4,2,-26,0.702458358
19.584880,-12,-1,-4,-1,-1,-7,-4,-22,0.702458358
19.584893,-3,30,5,5,-7,3,5,53,0.702458358
19.584896,2,1,-4,1,18,-26,12,-20,0.702458358
19.584900,-22,-32,-1,-11,-3,30,-10,59,0.702458358
19.606720,-1,38,3,5,-16,3,1,6,0.702458358
19.606739,-9,-20,-6,-10,9,3,0,-4,0.702458358
19.608240,-36,-2,-1,-1,10,-13,-1,-2,0.702458358
19.608246,25,10,10,35,-41,-12,3,-58,0.702458358
19.621904,18,41,-6,-3,18,8,-4,20,0.702458358
19.621937,-11,-61,-8,-12,-32,3,4,13,0.702458358
19.623320,3,-28,-1,-3,37,-3,-8,-5,0.702458358
19.623326,-10,-5,-2,-23,-28,-17,8,1,0.702458358
19.644471,8,28,2,6,0,17,0,10,0.702458358
19.644496,34,-4,-1,5,12,20,-3,2,0.702458358
19.646684,-16,0,2,-2,-13,-9,1,-13,0.702458358
19.646692,21,1,-3,-26,11,-1,-4,1,0.702458358
19.666790,14,2,2,7,-38,17,-4,0,0.702458358
19.666816,-19,-12,-3,27,74,4,4,28,0.702458358
19.667287,41,40,0,-8,-17,-6,-10,-25,0.702458358
19.667305,-1,-27,-5,0,-21,-6,-4,4,0.702458358
19.681756,13,-38,1,-8,19,0,2,35,0.702458358
19.681783,-3,15,4,12,28,3,-10,14,0.702458358
19.683679,12,19,-3,-25,10,18,3,4,0.702458358
19.683690,16,-24,-1,7,14,-11,1,16,0.702458358
19.704076,23,1,5,-2,-47,-22,4,-13,0.679897858
19.704100,-57,-42,-2,6,-14,-9,-11,-9,0.679897858
19.705843,-8,28,1,13,43,-29,-7,10,0.679897858
19.705853,-56,-3,-2,-9,-66,-26,2,-62,0.679897858
19.726575,21,-3,-4,-1,21,21,-2,2,0.679897858
19.726615,3,-14,-1,-9,-2,-23,8,-30,0.679897858
19.727240,1,11,1,-22,-98,37,9,-13,0.679897858
19.727286,14,32,2,15,45,-38,-7,14,0.679897858
19.741427,-21,-21,-5,-6,94,-5,11,0,0.679897858
19.741445,3,21,-7,2,-10,-10,-1,-19,0.679897858
19.743501,17,-30,-6,-5,-11,-15,-2,8,0.679897858
19.743507,1,-2,-1,4,8,20,-5,-21,0.679897858
19.764261,-11,-17,-2,-5,-48,-9,-2,-2,0.679897858
19.764296,7,6,1,-15,-6,-8,-2,-12,0.679897858
19.766705,-4,10,7,21,34,8,2,-37,0.679897858
19.766718,11,29,9,8,29,19,4,33,0.679897858
19.786999,12,-41,-24,-39,-66,-40,-32,-92,0.679897858
19.787011,-27,-5,2,12,10,1,-3,79,0.679897858
19.787063,-18,6,-4,-1,-23,-14,2,-18,0.679897858
19.787090,49,5,-3,15,23,48,14,-4,0.679897858
19.802690,-32,-9,5,4,-16,12,12,10,0.679897858
19.802705,22,-32,-2,-11,-30,-28,-1,-31,0.679897858
19.802707,-20,9,2,-13,18,-46,-4,-6,0.679897858
19.802710,29,34,-1,-3,72,56,-5,98,0.679897858
19.824266,-80,-17,-1,5,-2,-11,5,19,0.679897858
19.826131,20,-8,-2,-12,3,41,-5,-16,0.679897858
19.826149,-21,45,0,20,19,10,4,28,0.679897858
19.826155,-10,-57,-5,-16,-50,-48,0,-48,0.679897858
19.846692,17,19,3,7,48,30,-1,22,0.679897858
19.846724,-24,21,4,-10,-78,-3,-6,-48,0.679897858
19.848858,-33,22,-5,-1,-10,-9,-15,8,0.679897858
19.848872,9,-5,-4,-5,-3,2,-7,-9,0.679897858
19.861338,12,-8,-2,-10,2,-16,2,21,0.679897858
19.861376,-4,17,3,20,-1,-3,8,-5,0.679897858
19.869069,10,-16,-1,-7,13,15,-2,8,0.679897858
19.869088,-23,0,1,8,2,-8,1,10,0.679897858
19.883892,4,5,2,10,-15,-10,2,-18,0.679897858
19.883909,53,11,6,-13,-77,-3,-3,4,0.679897858
19.884688,-31,-69,-5,20,64,9,-7,95,0.679897858
19.884723,22,-9,-1,-12,-15,-17,-7,1,0.679897858
19.914584,-31,68,-4,6,65,42,-1,12,0.679897858
19.914605,27,-28,-3,-12,-28,-41,-10,-4,0.679897858
19.915534,23,12,0,11,19,25,6,-26,0.679897858
19.915553,4,0,1,-1,-26,-8,10,58,0.679897858
19.921145,-54,11,7,8,-11,-3,4,18,0.679897858
19.921174,-26,-39,-9,-6,58,24,-7,-3,0.679897858
19.929089,5,-3,1,-6,-23,-11,20,-7,0.679897858
19.929131,4,14,-3,-21,17,17,-17,-16,0.679897858
19.943901,-9,1,3,13,-36,-60,-9,16,0.679897858
19.943912,-9,44,-1,-11,31,26,12,30,0.679897858
19.944637,-5,-34,-1,12,-10,8,-2,-38,0.679897858
19.944755,-3,-22,-4,-4,-30,12,18,24,0.679897858
19.966577,15,16,1,-15,-42,-6,0,-14,0.674994577
19.967825,-38,14,6,17,-31,-25,13,0,0.674994577
19.967836,78,-32,-5,-25,-12,-13,-4,50,0.674994577
19.967839,0,0,-9,2,3,5,-13,52,0.674994577
19.981041,19,37,-2,-6,-16,3,7,2,0.674994577
19.981072,-9,-4,0,11,-1,-7,9,-41,0.674994577
19.989040,7,14,6,11,10,37,2,-10,0.674994577
19.989058,-27,32,1,-6,-23,-90,-12,-36,0.674994577
20.005445,-9,-76,-5,-9,0,44,4,-2,0.674994577
20.005457,18,27,-5,16,34,31,-4,-55,0.674994577
20.005460,-40,7,3,6,17,-29,-18,-27,0.674994577
20.005463,17,20,7,-3,-16,22,-3,-29,0.674994577
