Timestamp_ms,Channel_0,Channel_1,Channel_2,Channel_3,Channel_4,Channel_5,Channel_6,Channel_7
154,0,0,0,0,0,0,0,0
183,0,0,0,0,0,0,0,0
237,0,0,0,0,0,0,0,0
304,-1,88,-53,-6,-7,-3,-1,-16
361,-1,-70,13,3,-2,1,4,-6
425,-1,-65,54,-1,-16,-5,7,-5
486,3,-109,45,1,10,2,2,-22
548,2,-59,59,0,-2,-3,-26,-18
610,1,22,-19,2,2,1,21,14
671,-1,22,2,5,1,2,-1,-1
722,-1,33,-18,8,11,10,34,5
774,0,-47,15,1,2,-4,9,-5
827,2,11,-4,-9,-4,-3,-6,3
884,0,9,18,3,5,-1,3,0
933,2,-64,-22,-4,-1,-3,-13,-1
989,6,41,45,13,7,2,-10,2
1051,1,-37,24,8,11,2,-12,-3
1115,8,-23,41,-2,-3,0,-3,-2
1174,-2,7,23,-2,-3,-1,5,-2
1233,4,-52,-21,-5,-4,-2,1,0
1287,-8,92,-20,7,5,1,-9,-6
1337,-5,20,24,6,10,5,-2,0
1397,4,53,7,5,5,2,8,-5
1458,3,-19,4,4,3,2,-2,3
1508,-2,-34,15,6,2,3,11,4
1571,-11,-64,0,8,15,7,5,17
1636,-15,-14,-8,4,3,-1,-20,-5
1700,-10,4,22,4,6,3,-10,28
1758,1,-65,-20,-10,-21,-7,-23,-6
1810,-2,-105,28,-2,-1,0,13,13
1872,-5,-23,23,5,5,0,-13,-14
1936,-1,63,11,-5,-10,0,16,4
1997,-10,-54,-18,-3,1,1,0,-17
2058,-6,-70,-5,-1,-5,-1,6,-8
2118,-7,-36,-4,3,4,-1,-14,-8
2178,-3,-51,3,5,6,-2,2,-6
2231,-8,46,-33,-4,2,-1,-28,-9
2295,-1,-2,-16,-3,-6,-5,-7,-5
2358,3,-27,-2,-5,-7,-1,-1,3
2417,-2,38,41,0,-5,-1,1,-8
2477,3,37,-20,-6,-15,-3,-19,-2
2528,-7,-45,-10,1,-1,-1,-6,-40
2583,2,70,-64,-10,-4,-1,0,-3
2633,-1,37,-66,-3,0,-2,-5,-2
2689,32,-9,-50,-4,5,0,-20,-31
2740,-8,22,48,9,8,3,14,0
2797,-2,-15,-10,-2,-11,-5,-2,-19
2861,1,10,-12,4,8,5,24,1
2922,0,5,-3,-4,-4,0,11,16
2981,-4,8,29,1,0,0,1,11
3033,-13,0,-27,0,6,2,12,17
3094,8,-26,-4,10,15,5,-8,-26
3158,3,22,8,-1,-6,-3,2,6
3222,-12,59,14,3,7,2,2,9
3280,-16,44,42,4,0,-1,14,32
3331,-11,38,-21,4,14,3,-8,7
3385,-1,48,45,8,12,5,-3,-21
3438,0,-9,9,-2,-1,2,4,10
3489,8,81,13,0,-2,1,7,-2
3541,-10,44,3,-1,-3,-2,-3,-9
3599,11,-49,-5,2,4,0,-4,-21
3661,14,9,-26,0,0,1,-2,-13
3722,-19,-36,-4,5,4,2,8,14
3773,-14,-73,-22,-1,-3,3,17,5
3827,-2,-30,35,3,-2,0,0,-4
3879,-9,22,7,-6,-12,-4,-4,-5
3932,-21,62,9,3,11,5,1,4
3985,-9,10,77,6,-4,-5,-5,-12
4040,-1,31,41,7,-4,-5,-3,6
4105,-1,30,-6,2,8,1,-6,-4
4165,12,-15,-24,-14,-22,-14,-6,-11
4225,7,-73,-29,0,3,1,3,17
4278,-7,-52,-22,-3,-7,-5,-2,-2
4329,-5,78,-5,-2,-3,-2,0,-10
4384,6,-37,24,-1,-3,-2,7,-8
4442,-52,19,35,-14,-33,-11,6,-27
4500,8,16,-35,-2,6,3,20,26
4547,13,61,-29,4,6,-1,-17,5
4599,-11,-6,12,10,-1,-6,-13,7
4652,7,4,-15,-4,-5,-1,3,15
4707,19,-10,-10,-3,-1,-1,0,11
4764,-17,46,-25,2,7,2,-5,-21
4827,-3,8,24,1,-1,3,16,10
4885,-39,-12,-2,-1,1,4,5,-15
4941,13,-46,-22,-4,1,-11,-17,-51
4989,14,-6,-28,-3,-7,-2,1,7
5042,6,33,2,-12,-14,-5,3,16
5093,-4,10,-7,-4,-57,-7,-10,-4
5148,-1,-63,-12,0,3,-1,-14,-23
5202,-4,24,1,3,17,-7,-8,-10
5265,-1,33,-10,2,8,1,-9,-7
5327,0,8,10,19,8,6,5,10
5392,-1,-50,2,8,12,0,2,-10
5448,1,16,-31,1,2,-1,1,-5
5500,-4,-39,-21,-15,-13,-3,-4,15
5557,1,26,18,-4,-8,-3,0,1
5606,-2,-54,20,-2,-3,-1,-23,-35
5659,3,-13,-15,0,-3,-1,-5,-37
5709,1,24,0,-19,-71,-7,5,-3
5761,-2,82,-10,3,8,4,7,8
5815,-3,-1,31,7,3,3,4,2
5868,-2,-31,-7,-2,0,-7,-4,-10
5925,-1,-29,-9,1,-4,1,7,5
5987,1,17,1,7,-4,3,5,22
6048,1,21,3,0,-8,-4,-7,5
6107,-6,-64,-8,-11,-5,-9,-16,-58
6167,-2,-9,29,3,-11,-1,-5,-23
6219,-2,26,8,-3,-6,0,6,12
6273,0,-13,17,-2,4,1,3,-5
6323,-5,-41,-3,-2,-8,0,-4,5
6378,5,-14,0,3,2,0,-15,-18
6436,2,-85,11,3,-8,-1,-7,-27
6487,-1,-19,8,-1,-5,-5,2,-2
6551,-4,17,-18,1,2,0,6,15
6610,1,-31,-1,3,5,2,4,-2
6660,3,19,14,1,-4,3,1,13
6724,3,23,14,11,7,4,-14,-28
6787,4,55,-4,3,1,2,8,18
6850,0,19,0,-19,-40,-9,-9,3
6910,-4,73,8,8,35,1,1,13
6962,-2,37,11,1,-8,-1,5,6
7018,2,26,43,8,7,-2,-5,-4
7067,1,16,17,5,12,6,4,39
7121,-2,-101,-22,-20,-49,-13,-16,-31
7176,-1,0,-21,-15,-13,-7,-9,-15
7231,-2,30,-7,-4,-6,-4,-10,-19
7293,8,-1,0,-2,-7,-5,-2,10
7353,-1,5,9,3,1,-1,-4,24
7405,2,-4,-5,-1,3,0,-4,-10
7466,0,66,68,22,30,14,17,39
7529,-2,-20,-19,-5,3,-1,-9,-18
7592,2,-15,-24,1,-11,-3,-13,-14
7654,-2,-39,-10,-6,-2,-3,-2,1
7703,0,-106,7,8,0,2,-2,-8
7766,-3,-4,-6,5,13,5,14,10
7829,0,70,24,-1,-3,-3,-5,-2
7890,-3,49,19,12,14,4,-5,-11
7952,0,18,-12,2,-5,-1,-2,4
8013,-4,72,30,0,-7,-3,6,5
8066,-7,-85,72,8,6,2,1,2
8121,-1,1,-6,-13,-16,-8,-6,-5
8175,0,-72,15,10,12,5,6,-1
8228,-6,-57,-31,-23,-14,-9,-7,-10
8284,-1,-53,-1,-4,16,-3,-2,-7
8335,1,-4,-4,-5,3,-5,-22,-14
8395,-2,74,7,0,1,2,1,13
8454,0,-14,-5,-5,-7,-3,-8,-23
8515,10,-77,-30,-13,-15,-7,-9,-8
8566,3,-54,-15,-12,-10,-8,-12,-24
8631,-9,-1,3,0,9,2,-7,23
8693,-5,-61,-10,-2,3,-1,-8,-10
8755,-3,-18,56,11,19,4,2,-4
8816,-14,78,-12,-1,-1,1,2,5
8876,-3,-38,-2,0,4,0,1,1
8928,-2,50,10,-3,-14,-5,-14,-10
8981,12,-23,-26,-5,-2,-2,-4,-19
9033,4,-54,4,-14,-1,-4,6,-21
9083,0,15,-25,-1,-3,-1,5,44
9138,-3,22,-3,-3,5,-6,-6,-16
9192,-1,-13,1,-2,-2,-3,-4,-15
9254,6,17,4,3,0,-1,-1,-11
9318,10,35,-11,8,17,7,6,28
9378,-2,25,-11,-1,9,4,6,2
9428,9,38,-11,2,3,-2,-5,2
9491,-11,14,-10,-6,-11,0,2,19
9555,3,24,-23,-6,-3,-5,0,-2
9618,-1,-7,1,5,12,1,2,5
9678,-15,-28,4,5,5,2,4,8
9731,-7,76,-24,-4,-1,2,9,6
9795,-3,29,15,15,1,7,11,-2
9857,-2,-47,-30,-9,-3,-4,-8,-7
9917,-3,-68,-34,-3,2,1,-3,5
9978,1,74,-1,-4,-1,-3,6,5
10033,2,-32,-12,0,11,3,7,-2
10084,-1,35,4,-3,2,0,3,-5
10135,1,48,-19,-7,-5,-1,0,3
10192,-8,19,-8,0,3,0,5,-2
10240,-4,49,17,5,12,5,21,3
10296,-9,31,-9,3,6,4,4,0
10359,6,-35,-33,-1,2,3,14,12
10419,4,9,1,4,3,0,-2,5
10480,6,-24,-5,-1,-3,0,-5,-3
10533,-4,-16,-8,1,1,-1,-4,-8
10594,8,16,-4,-4,-10,-6,-1,-13
10657,-15,23,21,-7,-8,-6,-2,-21
10720,0,-62,-32,-7,-4,-3,-6,-10
10780,9,-37,21,3,0,1,1,-9
10842,6,68,-28,4,12,1,-3,-8
10894,-2,-43,8,0,-6,-2,-6,0
10946,-4,-36,-27,-11,-13,-9,1,-19
10998,-1,59,10,-1,-7,-5,2,-11
11051,-12,11,10,5,3,5,9,39
11103,-5,-23,4,9,14,4,-2,0
11161,3,62,-5,-3,-13,-11,-3,-7
11222,1,70,26,0,-4,-2,-19,-15
11282,0,101,4,-7,-2,0,-17,-21
11335,-18,21,4,-7,-14,-4,-4,0
11390,-4,-29,62,7,1,-1,0,-30
11439,-2,-3,-18,5,8,5,12,45
11491,-6,-1,-25,-8,-13,-7,4,21
11548,-7,-4,14,4,7,5,11,-3
11604,-7,0,5,2,2,2,0,-5
11665,2,-12,-30,-7,-13,-4,-1,2
11725,7,2,17,-3,-3,-2,-2,-10
11778,3,70,-43,-10,-24,-13,-6,-13
11829,1,13,-11,2,0,2,-8,6
11891,-6,-43,33,0,-4,-2,4,-3
11936,5,-3,14,1,0,3,13,5
12000,4,-83,77,12,1,-3,-14,-18
12061,1,56,28,5,3,2,1,3
12122,1,-49,-25,-9,-4,-4,-2,-13
12173,0,-79,3,9,12,6,6,6
12227,-1,8,11,-1,2,1,0,-7
12279,-3,-34,-11,-8,-5,-4,0,-11
12331,-1,1,-21,-5,-7,-1,-5,-24
12388,10,-8,-24,3,-3,-1,-7,-7
12450,-8,73,-23,5,9,5,5,54
12512,-2,-6,26,3,2,1,1,-4
12574,-1,-10,-7,-7,-3,-6,-11,-19
12624,-11,4,-13,-3,5,4,10,-7
12679,2,-1,-11,-5,-1,-3,-2,14
12730,4,46,8,5,10,2,14,-8
12782,2,-4,45,8,-1,0,8,-7
12836,2,54,9,-4,-3,2,10,-4
12888,-17,83,5,-4,-2,1,9,63
12948,-4,28,3,5,9,3,-2,-1
13008,-6,-9,13,5,3,-3,-22,-24
13070,3,27,13,1,-3,-3,0,-11
13122,-1,48,74,3,-6,-3,5,-9
13173,-11,24,-39,-8,-4,-3,-3,-7
13228,-6,2,-21,-10,-13,-6,-4,-10
13278,-16,27,1,-2,-5,-3,-5,-8
13330,-9,44,33,0,-2,-3,-6,-7
13388,-24,29,-12,2,3,1,2,12
13451,-1,-94,-1,10,13,8,8,-25
13512,-24,-82,9,7,15,10,8,15
13562,-10,-16,14,-3,-10,-3,-1,-14
13625,-15,32,4,1,-3,-3,5,-7
13688,5,-76,-23,1,-1,-2,4,2
13752,-8,20,19,2,-3,1,3,14
13810,15,-64,72,2,-5,-6,-8,-26
13864,12,16,-6,7,5,2,3,-2
13924,42,-19,-12,-10,-14,-7,0,-6
13989,2,-28,-31,-10,-6,-4,-4,4
14052,-2,-26,-46,-6,1,-2,-7,-19
14115,-19,2,-30,-5,-1,-2,-22,-27
14169,16,31,1,1,0,1,-1,6
14222,-6,-8,-5,-6,-15,-8,-1,-5
14284,5,67,-41,1,8,8,13,13
14346,8,44,14,2,4,2,-4,-8
14409,-6,-28,-2,-3,5,-1,-2,2
14470,17,6,7,3,-3,-1,-1,-5
14531,13,-30,0,-3,-4,-5,-4,-15
14582,13,-50,-17,-2,3,1,5,7
14638,-1,25,-15,-4,-1,0,-1,4
14687,-12,2,-26,-3,1,0,-7,0
14741,0,-41,9,2,7,5,7,14
14797,-7,43,0,-5,-3,-2,-3,-1
14852,-15,6,-6,-6,-15,-7,-9,-6
14913,27,-71,-4,-10,-24,-12,-4,-19
14972,-14,35,-22,-4,1,1,8,33
15024,14,22,-37,-10,-10,-4,-3,-3
15087,52,-1,7,-8,-11,-5,4,-13
15151,-8,27,-7,-4,-17,-12,-5,-14
15214,-17,109,3,5,14,6,16,9
15271,26,2,-17,-6,-12,-7,-4,-15
15333,5,19,79,9,6,1,-8,-2
15396,-8,-42,1,-5,-1,-2,2,9
15457,-10,-68,23,1,-1,1,4,8
15519,1,-18,-15,-1,1,1,5,-12
15574,-5,48,-29,-4,0,0,-2,2
15645,-24,-45,-4,-2,-8,-5,-6,-19
15694,12,-66,25,9,10,1,-10,-10
15750,-18,87,-20,1,-1,-3,-20,2
15813,33,15,-4,-3,-7,-4,-2,-1
15873,10,-49,26,-9,-25,-14,-10,-24
15924,-10,127,-4,-2,-6,-1,-8,10
15977,4,-6,-35,-4,0,0,-21,2
16028,0,28,-8,4,-1,-1,3,7
16089,-2,8,5,-5,-16,-7,5,4
16152,5,77,9,1,1,-1,1,3
16195,1,27,-24,-1,2,-2,-8,-12
16255,30,-8,8,2,1,2,2,13
16317,15,31,1,-1,-2,-2,-8,1
16371,-5,13,-5,0,1,1,1,-14
16418,-16,-13,18,12,11,1,-16,4
16472,6,-7,-1,3,5,2,-3,-2
16525,-16,102,-34,8,22,7,5,11
16585,9,25,12,-6,-15,-5,4,11
16636,-1,-52,-37,-3,2,1,4,17
16698,10,-71,-24,-2,4,1,-3,15
16760,-2,-17,-3,0,-5,-4,-1,1
16810,9,-4,-19,-3,-2,-2,0,-2
16874,4,-36,-2,-1,-3,0,0,-6
16937,4,19,-20,-7,-7,-3,1,-1
17000,-18,59,-10,-2,2,-2,1,4
17058,3,2,-2,3,6,-2,-8,-10
17109,-27,16,-13,0,1,2,6,8
17172,-17,-1,5,3,6,2,-7,-18
17235,-13,80,-10,5,9,0,-8,-2
17299,7,-6,-29,-8,-2,-2,-1,24
17358,-3,10,-7,0,-2,0,-8,-11
17411,-9,-63,73,8,-3,-2,1,-15
17462,-8,6,10,0,0,0,-12,-37
17514,15,74,0,-2,-5,-5,-10,-11
17571,7,9,-19,-9,-20,-7,-10,-12
17622,-9,-16,19,-1,1,-1,-2,1
17678,-6,50,7,-1,7,1,-7,-10
17740,-11,1,10,2,-3,-3,-3,-17
17800,-13,9,16,2,0,-2,-5,-14
17851,22,-14,-21,-1,0,-2,-7,-15
17914,17,30,21,2,5,0,2,-1
17977,-7,1,-52,1,7,0,3,5
18041,43,0,-19,1,9,1,7,-18
18100,7,-38,-28,0,-2,-3,-6,-23
18160,-7,8,-6,-8,-9,-5,5,11
18214,14,-67,11,1,1,-6,-15,8
18287,-6,7,-8,-2,-1,-1,-5,8
18347,20,-44,16,-5,-8,-4,-5,-15
18400,56,8,-33,-5,-8,-3,-4,-27
18460,10,47,13,6,6,1,9,-3
18513,-8,-41,-5,3,10,4,7,5
18565,-38,20,-10,2,5,3,6,19
18616,-9,-36,-3,-4,-11,-4,5,8
18671,17,-4,-4,0,2,-1,-4,-6
18723,-4,-11,-21,1,7,0,-1,18
18786,-18,-29,30,13,14,9,1,-11
18847,-18,92,41,9,5,5,7,19
18894,-27,-13,-8,0,5,2,-1,-2
18957,12,6,21,3,-7,-3,-8,-37
19020,-17,24,9,-1,1,0,3,7
19082,-17,-5,-26,-7,-10,-6,0,21
19143,5,36,-21,0,3,1,-6,-1
19197,-8,10,-17,-2,2,1,14,6
19247,-19,-14,2,8,7,1,4,-9
19299,4,-3,-22,0,1,0,-1,8
19352,6,-25,4,5,4,2,-6,-21
19410,-12,-21,-6,0,1,0,-2,-2
19464,6,-1,-9,-3,1,-1,-2,4
19527,12,-19,1,-7,-4,-4,-7,-3
19584,-1,-5,0,-7,-16,-8,-11,9
19646,1,-80,1,-1,-3,-4,12,10
19699,19,73,-49,-4,0,-1,-6,8
19749,-4,-32,11,0,2,-2,-2,3
19802,-5,37,-18,-7,-5,-2,-2,18
19855,-7,28,64,7,0,1,4,1
19915,8,15,5,2,0,0,0,-23
19967,-13,24,-9,-6,-2,-3,-1,11
20030,-13,-23,-19,-6,-10,-5,-4,-6
20088,-27,68,-36,-3,-1,1,7,43
20139,12,-42,1,-3,-1,-2,-3,-10
20191,19,-56,10,0,2,0,6,4
20244,-21,105,25,3,9,1,3,-3
20297,15,48,-11,-10,-13,-5,-6,-3
20357,5,-1,-14,0,1,1,1,-7
20417,-15,-50,-29,-8,-6,0,-11,1
20474,5,30,-18,-4,-3,-2,-2,-10
20522,3,6,-3,-5,-5,-5,-21,-19
20579,-19,-9,-27,2,7,2,3,-6
20636,-22,28,-15,-2,1,0,1,-10
20687,-3,25,-16,-2,2,2,5,8
20747,-11,0,-8,3,4,1,-3,-6
20798,-7,4,-10,-3,0,0,4,-2
20853,13,-17,-9,4,2,-2,8,7
20908,-11,-7,-11,-8,-13,-4,-3,-23
20956,24,27,1,2,5,2,-3,-1
21010,18,67,13,7,8,4,8,18
21068,-47,-25,-18,6,16,6,6,-1
21131,-9,5,-11,-2,-1,-2,0,-15
21194,-1,-20,21,1,-1,-1,-2,-5
21250,-5,87,-21,-4,-1,-1,-4,8
21304,-21,-13,25,-5,-13,-6,-8,-3
21354,-8,17,-8,-6,-18,-8,-2,-3
21410,-24,28,21,4,11,4,-5,0
21461,24,9,38,2,0,1,-4,-11
21525,-32,-5,-37,-7,-7,-3,-1,3
21587,-6,60,-6,-9,-9,-5,-2,-7
21647,32,3,-7,-11,-25,-8,15,-10
21709,-3,2,-14,-5,-6,-3,6,-9
21764,20,-27,-11,-1,0,-1,4,-14
21812,-6,-11,5,-5,-2,-2,2,4
21864,-10,9,44,5,5,4,5,-5
21918,-19,43,-6,-1,-2,0,8,6
21975,-2,-20,-21,-9,-11,-7,-7,-16
22031,-26,-94,24,9,4,-4,2,11
22093,1,2,11,5,4,0,2,5
22151,-8,14,-1,0,5,1,-1,9
22202,9,-40,6,1,2,-1,-3,-17
22260,15,56,-10,-3,1,4,12,-7
22306,-19,36,-24,-5,-1,-1,-7,0
22359,-34,81,14,7,4,1,2,-5
22415,-5,-49,-7,-7,-14,-6,-7,-17
22474,-5,11,15,0,-9,-5,1,-10
22541,12,-89,16,-3,-6,-4,-2,2
22593,7,18,5,-2,3,0,16,26
22646,-13,-40,-20,2,8,1,7,9
22711,-5,31,14,3,8,2,2,-3
22773,-10,8,9,-4,-15,-9,-9,-21
22833,-18,-20,1,0,0,-1,-2,1
22892,22,7,-27,-8,-7,-3,0,7
22944,12,-2,-4,-1,1,1,-2,7
23007,-21,-6,10,2,3,2,-2,-21
23071,27,72,44,5,7,0,-2,2
23133,17,-11,-34,-4,-6,-3,-3,-10
23192,45,25,6,-1,-2,1,4,1
23246,-12,-11,-15,-6,-6,-4,-3,8
23298,19,-41,-14,-2,-1,-4,-6,-7
23349,8,46,25,-3,-6,-5,3,4
23407,20,34,11,6,13,5,13,9
23455,10,-116,37,8,13,4,-1,-4
23509,-13,-15,-8,-3,-5,-4,4,4
23571,-43,57,-35,-2,3,1,6,10
23634,3,-53,-8,-1,-2,-1,2,4
23695,-6,26,15,11,16,5,11,28
23757,-10,3,-31,-3,0,-1,3,3
23810,25,17,-21,-3,-3,-3,2,0
23869,8,45,16,7,14,4,5,12
23921,-27,-26,-21,0,4,3,-1,11
23973,4,36,0,0,2,1,-2,-6
24028,-13,71,12,3,5,1,-3,6
24078,-18,-18,16,9,15,4,-4,1
24137,-44,-24,-3,-3,-18,-10,-16,9
24200,-2,72,-17,-1,10,6,3,-7
24261,-1,-20,10,2,4,-1,-7,-15
24312,-30,-4,35,6,3,1,-8,-11
24362,-3,19,7,-3,-3,-1,-3,-3
24418,9,-6,-19,0,5,1,1,1
24466,-19,-22,-8,3,1,-2,3,8
24520,-8,-92,11,8,4,-1,1,-8
24573,-17,-19,-6,-3,2,-1,-1,-12
24624,8,47,11,-1,5,3,1,1
24678,-21,18,-8,-3,-4,-2,-2,9
24733,-41,95,-15,1,5,-1,-6,-5
24797,-2,-36,-12,-4,-6,-2,-1,-3
24857,19,-27,5,-1,2,-2,6,-21
24919,-12,-8,-14,1,0,-4,0,2
24972,2,-50,12,-1,0,-1,-1,1
25034,-15,-4,-12,-10,-11,-8,-2,-15
25096,20,-38,2,-4,-6,-2,-5,3
25157,41,-92,28,-3,-3,-2,-5,-4
25217,-41,18,-34,-7,-6,-4,2,7
25269,-9,8,-3,-3,-5,0,-5,-23
25325,3,-6,-2,2,-1,-3,-1,-12
25374,13,9,-8,-2,-3,-1,7,8
25428,19,109,-5,-1,4,-2,-1,-21
25480,23,24,19,1,0,-4,-12,-33
25537,-27,17,-16,-6,-11,-6,-5,1
25600,-8,9,-39,-6,-7,-3,-3,-7
25660,-44,67,16,7,8,3,17,-5
25711,-9,50,-10,-4,-6,-2,2,2
25774,-34,-1,-6,-2,-6,-3,3,24
25837,0,58,26,1,2,0,-3,8
25900,16,10,-8,-6,-9,-6,-1,11
25962,7,-7,0,-1,1,-2,2,2
26011,7,-13,-41,-4,-3,-2,-2,11
26065,-13,-8,-13,1,-1,-4,-4,-23
26116,3,-5,-27,-4,2,4,-1,20
26168,4,13,14,5,12,5,8,8
26223,-39,16,0,-1,-4,1,-5,-18
26279,2,35,3,-8,-16,-6,8,-8
26341,-30,81,-21,-2,-2,0,0,-3
26403,40,-96,10,-1,-3,-3,-8,-6
26464,-14,-66,-15,1,0,4,12,-16
26523,-11,83,-13,-7,-5,-2,-1,5
26587,-44,91,56,0,-5,-2,7,31
26648,-12,-85,13,4,3,1,9,-9
26711,-19,8,-41,-12,-8,-2,-4,-6
26765,11,-111,24,2,1,-1,7,-5
26814,-4,49,-45,-6,-9,-7,-10,-6
26866,-8,-54,-25,2,7,1,6,5
26920,60,2,-34,-2,0,3,5,-20
26971,-10,35,-18,0,-4,-2,2,5
27031,9,62,-1,-9,-9,-2,-6,-6
27079,0,-7,4,3,2,0,-2,-33
27141,-31,0,3,-3,-3,-4,-10,-16
27205,24,2,-1,-1,-1,1,-5,2
27266,-35,51,20,0,-8,-4,3,3
27324,-3,9,10,6,6,1,-19,2
27376,7,-3,-8,0,-2,0,-9,1
27429,-36,-21,11,9,11,2,-5,7
27482,1,-11,-36,-2,9,3,-5,3
27533,-29,27,-38,-5,0,-6,-10,-2
27589,-19,103,-12,3,6,3,-1,4
27646,17,-62,99,18,6,3,-3,-2
27709,-4,-21,18,3,4,1,17,-10
27758,-14,-40,-3,-3,-7,0,0,12
27811,6,54,12,-2,2,0,-4,-23
27867,25,16,1,-4,1,0,-6,0
27930,29,-28,-37,-5,-5,1,-3,14
27978,11,-46,8,-3,-8,-4,0,-9
28030,-21,81,-1,-1,0,1,-2,4
28082,25,-11,-1,-1,3,-1,5,28
28133,9,68,-19,-4,0,1,3,9
28188,-33,-75,54,6,1,-1,-5,-18
28254,18,-20,-4,5,7,1,0,0
28307,-56,53,-1,-1,2,0,-1,-2
28369,-40,41,-11,-2,14,6,-2,-18
28419,-49,7,-3,3,0,-1,-5,-6
28476,-32,-4,66,3,1,-2,0,17
28524,14,46,6,0,3,2,-8,6
28578,-77,1,-15,-3,-5,0,4,50
28633,-26,73,-60,-3,14,4,5,24
28682,19,-26,-1,-6,-15,-4,-5,-8
28734,5,-12,-25,-6,-6,-3,-1,-8
28786,10,-43,37,0,-2,-2,-2,-9
28846,8,3,74,15,17,7,9,-3
28906,44,52,14,0,-1,-1,-4,-9
28959,-6,1,-5,-1,0,1,5,-3
29015,9,7,13,5,8,1,-5,-6
29064,19,-14,-1,2,1,-3,1,-7
29123,-23,-51,56,8,1,1,11,1
29176,-16,-20,-7,-4,-5,-6,-9,-12
29230,-19,-23,18,5,5,-1,-5,3
29287,16,-14,-4,0,3,2,10,7
29349,14,31,-2,-1,0,-1,0,-3
29410,-7,44,-32,-2,0,0,-1,8
29470,-26,10,11,6,10,1,2,8
29527,-2,25,22,3,9,3,-4,-18
29573,20,34,-11,-6,-8,-2,-2,-10
29628,-12,26,8,-1,-5,-3,4,-1
29681,-18,-18,-9,-1,2,-1,-4,-14
29732,-12,47,-30,-5,-3,0,-8,-2
29792,8,1,-7,-3,-5,-1,6,6
29852,-11,54,4,3,4,1,2,4
29912,21,-17,29,1,-1,-3,-5,4
29967,5,13,-1,0,-3,-4,-11,-29
30040,-7,-17,6,4,5,0,2,-1
30103,-8,24,14,3,7,2,5,2
30155,1,-40,-15,-1,-4,-3,-6,-14
30203,-27,57,5,0,-6,-2,-3,4
30267,23,-25,-17,-14,-25,-10,-1,-39
30331,-12,16,-3,1,7,5,18,-1
30393,7,37,-3,0,13,6,-5,9
30454,-25,99,0,5,1,0,3,7
30504,39,-41,-7,-4,-4,-1,5,0
30566,6,-15,4,0,-3,0,-3,4
30623,-29,-53,29,5,6,1,-8,18
30676,-20,6,15,-3,-8,-3,3,-2
30735,2,-31,-10,2,6,1,11,2
30798,38,-25,3,1,2,0,-2,-8
30861,6,18,-20,-5,-2,0,8,6
30902,-11,2,6,3,0,0,-2,-2
30957,-8,13,-6,2,1,-3,-11,-21
31009,-50,31,-15,-11,-15,-4,-3,3
31070,13,-26,8,-1,-6,-4,6,3
31123,-3,-8,-3,1,2,1,5,-7
31175,-10,-38,-6,1,-3,-1,2,-7
31230,12,12,-18,-4,-3,-4,-7,-6
31292,35,-30,-19,-2,4,-2,-11,-4
31352,-32,-26,-8,3,6,4,4,2
31404,22,-1,20,-2,-7,-8,-6,7
31458,9,24,-11,-2,-2,-4,-3,3
31515,45,-15,-42,-9,-9,-2,-1,6
31578,9,-29,-13,-1,3,-2,-1,21
31638,-41,-8,1,2,-4,-1,4,-2
31689,26,-63,0,-9,-15,-4,6,4
31753,-34,-46,7,-10,-15,-6,-9,9
31817,-37,30,16,6,3,2,-9,-24
31880,29,-50,-23,3,2,-1,-6,-4
31939,13,22,-12,-6,-3,-6,-16,-18
31992,-25,-17,-3,-1,2,3,3,-32
32055,8,-28,-7,-7,-9,-3,-2,-1
32117,-50,37,64,6,1,0,-3,-3
32179,-14,-8,-10,-9,-7,-6,-5,-2
32229,-33,5,0,3,6,4,-1,-8
32291,-23,32,-9,-3,-1,-1,1,-11
32355,-2,18,-21,-2,-3,-1,8,-2
32420,9,14,4,1,1,-1,-9,-5
32484,13,-25,4,-1,13,-2,-6,-5
32538,-5,-19,-1,-2,4,-2,3,-1
32590,22,-10,2,-1,2,-1,1,0
32642,-29,-2,-2,-6,-23,4,10,13
32702,30,-25,5,-7,-14,-5,-2,-6
32748,4,34,-12,0,-1,-2,5,-7
32800,-14,44,32,7,-1,2,9,-5
32859,8,-11,17,5,5,1,-3,-13
32922,4,3,4,1,-2,1,-4,-3
32986,24,-6,4,-8,-11,-4,5,11
33031,-5,9,1,1,6,2,1,-3
33093,-28,-20,-2,2,11,5,5,-2
33157,18,-32,-1,2,4,3,0,-1
33221,-8,2,-9,0,-2,-1,-7,-7
33280,-23,17,-7,6,4,3,2,-14
33340,-22,20,19,0,-1,1,1,2
33399,-30,-6,12,5,6,3,1,-12
33444,-23,-17,7,0,2,0,6,7
33499,-58,-10,-1,-10,-16,-8,0,-2
33551,-1,-7,9,2,-14,-5,11,4
33602,16,-18,-28,-7,-3,-2,13,1
33663,-3,5,-1,-3,-2,0,2,-7
33723,-49,122,23,1,1,1,-2,-1
33779,35,35,16,2,2,-1,-6,-10
33845,61,-59,37,-1,-8,-3,5,-5
33900,-9,37,-16,2,-3,0,5,5
33963,5,29,-5,-2,-3,-1,4,15
34021,-12,25,-7,-1,4,1,-1,-4
34074,10,25,15,4,0,-1,-5,-5
34137,12,-98,12,-1,-8,-3,-14,4
34200,-11,20,-4,3,8,-2,-1,5
34263,5,31,-21,2,-6,-1,1,-4
34325,-42,28,9,-1,3,-2,2,9
34385,45,46,34,4,-13,5,5,6
34436,2,2,-8,-4,1,-4,-2,-9
34486,16,-30,-16,-3,1,0,0,14
34541,-8,-19,3,1,-2,-1,-5,-1
34599,-3,22,-5,-2,9,-2,1,-12
34647,-13,-6,0,-1,-6,-3,-6,-1
34703,-22,-84,29,-1,3,0,-5,-10
34766,-49,11,20,3,6,-1,-4,-21
34828,-1,45,-2,1,3,0,0,6
34887,3,-45,4,1,1,0,-4,-2
34939,-45,-2,-15,-8,-10,-3,5,2
35002,58,-19,5,-4,-10,-5,3,-3
35065,-32,35,-12,0,9,0,6,-28
35125,-28,27,-14,4,16,4,6,-4
35177,8,0,0,-5,-7,-4,1,5
35237,6,-2,5,-1,3,-3,1,-9
35282,2,-9,-8,-1,3,1,3,2
35336,-12,-45,-6,-3,-1,-1,-2,-13
35387,-21,1,-15,-4,-8,-2,6,-7
35445,26,38,11,-1,-18,6,8,-2
35506,-26,90,0,0,-4,-1,4,1
35567,-9,-7,14,4,-6,0,-3,-8
35620,-2,60,18,1,-1,-3,-4,1
35672,3,-12,7,1,5,5,13,-3
35723,-11,12,7,2,7,2,-5,-6
35785,-22,15,8,1,1,1,0,9
35846,24,-26,11,-1,-5,-6,-1,-2
35897,-3,-1,23,4,2,1,-1,-19
35950,43,42,21,-2,-9,-5,-1,-4
36001,-23,-6,-11,1,4,0,2,19
36055,0,-6,0,-3,0,1,6,13
36107,-4,10,-5,-2,-1,0,3,-11
36165,-27,18,-10,-2,3,-3,-7,-8
36227,-43,2,-11,-3,-1,-1,1,9
36290,-14,-35,11,-1,-1,-3,-3,-3
36347,9,21,8,-3,-4,-7,-10,-14
36400,15,39,-8,0,3,0,10,-10
36451,12,47,19,1,-9,-4,0,1
36504,-12,10,-7,-7,-4,-5,-4,-1
36565,7,8,-13,-5,-7,-3,2,-1
36611,30,-28,-31,-9,-29,-2,-8,5
36668,-3,-43,-7,0,2,0,5,-1
36732,18,34,8,-2,3,0,1,23
36790,-3,-8,-7,-7,-13,-4,-8,-3
36844,17,49,-16,-3,1,1,-1,-8
36912,5,-15,10,1,6,0,0,3
36974,7,18,-16,-4,0,-2,-6,-10
37036,45,21,-2,-7,-14,-6,-1,7
37083,13,0,21,-1,9,-3,-5,-12
37133,0,2,-2,-1,-5,-1,-22,-1
37190,12,24,-2,-3,3,-2,-2,-6
37243,50,63,7,0,-7,0,-1,-2
37293,-8,21,-26,0,-4,3,1,-2
37354,-26,-12,-11,-3,2,-1,2,-4
37413,-5,9,-5,3,5,0,1,7
37463,-17,15,-7,0,5,-1,1,3
37525,-59,13,2,3,10,4,16,-23
37587,-9,9,-33,-7,-5,-5,-1,26
37651,-18,-46,-5,-2,-4,-1,-3,-4
37712,-14,30,18,-5,-10,-4,-6,-8
37772,-47,-73,10,6,5,4,7,8
37826,-31,31,19,2,-5,-1,5,13
37886,26,-28,-8,-2,-7,-6,-8,-19
37950,23,51,7,-5,-7,-3,-1,15
38012,-4,-41,-13,-4,-2,-1,-17,4
38073,-12,-16,-22,-5,2,-3,-5,-7
38124,17,13,-15,-8,-7,-4,-3,-12
38176,14,-36,13,2,6,1,-5,-7
38231,35,14,26,1,-3,0,-5,-7
38282,0,47,-4,0,-1,0,-3,-4
38336,-7,-23,5,-1,-5,-2,6,2
38393,19,-7,41,7,0,-1,3,-8
38455,-32,17,30,6,8,1,0,9
38515,7,16,-11,-4,-1,-3,-1,-18
38572,-37,-30,1,3,3,-1,-7,-7
38634,2,10,-8,1,2,-1,-2,-3
38696,24,31,-2,-3,-3,-2,-5,8
38758,-4,9,-17,-2,-1,-3,-5,-5
38819,-2,17,-4,2,3,1,3,2
38867,-10,20,-17,-5,-12,-5,-9,0
38929,7,-39,-3,4,4,-3,-4,-12
38995,39,-86,-28,-9,-6,-1,3,-2
39057,-38,58,25,2,-5,-2,2,13
39115,-22,40,-8,0,-3,-4,5,-7
39176,46,23,-6,-5,-1,-1,-2,-8
39227,-16,7,-37,-9,-4,-4,7,-10
39276,24,-59,-2,-7,-4,-4,-9,-8
39332,14,55,17,-1,4,2,11,-1
39388,-28,21,-2,-2,0,-1,-1,6
39445,6,8,24,8,11,4,-2,0
39498,0,32,-17,-1,6,2,2,8
39558,12,-27,15,2,4,2,1,0
39625,-9,26,1,0,2,-1,-2,-7
39678,16,-19,10,1,-2,-3,6,-5
39734,-10,-3,10,-1,-1,-4,-6,-8
39797,8,71,3,-2,1,-2,-6,-9
39857,-17,17,10,-1,-3,0,2,0
39920,-23,-38,-6,-5,-8,-4,-3,5
39983,-33,-51,-17,-2,-1,-4,-2,0
40037,-17,-17,-6,-4,-5,-4,-1,0
40089,11,-4,-22,-5,-3,-1,1,9
40141,-3,-8,-17,-1,2,0,-1,-14
40195,14,17,-1,-2,-7,-4,-4,1
40247,-5,44,24,7,7,2,-3,-8
40300,5,-65,-10,-6,-6,-4,-3,-5
40360,-12,29,-12,-3,-1,0,5,6
40422,10,-81,-16,-3,-4,-4,1,-6
40480,13,46,20,-2,-1,1,3,6
40532,-10,-18,6,5,6,2,2,2
40595,41,-13,-8,-1,0,1,5,9
40658,18,39,13,3,-1,2,-1,-2
40720,-16,-23,69,12,10,3,-2,9
40780,-4,-20,-25,-5,0,0,0,18
40832,-17,-36,23,4,1,0,-8,-49
40894,-8,-31,-32,-9,-10,-8,-29,1
40958,2,-29,54,11,10,6,9,2
41020,-17,-17,-23,1,-2,-2,-8,4
41080,-5,-66,24,2,3,3,4,1
41130,-57,33,20,5,5,0,-1,-2
41184,-13,-43,-21,0,0,3,-13,4
41237,-14,13,-4,0,4,3,0,7
41289,-5,34,-13,-4,1,1,-1,8
41342,-53,-12,-2,3,4,5,9,20
41399,12,-94,-6,-2,-6,-5,-7,-6
41463,-10,-30,23,2,-4,-4,-4,4
41522,-4,9,1,0,-4,0,-1,0
41574,7,66,-7,2,12,4,-2,-2
41636,-13,125,1,-3,3,1,2,3
41699,-18,-52,27,5,3,-1,-6,-17
41763,14,2,-28,-3,2,1,-1,-8
41822,12,-41,-5,-1,0,-1,1,9
41873,18,10,14,4,3,1,-6,-8
41936,12,-88,22,5,9,3,4,8
42000,9,16,27,-2,-11,-3,6,25
42061,-5,7,-5,2,4,-2,-8,1
42122,21,26,-23,-7,-5,-2,-2,4
42184,-1,21,-16,-4,-10,-4,1,-2
42234,4,52,35,9,6,2,-1,-2
42287,3,-57,22,1,0,1,0,-8
42339,-14,66,-8,-4,0,0,-5,-19
42391,24,-65,10,0,-2,-4,-7,-5
42449,36,24,4,1,5,1,-1,-4
42501,-22,15,-5,-5,-3,-1,1,-2
42563,7,-36,8,0,0,-2,-4,2
42625,-6,-17,-13,0,-4,-1,2,9
42685,4,-103,-13,-6,-6,-3,-1,15
42746,-18,40,24,3,2,0,-5,-14
42799,-15,-3,0,0,-4,-3,7,22
42860,-14,-2,12,-2,-5,-2,9,2
42924,26,-15,0,-2,-3,-4,-1,-7
42985,32,-22,-17,-1,-2,0,1,9
43045,-17,2,3,-1,1,-2,-2,17
43107,12,-67,-9,-1,4,3,1,3
43159,-12,10,35,4,1,-1,1,-2
43222,20,16,21,3,6,2,3,1
43276,-16,26,7,-4,-3,0,0,3
43329,10,3,-22,-9,-10,-6,-18,-3
43385,12,-9,-8,-4,-1,-3,-4,-8
43434,-29,3,-16,-1,-1,-1,1,-29
43487,-22,7,-3,3,1,-1,3,4
43547,-19,-96,6,-2,3,1,0,-1
43600,-46,32,-16,1,0,1,1,-2
43652,24,17,0,1,1,0,14,8
43704,13,-10,13,2,3,1,3,-1
43759,7,15,-42,-2,3,3,3,6
43810,-6,33,9,2,4,-1,-3,-10
43868,42,-38,1,0,-3,-5,-9,-12
43930,4,-30,9,-1,-4,-1,-17,-3
43990,7,-92,27,4,0,-2,-6,-16
44043,4,-25,-10,-2,-5,-2,2,-2
44093,-18,-26,23,2,1,-2,5,-14
44147,17,22,-10,-3,-3,-2,-1,4
44207,-14,21,-2,-3,-4,-1,1,-8
44268,-17,-56,-8,-2,-2,-2,4,7
44330,22,80,-42,0,1,0,4,0
44389,-11,14,0,0,10,3,2,3
44437,8,-24,4,2,3,0,-4,-9
44492,-23,-56,7,-4,-2,-4,0,-3
44549,1,0,-11,-5,-5,-3,-7,-3
44596,23,-80,-2,-2,-5,-1,-3,-2
44649,-1,-12,10,-4,-4,0,3,1
44708,-11,50,-2,-4,-2,0,8,-4
44770,35,15,-1,2,0,-2,-3,-7
44830,-30,53,-7,-3,3,1,-1,4
44892,-12,75,31,5,2,0,-6,-4
44945,-17,-11,-3,-1,4,3,0,-6
44994,-20,21,-6,-1,1,-1,4,4
45051,-17,-19,-32,0,-4,-1,-3,-12
45100,-3,-44,-1,0,-1,-1,-3,1
45153,-38,50,-7,-1,2,0,1,-14
45211,12,-17,-25,-6,-2,-2,-4,3
45272,14,-15,-7,-2,1,1,0,-2
45332,-17,59,-25,-3,1,0,-2,-2
45396,20,-28,-9,-4,-10,-2,0,6
45460,-4,-62,-1,0,-2,-4,-4,-2
45512,-11,-57,13,-1,0,-3,-4,-2
45573,-11,47,3,1,-1,0,3,-1
45633,-5,33,14,6,8,2,5,4
45687,17,-23,-3,-4,-3,0,-11,-4
45735,4,-98,-13,0,2,2,1,-3
45790,-10,23,-17,-2,5,1,-3,-2
45843,7,33,-3,1,2,-1,3,9
45903,24,9,14,0,-3,-1,-3,-17
45956,-2,-14,-4,-2,-2,-3,2,-1
46015,11,-4,-18,-4,1,1,3,4
46076,-12,9,-10,-1,-2,-3,0,6
46128,-16,55,-9,4,8,5,-1,8
46191,-8,9,20,5,0,1,1,6
46253,1,7,-10,-2,2,-1,-3,-2
46315,8,0,7,1,7,1,1,4
46374,-2,36,-11,-4,-3,-4,-1,-6
46426,1,64,-5,-1,-1,2,-1,-2
46489,-6,-40,-19,-2,-1,-2,-1,22
46552,-9,26,8,5,5,0,-4,-1
46615,5,47,6,0,-3,0,-4,-15
46675,-34,-2,30,6,1,0,-3,-6
46726,-50,66,-19,3,11,7,13,63
46779,39,18,-9,0,0,0,-6,-1
46840,15,-13,6,1,1,0,-19,-1
46883,-4,4,-18,-1,-3,-1,0,-3
46938,33,0,4,-3,-2,-4,-1,-16
46998,14,-20,5,1,-3,-2,-1,-1
47060,21,-41,2,-2,1,-2,-5,4
47122,-14,-87,-9,2,3,2,-10,-4
47178,-51,26,29,0,-9,-5,-20,-40
47229,3,-21,12,-3,1,0,4,18
47291,37,22,2,-1,0,0,2,11
47354,16,24,-7,-3,-4,-4,-2,-2
47417,-4,1,-11,-6,-10,-4,-3,4
47477,6,-55,6,-1,-1,-1,-2,5
47530,0,-13,-11,0,-1,-3,-4,4
47595,-22,76,-3,0,-1,0,-2,-2
47659,6,-31,0,1,4,2,2,1
47718,-18,7,23,6,-7,-2,1,2
47783,6,25,19,3,0,0,-5,-8
47840,16,-27,-6,0,2,2,-4,2
47888,7,39,0,1,0,-1,-1,12
47947,-24,-26,-24,-5,-3,-3,-3,9
47994,-9,31,-16,1,2,1,2,22
48047,8,-4,-5,-3,1,-2,-2,35
48104,-24,-88,26,2,3,0,0,-8
48164,-11,28,14,-2,-3,-1,-1,-6
48230,31,-59,35,5,1,-2,-5,7
48271,-22,17,-22,-2,-3,-6,-18,-29
48334,-8,4,-20,3,5,2,8,11
48395,17,4,-4,-1,10,3,10,-23
48458,14,38,-9,-4,-4,-1,-25,2
48521,22,21,5,4,-4,-4,1,3
48580,0,8,-22,-5,3,-3,-3,-1
48640,63,2,-17,-5,-2,0,-2,13
48700,-29,-18,-17,0,-2,0,0,2
48757,-45,95,17,7,-1,1,-1,-17
48826,16,59,0,0,5,3,6,24
48881,-3,-3,2,3,8,3,-15,0
48932,-25,34,-15,1,5,0,-3,5
48985,-45,45,8,-5,-5,0,6,1
49043,3,20,49,4,-6,-3,10,-12
49090,9,-30,36,0,-1,-1,0,-2
49142,13,23,-8,1,-6,-1,0,6
49203,-13,24,-54,-4,0,0,1,-5
49268,10,-33,-3,-1,1,0,5,3
49313,1,19,13,6,5,0,-5,1
49377,-16,-3,11,2,5,0,2,-5
49440,-15,8,7,1,0,1,2,10
49501,17,-13,1,2,-1,-2,-3,-9
49564,8,18,29,4,1,-2,-1,2
49623,2,-22,21,2,-2,0,5,1
49683,-4,19,-11,-1,-3,-3,-1,0
49743,-3,-37,-8,0,-1,0,6,-5
49803,6,-93,9,2,2,0,2,2
49866,-8,2,-12,-4,-7,-2,3,2
49923,8,0,9,-1,-2,-1,3,-4
49976,-26,-43,12,5,-3,-2,1,-18
50027,-40,-11,-19,-2,3,0,2,-9
50078,-6,-100,0,-4,-1,-3,-6,-5
50132,-29,-26,-16,-1,5,-1,-8,-31
50189,-3,-113,10,-2,-8,-2,4,41
50244,26,15,-5,-2,3,3,1,-13
50306,12,28,-1,-1,-3,-2,1,-13
50366,1,-21,6,1,5,1,0,-5
50417,22,-83,3,5,-4,-2,5,3
50482,8,-33,-18,-4,0,0,8,15
50544,2,-47,6,3,6,1,-5,-3
50607,-2,24,-7,0,-2,-4,-11,4
50654,26,49,4,-3,-4,-4,-7,-5
50708,-19,77,-21,-2,0,-3,-6,-2
50762,21,20,14,1,-2,-3,-8,-13
50821,-11,-19,7,-1,-3,-2,-3,-4
50867,-12,-10,2,2,3,-1,-3,-10
50923,-26,26,-26,-4,0,0,-1,7
50984,-26,10,-11,-3,3,2,-1,22
51048,-9,18,-7,-3,-2,-2,-7,-14
51107,7,53,10,1,2,0,-1,22
51168,-24,-41,-11,2,6,3,-6,-3
51220,-5,-29,6,3,3,0,-1,4
51272,-23,87,14,2,3,-1,4,-4
51325,-42,46,1,0,1,2,3,-2
51377,19,60,9,0,0,-1,0,21
51426,-33,-8,7,-4,-3,0,11,40
51489,35,20,-12,1,3,1,-4,-9
51549,-11,59,-17,-1,0,-1,-5,-1
51612,5,9,10,2,0,0,1,-3
51662,-2,-52,-1,1,-4,-1,-3,-16
51714,-12,13,19,3,5,3,2,15
51768,6,-24,-7,-1,2,-1,-5,-11
51821,1,-17,-2,3,-5,-4,-7,-7
51874,15,-33,18,1,-2,-3,-16,0
51926,-6,-41,-5,-5,-8,-1,-5,0
51977,-1,-22,-4,0,2,1,3,8
52029,-6,-25,3,0,2,0,-3,-7
52088,-32,-10,12,2,-7,-5,-6,6
52149,-48,36,17,0,-1,-1,0,-3
52209,5,-117,-4,-1,-2,-2,-4,-16
52271,27,-29,20,2,2,1,-4,8
52316,5,-15,7,-1,-5,-3,-6,4
52367,-14,-29,12,5,6,1,1,-2
52419,1,27,11,5,3,2,3,5
52472,-7,-12,-3,-1,-4,-2,0,-2
52529,-27,21,7,-2,1,-3,-2,4
52593,19,40,-4,-4,1,0,0,7
52653,21,30,-3,2,2,1,-5,-34
52713,-20,25,-17,4,6,1,1,-22
52771,-4,27,-17,2,4,1,-2,3
52832,3,-46,2,1,-2,-2,-2,-14
52876,-12,-44,12,1,-2,-1,-13,-24
52929,-2,68,12,-3,-2,0,-3,2
52991,26,3,-22,-6,-3,-2,7,1
53054,22,54,-13,2,1,1,4,-3
53101,-9,7,7,0,-2,0,-4,-6
53154,23,-37,-10,-4,-5,0,8,-6
53213,18,-1,5,0,-1,0,2,14
53277,17,-15,0,-5,-4,-3,0,-2
53342,-9,-18,27,4,3,-1,-5,1
53387,-22,-4,-8,-1,3,1,1,-4
53449,-7,-30,-13,-1,2,2,3,9
53514,-14,24,3,1,-1,-1,2,20
53575,71,30,-1,-3,-9,-4,-1,6
53637,-9,-24,-21,2,0,-1,-3,24
53686,11,-20,18,2,1,-1,3,-9
53749,-22,18,-3,-2,1,2,-3,-3
53813,2,33,6,-3,-1,-2,0,-1
53875,1,20,-24,-3,-2,-3,0,3
53934,-34,66,11,3,5,0,-1,-1
53988,7,-79,31,-1,-7,-1,-1,-27
54051,21,-48,1,1,-2,-3,2,0
54115,36,-10,4,-5,-7,-3,0,-14
54176,-79,13,11,4,8,6,0,29
54236,-1,13,5,0,6,0,-15,-7
54289,-48,23,50,13,6,5,16,6
54342,-3,24,-19,4,6,0,2,5
54396,32,87,-50,-6,-7,-3,1,6
54445,37,34,-49,-11,-6,-6,-7,-8
54498,-10,-21,-36,-6,-2,0,16,4
54555,34,-9,-21,-2,-4,-1,3,-11
54617,-5,53,-26,-8,-7,-1,-3,-14
54679,-27,33,14,5,6,5,12,16
54733,2,3,12,3,4,1,-2,-10
54800,-31,82,-28,-8,-5,-4,-8,7
54862,8,-108,15,4,3,-1,-2,-3
54925,-27,23,7,8,5,1,-1,14
54978,10,-18,14,3,9,1,-6,2
55028,37,42,-12,-6,-7,-3,-2,-21
55092,1,-3,-28,-3,8,1,-6,-1
55155,57,9,-13,-8,-10,-4,-13,-4
55217,-49,19,-14,-10,-16,-7,3,4
55278,-21,-25,-19,3,8,4,0,-11
55339,3,-65,-2,-2,-8,-4,-4,-4
55390,-36,56,3,5,12,6,10,56
55443,-2,4,-25,-3,-7,-3,13,-5
55496,4,7,-8,-3,-3,-2,-2,-37
55548,17,-79,-12,-4,-8,-3,-3,2
55601,2,-25,19,-1,-2,-2,8,0
55658,-6,32,7,3,4,1,-1,9
55718,5,-15,-10,0,4,4,-2,-5
55782,31,21,0,-5,-2,-3,3,7
55840,-11,-9,-1,4,7,1,-19,1
55889,24,9,35,5,1,-1,-4,-5
55951,-4,29,-27,-5,-4,-3,-1,-2
56013,-15,40,-3,-2,-2,-1,-6,2
56075,-16,32,-15,-5,-3,-2,-2,1
56138,-11,44,-7,2,2,-2,-2,3
56199,-12,6,7,-1,6,0,6,10
56260,-2,-6,-9,-5,-2,-2,5,-6
56320,-1,25,-12,-1,0,0,6,-7
56379,-8,39,19,-1,-3,-1,-3,3
56434,-5,-15,14,4,2,-2,0,8
56484,-16,-26,13,0,2,1,-5,-25
56537,52,-9,-14,2,-3,-3,-3,-11
56592,100,-34,-12,3,6,0,0,-5
56642,24,60,-17,-3,-1,0,0,9
56702,-17,-15,1,2,7,-1,2,4
56762,-13,32,-1,0,-2,1,5,13
56817,-11,52,-2,-1,-2,-2,2,-5
56878,-9,-5,4,1,2,-1,-2,11
56941,-48,-15,-1,5,11,5,8,30
57004,14,-5,-3,0,-3,-3,-3,-8
57068,24,-75,15,-4,1,-2,1,7
57113,-33,2,-5,-4,-6,1,7,26
57167,-24,10,2,0,7,4,5,8
57219,29,-56,6,4,2,1,-2,-5
57271,-32,-71,-16,-3,0,1,10,0
57325,12,-18,25,1,-2,-2,-1,-2
57384,-8,-67,22,7,6,0,-5,-14
57447,32,-82,7,-6,-8,-6,-6,23
57509,20,11,-29,-6,-4,0,6,8
57575,6,1,-2,-4,-6,-5,-1,3
57618,-16,-81,10,-1,4,-1,-1,7
57682,-23,-98,10,-2,3,1,-25,-4
57746,26,13,-5,-5,-6,-6,2,12
57806,15,36,10,3,3,1,0,-6
57867,22,17,3,4,5,1,2,1
57919,1,6,-8,-4,-2,0,-1,-4
57981,39,16,15,6,3,-2,-8,-21
58045,-12,12,-26,-5,-5,-2,-1,11
58105,-27,52,17,5,4,1,1,-8
58165,-13,-15,23,-2,-3,0,7,9
58215,-14,20,12,4,3,2,1,6
58275,22,45,-3,0,4,1,-2,0
58322,-22,20,-11,4,7,4,6,3
58374,7,-75,12,1,2,1,1,-1
58427,-12,-30,0,0,1,-1,-4,-8
58483,-29,25,-24,-1,3,1,-22,-5
58547,8,-13,-13,-4,2,2,-4,-15
58607,-3,39,18,-1,-1,1,-1,-3
58658,-44,3,-3,-2,-6,-1,-4,-31
58722,7,-28,20,-3,-10,-3,0,-3
58787,5,-15,-5,0,-3,-2,0,4
58848,3,5,-25,-7,-4,-4,-6,-28
58907,24,-34,-6,-8,-5,-2,13,-19
58968,-15,49,-5,1,4,0,0,2
59028,-17,12,31,2,3,3,4,20
59073,7,41,8,-2,0,1,9,4
59126,-14,-9,8,2,6,4,5,13
59178,-28,-40,15,4,7,0,-7,-8
59230,20,27,-28,-2,-5,-5,-4,-8
59288,-5,40,9,0,-1,-4,-3,-2
59349,-21,25,5,1,4,3,7,10
59401,6,-25,-12,0,-3,-4,-14,-1
59458,-31,-16,-28,-5,-8,-2,0,-3
59510,-36,3,8,-2,-1,-3,-5,-5
59557,2,49,-26,-13,-19,-8,-8,-1
59613,40,-12,11,-2,-2,0,1,-2
59669,-1,14,6,-6,-15,-8,-5,-7
59715,18,-30,-7,0,0,2,8,-30
59770,-13,-4,0,0,3,2,18,10
59830,4,46,-25,-7,-9,-4,2,1
59876,23,-34,24,-6,-11,-5,-7,6
59929,2,33,-18,-5,-2,-1,4,11
59983,26,17,-8,-3,-3,-4,-12,4
60033,-15,12,5,-4,-2,0,1,10
60091,-6,32,-5,-1,1,-1,-4,-9
60152,-7,10,14,-6,-2,-3,0,12
60204,12,52,-1,6,8,5,9,-7
60256,-57,-3,1,-5,-4,-4,-10,-17
60315,-5,-93,36,2,-1,0,-2,9
60363,-26,55,-5,0,-1,0,-1,-7
60415,-13,-3,-9,-4,-5,-3,-9,-4
60466,-12,48,4,-6,-5,-2,-1,2
60518,1,-18,1,0,-2,-2,-15,-1
60572,31,-18,1,-2,1,-1,-6,-23
60633,-9,16,4,-1,-2,-3,2,11
60697,7,13,-3,3,7,2,-8,-1
60757,-8,-20,-2,2,4,0,-5,-7
60805,-9,7,33,4,0,-2,-3,-3
60857,-8,-49,5,2,-6,-2,3,-9
60909,9,-73,14,-1,-4,-1,-1,-7
60962,34,-8,14,1,-2,-1,1,-5
61016,-43,-2,-13,-7,-6,0,-4,24
61076,-6,8,-11,-1,2,1,2,2
61141,20,-27,-7,1,6,0,-1,-10
61196,-5,-3,-3,1,2,0,-6,-13
61246,-23,-19,-11,0,7,2,2,-3
61298,14,16,2,-1,-5,-3,1,6
61352,-9,13,-1,1,2,4,4,0
61407,7,7,1,-1,-2,-3,-6,-4
61460,33,-3,-6,-4,-12,-5,-3,4
61508,-29,-1,0,-3,-2,-1,-1,-21
61570,-11,44,3,3,5,-1,-3,1
61616,16,1,2,-2,-4,-3,2,-8
61673,-45,-21,-1,0,-1,-1,-3,11
61734,-3,54,-18,-6,-6,-4,-5,2
61796,-86,111,13,6,16,7,2,-4
61861,40,54,-4,5,3,4,2,6
61909,40,-62,1,3,2,-1,-1,7
61963,-10,-35,-3,0,1,2,17,16
62011,37,-22,-1,-6,-7,-4,2,-14
62065,-30,1,0,6,4,0,-4,2
62122,-7,28,-5,1,-4,-3,-3,-13
62179,47,2,72,9,-1,-2,-7,-16
62239,-4,-16,31,6,4,3,0,-19
62298,37,-7,-27,-6,2,-2,2,6
62351,16,79,-2,-4,-8,-7,1,10
62415,6,3,-27,2,0,-3,-1,-7
62479,3,-19,-30,-3,1,-3,-18,0
62538,-35,44,-18,-2,-2,-2,-2,-1
62601,-31,23,-13,-10,-7,-1,-5,-8
62649,-15,11,24,9,5,2,-7,-12
62710,19,18,-10,-11,-12,-8,12,2
62773,-6,12,-2,-1,-2,-2,0,11
62837,2,-73,13,-1,-1,0,5,-3
62898,-106,52,4,-12,-19,-9,-12,-9
62957,-4,-11,30,-1,-4,-1,0,-8
63012,14,-15,-14,-2,-5,-6,-11,-9
63062,-17,-33,-1,-2,1,-2,-1,-3
63114,0,86,19,5,4,2,2,-2
63167,-28,5,-2,0,4,7,-5,36
63220,23,-62,4,-5,-6,-1,-2,0
63280,-17,6,5,0,-3,-4,-2,-13
63339,-5,58,-3,0,-3,-2,-4,3
63394,27,-40,15,-4,-6,-6,-7,-41
63462,-19,3,-22,-2,-2,0,5,4
63526,28,31,-3,-4,-2,-2,-5,-6
63580,1,14,5,-1,2,2,1,1
63640,43,-74,-14,-2,-3,-2,-2,-7
63692,-25,-59,-11,-1,2,0,4,2
63744,20,-19,-30,-4,2,-1,-13,-32
63797,20,-9,-11,-5,-10,-3,-13,-16
63849,-19,-35,16,7,5,4,2,-19
63903,-16,-3,8,-1,-1,0,-1,9
63960,-5,-14,1,6,4,1,-7,-9
64023,20,-19,-14,-3,-2,-1,-3,-10
64082,4,15,9,5,4,2,3,-5
64139,-9,-36,-20,-2,-6,-2,3,4
64201,8,29,-9,-1,3,-1,4,4
64266,-2,-27,0,-1,-2,-2,0,14
64323,-38,-93,0,-2,3,0,11,22
64383,-9,-17,1,-5,-9,-3,-5,-5
64434,-23,4,5,2,7,2,-1,-14
64498,53,-17,14,-2,-2,-4,0,-5
64559,-2,32,14,-12,-15,-5,4,-37
64621,0,57,0,-2,-1,0,-2,-1
64682,26,1,12,-1,-2,-4,2,8
64744,-14,21,1,2,-8,-2,10,-7
64800,13,-34,-18,-6,-13,-4,-7,-5
64846,-48,-82,29,2,1,1,1,-1
64900,1,-13,8,1,4,1,-10,-9
64960,0,11,-7,-3,-4,2,7,-1
65025,-5,-12,-23,-8,-7,-6,-5,-7
65074,-5,89,-41,-3,5,1,-4,8
65124,-63,62,1,2,2,0,-1,5
65184,-20,13,17,4,2,0,-1,-4
65245,14,30,2,-4,-2,-4,-4,-3
65296,9,-35,9,7,7,5,4,9
65359,-11,-27,1,1,1,0,-4,12
65422,23,-54,15,1,3,-1,-6,-16
65483,20,5,13,-3,-10,-2,-13,-25
65545,-12,37,-19,-3,-3,-2,1,1
65604,-24,-2,1,4,5,3,2,-31
65667,27,2,1,-4,-8,-5,-6,-7
65715,3,-106,18,-6,-1,-9,16,15
65768,-16,8,-2,-5,-4,-4,3,6
65825,19,13,6,-2,-8,-6,5,10
65874,4,70,-44,-7,-3,0,0,-12
65927,52,95,6,-5,15,-5,-7,-17
65986,3,-84,7,3,9,-1,12,6
66051,-44,10,-37,0,5,6,10,22
66107,-15,25,-16,-5,-10,-4,-10,-24
66167,1,52,-10,-8,-8,-3,-7,-3
66220,2,-25,2,-1,-3,0,-8,-16
66283,-22,19,-26,-2,3,-2,-4,-1
66346,-14,66,-13,2,-25,1,-3,16
66407,4,-6,-18,0,3,-1,-5,-11
66467,-48,14,6,-3,17,-2,-5,-3
66528,-4,-34,-2,3,1,1,-4,-2
66572,-5,9,-10,-2,4,1,2,10
66624,-8,35,-26,0,0,-3,-6,6
66677,-18,16,4,-2,0,4,-6,-2
66730,-7,-10,-13,-1,-23,-2,-4,4
66787,22,-39,18,-2,0,0,1,0
66849,31,17,5,0,3,-3,3,12
66910,-11,0,-29,0,1,-1,-8,-3
66971,22,-8,-22,-4,-4,-1,-2,2
67022,4,4,12,7,15,-6,-3,-13
67086,-49,18,-15,0,8,6,8,42
67148,-2,-2,-11,-4,-6,-3,10,-14
67210,0,-5,-16,-5,-1,-2,-1,-7
67270,5,-15,-15,-3,0,-2,-1,5
67323,-17,31,-29,-4,-1,1,-5,2
67373,-19,-20,-19,-2,1,-3,-2,-8
67428,-4,24,-26,-1,2,0,-6,-4
67483,-22,-16,3,-2,-3,0,1,-1
67532,-24,75,5,-1,-1,0,1,3
67583,29,4,4,-3,-1,0,1,-4
67636,50,-40,2,-4,-1,-1,0,-5
67689,63,4,21,1,2,0,0,-2
67741,-3,52,15,-4,-2,-1,-4,-18
67802,-22,-45,3,-2,-2,-4,-16,-12
67847,36,53,-21,-3,-3,-2,-1,5
67900,-14,65,-13,-6,-2,-4,-5,-6
67951,-34,30,-6,3,-3,-2,-3,5
68006,36,-13,-4,3,2,-2,-3,5
68056,14,-37,10,2,-2,-2,-1,-1
68111,-24,-39,-10,-3,-2,0,-4,-2
68161,1,8,-2,0,1,-2,-1,8
68219,6,25,7,2,4,1,-2,-4
68272,-32,43,4,3,1,1,-1,-11
68334,-34,-17,6,-2,-1,-3,4,2
68395,-9,2,-7,0,8,4,-14,0
68455,-6,4,-1,4,-2,1,6,-6
68507,-20,37,-7,-3,-4,-1,-3,1
68562,10,44,-4,0,3,0,9,9
68615,-8,-28,0,-2,-1,-1,-7,2
68666,20,-5,-8,-2,-3,-3,4,10
68715,0,38,11,1,-1,1,0,0
68769,-24,-5,-12,-2,2,0,-2,-3
68825,10,21,-18,-5,-1,0,-2,9
68881,2,1,-9,1,1,-1,-3,-9
68936,-22,8,-20,-3,2,0,1,-6
68996,4,24,0,-3,-5,-1,2,-25
69048,-30,50,-2,2,3,-1,-3,1
69104,44,33,43,6,9,2,9,0
69151,26,-67,46,5,-1,-4,3,-4
69205,-6,-19,-5,0,4,2,3,-11
69266,-26,51,1,4,6,0,4,10
69317,-36,0,1,0,0,2,1,7
69378,-31,4,-7,-2,-9,-6,-4,-10
69428,33,74,-31,-3,0,-2,7,-19
69492,5,-70,26,6,0,0,0,-22
69557,-3,-2,6,2,2,-1,-2,2
69620,-27,-34,-2,-5,-14,-6,1,-19
69677,23,-55,-3,0,5,2,-4,-21
69729,-13,28,51,-1,-6,-1,-1,-6
69792,12,-14,7,-1,-10,-5,6,9
69855,3,23,-9,-2,-2,0,-2,-1
69918,3,10,0,-5,-2,0,14,-5
69977,6,18,13,0,3,0,-4,-13
70036,-3,17,-4,-2,-4,-2,-6,-5
70100,11,9,28,3,-1,0,-1,20
70163,11,34,3,-1,-2,-1,2,10
70217,-13,-31,3,-5,-9,-4,-3,9
70279,-7,-30,4,-3,-1,-1,-16,8
70329,11,-27,13,2,3,1,5,-7
70387,-5,29,8,-4,-4,-2,-8,-9
70435,-2,18,-12,-1,0,-2,-1,-2
70490,-5,-106,9,3,-1,-1,-3,5
70539,-6,10,-9,0,1,-2,1,2
70595,-19,-6,3,3,5,2,4,0
70658,-11,54,17,-3,-9,-5,-8,-17
70720,-8,-5,-9,1,0,-1,1,13
70781,1,68,20,2,1,-1,-4,7
70836,4,-2,0,1,5,2,2,-2
70899,26,-7,7,-1,-2,-3,-1,-2
70955,1,1,-5,3,2,3,1,1
71017,-12,47,7,1,1,1,2,8
71079,11,-42,8,-1,2,1,0,5
71140,-10,34,44,-1,-2,-5,1,-8
71191,-5,33,-1,2,1,-2,-1,-5
71254,29,30,19,-4,-5,-1,2,1
71317,25,-8,-12,2,2,-1,11,33
71381,14,-31,2,2,4,1,-3,0
71441,26,-26,10,-3,0,0,0,-5
71493,-25,-36,-10,-1,3,2,-2,-10
71544,16,-18,-17,-8,-14,-9,-5,5
71601,5,52,-16,2,5,0,-6,1
71650,10,15,-4,-1,1,0,-1,8
71702,13,-3,10,2,4,2,2,-1
71762,12,-3,-7,1,3,1,-1,-2
71824,-2,1,7,-1,-2,1,-2,-28
71886,-8,50,-11,-3,-1,0,-2,-10
71936,-13,115,7,-3,-4,-5,-25,-33
71999,-12,-17,0,-6,-3,-1,1,2
72062,37,9,-2,-1,0,-3,-6,24
72122,13,-91,-12,-5,-5,-1,2,-3
72177,-11,0,8,-1,0,-2,-5,-8
72240,-25,7,-20,-4,-4,-2,2,1
72302,-3,23,5,-4,-5,-3,-2,-5
72362,7,25,6,3,7,3,-4,4
72413,7,18,9,2,0,-2,-1,-6
72465,9,-1,2,0,4,1,4,-4
72523,12,56,38,4,-3,-1,-5,-4
72579,-13,24,-15,-1,-8,2,4,7
72642,2,-2,6,0,1,-3,-4,3
72686,-1,-19,-10,-6,-3,-4,-3,14
72743,8,-35,29,2,-4,2,2,-6
72804,9,7,-4,0,-5,-1,0,8
72866,-2,27,-11,-4,-2,-3,6,25
72917,-57,-3,-15,-4,3,1,3,39
72979,-21,20,-4,-1,-2,-1,-5,2
73043,15,-17,-15,-4,-5,-4,-8,20
73105,16,-2,-24,-5,-1,-1,3,0
73165,17,-47,32,4,2,-1,11,-4
73219,15,8,-7,2,0,-3,-6,-3
73269,-14,19,-12,-3,0,-2,-2,0
73322,18,-3,-5,-3,-4,-1,-18,7
73377,22,-3,18,1,2,-2,-5,6
73428,-13,-42,16,5,5,1,0,-4
73492,2,-9,1,2,3,0,0,5
73548,-21,35,6,2,0,-1,-3,-11
73607,-1,5,-1,-1,3,-1,10,1
73657,-59,93,-18,-3,-8,-2,-15,-55
73721,14,-32,-6,-5,1,-2,-1,-6
73782,-5,-30,3,5,4,4,1,3
73846,9,35,-8,-6,-3,-2,-8,-8
73909,51,-18,17,0,-2,-1,1,2
73967,2,-112,-16,1,9,4,0,-11
74022,-10,-18,8,-1,-1,2,-3,3
74082,-14,-13,6,0,0,-2,-6,-3
74146,-8,1,9,3,-6,-6,-14,-29
74207,1,8,3,-6,-4,-2,10,5
74267,37,-25,1,-1,1,-1,0,-6
74322,8,12,3,-1,-1,-4,-4,2
74371,-17,6,35,5,3,3,3,8
74424,20,102,16,1,-3,-4,-4,-10
74478,-24,-3,-8,-3,-5,-2,-1,10
74531,-6,3,-19,-2,2,-1,2,9
74589,-31,-20,39,8,9,4,-10,-47
74649,-24,20,-21,-5,-1,-2,-2,7
74701,-17,30,-13,-2,-4,-2,-4,-2
74765,-1,-54,6,1,3,0,-3,-6
74826,15,19,6,1,1,-2,1,2
74889,7,-25,-5,-2,-2,-1,-5,9
74949,-26,-56,-16,1,0,-2,-1,-1
75001,-1,-27,-26,-3,-4,-1,-2,-8
75064,11,-41,11,-3,3,1,-2,-11
75127,-26,21,-7,0,-3,-2,6,10
75190,-16,-47,27,1,-3,-4,-3,9
75249,2,-4,-2,-1,4,0,3,-6
75300,-45,37,-17,-1,-6,-3,-1,7
75355,-30,-54,-36,-7,-1,-3,1,17
75407,11,22,3,-8,-6,-4,-3,7
75458,28,-35,-13,-7,-4,-4,-8,-7
75512,-29,22,0,5,10,4,4,4
75566,8,-12,17,2,2,0,-5,-7
75630,16,-15,-4,-5,-6,-2,-3,1
75692,-26,4,30,4,1,-1,-3,-10
75751,-28,4,4,-1,-7,-2,-2,-1
75804,-5,-14,5,2,0,-1,-1,4
75862,3,19,2,1,3,0,-1,3
75910,-15,24,-5,-1,-2,-1,-6,-2
75961,11,-4,-1,-8,-7,-2,3,0
76014,5,26,-1,-8,-8,-3,-2,-7
76073,-14,54,20,2,-2,-2,-5,-6
76134,-42,53,-3,-6,-8,-5,-2,-9
76186,-33,8,-9,0,-1,-4,-7,-4
76238,11,25,-13,-1,-2,-2,5,21
76300,19,-3,5,0,1,2,3,2
76345,0,-28,28,5,3,-1,0,-14
76399,2,-38,-16,0,6,4,9,17
76448,-22,26,25,2,2,-3,-10,-7
76501,19,-8,-15,-6,-6,-3,-7,1
76556,3,-18,7,4,-2,-3,-2,-1
76610,0,-95,-14,-3,-1,-2,0,2
76673,11,51,0,1,2,-1,-2,4
76735,-46,13,13,4,-1,3,8,-11
76798,10,20,24,0,3,1,1,2
76850,9,-57,-16,-5,-4,-2,-4,-9
76899,2,38,-15,-3,-7,-4,-7,-3
76954,3,-17,3,2,2,0,-4,-13
77004,38,26,-16,-2,0,-1,2,3
77058,5,1,15,1,0,0,-2,-1
77116,-16,58,-16,-6,-6,-3,4,33
77178,-4,35,8,-2,-3,-1,1,1
77239,40,28,2,-4,-6,-3,-9,-25
77288,-7,63,-13,-2,-1,-2,4,0
77342,10,-24,1,1,-1,1,-2,1
77394,19,-49,-8,-2,-5,2,7,17
77445,-5,-63,-17,-6,-3,0,0,-1
77498,-25,1,-3,-4,-2,-1,6,2
77558,25,44,-15,-1,0,-1,-11,-2
77604,-16,-10,-17,-4,-3,-4,-1,-8
77658,2,-31,23,3,1,2,-5,4
77717,-3,-11,6,-1,0,2,6,6
77780,-23,1,-27,-3,-1,-4,-4,-11
77838,13,22,-25,-1,1,1,6,5
77897,16,28,13,-3,-10,-5,-6,-18
77949,-12,-108,4,-1,-3,0,-10,2
78000,41,-74,12,-2,5,1,-3,-9
78062,-22,59,-20,-5,1,-2,-5,3
78108,-12,43,3,-1,5,4,3,-7
78161,17,-3,10,0,-4,-3,-3,0
78220,-11,22,-8,-2,-1,-3,-4,2
78285,-21,35,0,-1,-1,-2,6,25
78340,6,37,-33,-8,-3,0,0,-1
78391,-19,-19,2,-5,-8,-3,-3,-6
78454,-3,-26,-11,-5,-2,0,6,11
78518,-16,16,22,-3,-5,-1,1,2
78579,51,-47,-15,-6,-3,-2,1,20
78639,-10,2,1,4,3,2,-2,-8
78699,14,-3,13,-2,-5,-3,2,8
78754,-21,70,-16,-4,0,0,5,8
78817,-26,33,27,0,-6,-2,-6,-2
78881,45,-10,-29,-2,0,0,2,-7
78943,10,-78,17,-1,-4,-3,-2,7
79003,-14,10,-13,-7,-2,1,-17,-8
79052,-38,-29,2,-2,-5,-3,-11,-3
79103,-26,-24,-30,-7,-7,-2,-2,-12
79156,-12,-65,7,2,2,1,-1,-12
79210,42,0,24,3,1,-2,-8,-9
79262,4,93,9,-3,-4,-3,-6,1
79324,29,18,1,-3,-3,0,-4,-9
79387,-2,-65,-5,-1,0,-1,-7,-2
79453,-34,64,20,1,-6,-2,-8,-39
79493,-34,-8,4,-2,-4,-3,-2,-13
79556,-55,9,-5,3,1,2,-2,-22
79618,0,-89,-4,-1,0,-1,4,4
79681,1,29,-14,2,-4,-4,-2,-2
79743,-6,11,-4,-3,-5,-2,6,5
79804,-18,5,-20,1,4,0,-1,0
79855,16,-57,4,-4,-1,-1,5,-19
79906,26,-3,-14,-3,1,-1,-3,1
79960,-28,4,-1,-1,1,0,-3,0
80013,-13,2,-22,-3,-1,0,-5,4
80065,-7,-102,-4,-5,-2,-2,6,-7
80124,-4,23,-18,-6,-4,-3,-1,9
80186,30,8,22,2,3,-1,-5,-12
80245,-29,97,-33,-7,-10,-3,-11,13
80307,-15,14,21,6,6,3,3,2
80356,16,-83,30,8,6,1,-2,9
80419,-2,10,25,2,-11,-5,-4,4
80483,17,-36,-17,0,0,0,6,1
80545,19,-10,21,3,0,-1,0,-2
80605,-18,-24,1,0,-1,0,5,24
80660,-6,-2,-10,1,-1,0,-2,-15
80723,34,-55,-8,-4,-8,-2,2,-2
80785,-1,56,-28,-2,1,-1,0,7
80845,-19,-8,4,-4,2,1,-2,13
80905,-43,79,22,2,6,2,-11,-31
80964,20,-23,0,-1,-4,-3,7,7
81028,-7,24,1,0,3,1,3,-16
81088,27,30,3,0,-3,-3,-6,10
81145,10,-27,11,1,0,1,0,2
81199,-7,-67,23,7,4,1,2,-10
81249,4,18,-16,-4,0,0,-5,3
81301,16,8,-18,-6,-7,-3,-15,-6
81356,-23,31,38,3,-5,-1,0,7
81408,-20,4,32,5,1,0,2,-2
81473,-7,-15,-15,-2,3,1,2,14
81528,34,-14,-14,-6,-7,-3,1,-5
81589,0,119,-31,-2,8,0,-7,-22
81640,29,-23,-23,-9,-9,-5,-7,-9
81703,-14,17,-10,-2,-2,-1,-3,6
81767,-3,45,15,-1,-1,0,2,8
81830,54,-90,-18,-2,2,-1,-5,-7
81878,2,32,12,2,4,1,-18,-13
81932,-23,-25,0,0,4,2,-1,-5
81985,4,39,25,3,2,0,-2,5
82035,0,-29,9,1,-1,0,2,20
82090,-23,80,-6,1,-2,-2,-3,4
82144,-53,15,3,4,4,2,5,0
82208,19,59,21,0,0,-2,-2,-1
82270,-3,-29,-17,0,2,0,-4,-4
82329,-1,0,31,0,-5,-3,-4,-24
82381,-4,17,-2,-6,-3,-3,5,5
82437,-26,-98,-4,-1,-6,-4,-1,-4
82489,-1,33,-4,-1,3,-1,-1,1
82548,-5,-11,-4,1,3,4,6,-17
82600,-22,-50,12,-3,-4,0,-2,2
82652,-30,29,6,-3,-5,-3,-2,-4
82711,52,23,-1,2,0,2,-3,-6
82772,-29,-16,-11,-5,-4,0,-4,-4
82823,-2,35,10,1,3,1,-9,-1
82888,23,-3,10,2,4,0,-2,-1
82948,7,12,-17,-3,-2,-3,4,1
83010,7,23,1,-2,0,-2,1,1
83074,21,3,-6,-2,3,2,-1,-3
83122,9,56,4,3,5,2,-2,13
83185,27,46,0,-3,-3,-1,0,9
83250,15,-1,-7,0,0,-4,-1,4
83313,-18,-3,7,1,1,2,2,-15
83372,16,-3,11,2,-1,-3,1,-2
83425,52,-44,2,-2,-1,-4,2,3
83477,2,1,22,1,5,2,-1,3
83530,-21,-44,-21,-7,-5,-3,-3,-1
83580,-28,-3,-25,-5,3,0,14,3
83641,33,16,-8,0,0,-2,1,-9
83694,-31,-1,-1,2,3,0,0,-3
83755,40,36,-10,-3,-5,-4,-2,6
83806,20,15,-22,-3,0,-1,-4,-6
83858,-10,6,-24,-5,-5,-4,-15,-3
83912,-4,0,18,-5,-2,1,2,-1
83962,-12,-40,-4,1,-2,-2,-4,0
84023,-13,-25,15,-4,-4,-4,-2,-10
84069,28,-3,13,0,2,0,-5,3
84120,-6,-2,-4,-1,2,2,3,10
84174,15,-53,17,-3,-6,-4,-2,-22
84230,-16,9,16,-1,-7,-4,0,4
84294,12,68,-5,1,-1,-2,-5,0
84355,18,27,5,-4,-4,-4,-7,-9
84415,-2,29,-17,-1,1,-1,-2,8
84466,31,106,-5,-8,-7,-7,-3,-4
84520,36,33,3,-5,-2,-6,-3,2
84572,30,3,16,-1,-11,-2,-10,-17
84633,4,9,-11,-4,2,-3,4,3
84688,8,-16,45,6,6,-3,3,0
84737,-14,-48,16,3,5,1,-1,-7
84796,-4,-103,-10,-5,2,2,4,6
84858,5,-10,30,2,4,3,-2,5
84909,24,17,24,-1,-1,0,10,1
84964,10,-23,-5,-6,-11,-4,5,-7
85013,-19,-20,-39,-6,-3,0,-2,-2
85074,-5,-15,14,2,3,2,9,-11
85135,-4,-6,-14,0,-5,-1,-4,-8
85194,-8,35,-15,-2,2,-1,-1,9
85247,-4,-1,0,0,-2,1,0,-5
85299,15,13,2,-1,1,-1,3,-2
85350,-2,31,1,-2,-1,-4,-4,1
85404,-6,56,-18,-1,-1,-1,0,-3
85458,20,2,4,0,-3,-4,-5,2
85515,0,13,-15,-1,5,3,-2,5
85576,4,42,4,-2,2,-2,-1,-28
85639,-9,18,-2,-2,-26,-1,2,1
85702,-2,-24,-2,-2,1,2,-12,-6
85751,30,2,7,-3,-3,-1,0,-8
85815,-27,1,5,3,-3,0,4,1
85877,-30,27,-11,-2,-3,0,6,9
85937,-5,-24,6,2,1,0,-4,-5
85990,-14,54,-4,-1,-2,0,5,-4
86041,0,-51,-1,4,3,2,5,-1
86093,-1,-8,-9,0,3,1,3,-2
86152,-23,12,-25,-2,-1,-1,-2,-9
86207,-7,-7,-3,-1,-2,-2,3,3
86259,9,2,-4,-2,3,0,-7,-5
86320,8,9,-10,-2,-2,-1,11,-4
86380,-44,6,0,-3,-14,-4,1,-8
86438,-21,-7,5,-1,3,2,1,-12
86485,17,-27,10,-3,-3,-5,-2,-1
86538,4,8,-58,-8,-4,-4,4,3
86589,15,25,15,1,-7,0,2,5
86643,-14,14,-2,0,2,0,3,-1
86698,14,0,12,1,0,-1,2,5
86760,-43,-25,-31,-1,1,5,11,25
86824,18,-20,8,2,0,0,8,0
86881,1,-6,5,-2,-3,2,11,5
86935,-14,98,32,4,-5,0,-4,-40
86998,23,-76,25,3,-3,0,1,-3
87061,59,-21,-2,0,1,0,-6,3
87122,-28,14,1,-4,-6,-2,9,-1
87182,-33,74,-21,-6,-7,-3,0,6
87233,-3,-1,-15,-2,3,2,3,-3
87298,53,30,-16,-4,0,0,-6,0
87345,5,68,-13,0,2,2,2,6
87399,14,20,2,1,0,-1,-1,-1
87458,-29,-13,0,0,0,-3,-5,-3
87505,4,-18,23,0,1,1,-5,10
87564,-10,23,-5,-2,-1,-1,-2,-3
87624,35,-6,-14,-1,-1,-2,-4,32
87675,-4,-2,-21,-4,-6,-2,-1,5
87739,-13,-7,-8,-2,-1,1,2,0
87790,-7,82,-4,-3,1,0,4,5
87842,-27,24,16,0,-3,-3,2,3
87898,5,-35,28,-2,1,0,2,-1
87947,-10,59,17,3,5,2,4,7
87998,-1,-36,-9,-1,-1,2,7,8
88055,6,17,-2,-5,-6,-1,-3,-3
88105,-36,2,15,-1,2,0,-1,-4
88165,-3,20,16,0,2,2,2,16
88229,-1,54,17,-3,-8,-5,-6,-6
88277,-2,-70,-8,-3,1,-4,-1,-2
88340,2,-126,9,0,0,1,1,2
88403,17,11,-8,-4,-9,-1,-2,-1
88465,-2,35,-19,-5,2,-1,-4,-2
88526,4,-76,-18,-3,-1,1,6,9
88580,81,51,3,-2,-6,-3,-2,-12
88642,-4,-5,-23,-8,-9,-5,-4,-1
88705,2,14,1,-2,-20,2,6,7
88769,2,12,-16,-3,0,-3,4,-5
88825,-14,24,-4,-10,-24,-9,4,0
88877,-31,-102,31,6,10,4,1,1
88929,-42,-48,1,0,3,1,-2,3
88988,-22,-7,-1,-3,2,3,7,40
89037,-10,12,12,2,-1,0,-25,-2
89096,-24,49,14,-1,-2,1,-1,7
89151,6,10,-19,-5,-2,-1,1,-7
89207,12,15,33,8,2,-1,12,-5
89267,-86,26,-24,-4,4,0,-1,-13
89319,-16,14,-10,1,4,-1,-7,2
89375,41,-21,-32,-3,1,-2,-8,-5
89424,13,3,13,-1,1,-3,1,6
89477,5,-30,-18,-8,-4,-7,4,-12
89530,9,92,23,-3,-5,-1,0,-12
89584,17,-24,16,1,1,-1,-1,0
89646,-12,18,24,-4,-4,-3,-8,-18
89709,6,15,3,-4,-4,-4,-4,-8
89771,-23,42,1,-3,0,-1,-3,4
89830,52,22,-29,-5,-4,-3,-2,-3
89880,-21,40,9,-7,-8,-3,7,-3
89945,-5,45,16,1,2,-1,-9,-23
90005,-51,-6,-14,-2,-4,-1,12,2
90068,9,-5,6,-4,-10,-4,2,1
90131,1,-39,-29,-3,2,0,0,7
90190,-18,69,3,6,12,6,10,-7
90240,-16,69,2,5,5,-2,-2,-26
90294,6,7,8,0,6,2,-23,-17
90347,-34,10,-29,1,1,1,3,2
90397,-14,-19,23,5,-2,-2,-3,-7
90453,-6,11,-12,-2,5,4,0,4
90507,-11,-19,6,-2,2,0,5,8
90570,40,-11,-12,-1,2,0,3,-4
90632,-14,-34,28,2,-4,-3,3,1
90693,-33,-5,-1,4,0,-1,-4,-3
90743,-73,14,-35,-7,1,1,-1,2
90805,-2,62,1,-3,-2,1,9,3
90869,51,-24,-15,0,1,-2,-3,-10
90932,6,-20,-2,-1,3,0,4,0
90992,41,15,0,-6,-1,-3,-4,-4
91044,-27,9,-14,-1,3,0,2,8
91106,-8,4,23,1,2,0,-2,0
91169,7,41,17,4,1,-1,8,15
91233,-20,2,-11,-1,-3,-1,-1,-7
91292,-9,-25,-9,-2,0,-3,0,-19
91345,-38,21,-22,-3,-1,-1,-2,-14
91396,-39,-92,29,3,7,2,0,-12
91450,-6,-15,-9,-3,2,-1,-7,4
91501,-8,-53,-4,-4,-3,-2,-3,-6
91555,20,19,13,2,-3,-2,2,4
91614,-3,16,19,7,3,2,2,8
91673,16,-4,0,1,2,2,-6,2
91731,-9,60,-14,-1,-6,0,1,-7
91779,-13,12,15,6,2,-1,5,19
91832,12,-33,-13,-2,-2,-1,5,-1
91884,4,-43,-17,-2,-1,-2,-8,-38
91936,-9,-69,-6,5,6,2,14,3
91989,33,55,-55,-5,-1,-3,0,-5
92045,-46,13,18,7,7,6,0,-50
92095,11,-9,-9,-6,-4,-6,-4,11
92154,6,-2,-37,-7,0,0,-7,4
92214,4,-21,28,4,4,0,-2,13
92274,-33,35,-5,2,-1,0,4,2
92327,-11,48,-27,-4,-2,-4,0,16
92378,-47,-11,14,3,5,5,4,3
92432,9,12,5,0,-4,-2,-5,-12
92485,7,-13,-12,-3,2,0,-4,-2
92536,-24,21,6,3,5,3,4,-6
92595,-36,44,-16,-3,1,1,-5,-1
92657,10,40,-12,-5,-3,-1,-2,-17
92717,-7,29,-13,-7,-3,-2,-3,-2
92776,16,-107,12,0,-6,-5,-13,0
92838,4,-11,-23,-3,5,3,3,13
92891,1,-26,-12,0,1,2,0,1
92941,0,0,-41,-3,-4,-1,1,4
92994,-14,-3,9,-2,-5,-1,4,2
93051,0,18,-16,2,0,1,0,1
93100,-33,-11,1,7,-1,-2,3,0
93160,25,44,1,-1,1,-2,-4,10
93221,16,50,-6,-5,-4,-3,2,-14
93276,21,-62,19,9,9,1,0,-10
93324,23,55,3,4,9,1,4,11
93377,8,-72,0,-2,-13,-6,9,8
93430,3,-21,-20,-3,-1,-2,-5,-6
93481,44,-50,-3,-6,-3,-3,0,24
93534,31,-79,25,1,3,-1,-2,5
93588,-29,-100,-8,-2,0,-4,5,-5
93640,-44,-4,-5,-2,-4,-4,9,-16
93698,-32,47,30,7,7,2,11,3
93760,-20,56,10,-1,5,1,-5,-1
93821,41,-75,44,6,4,2,-5,-11
93884,30,20,-7,-1,0,1,-7,-14
93936,-33,28,-2,1,3,0,2,2
94000,40,17,30,1,2,-2,-3,5
94062,5,-38,-16,-4,-1,-3,-6,-13
94120,33,21,12,0,-5,-4,8,16
94173,28,-1,2,1,1,-1,0,-3
94237,28,53,-31,-7,-6,-1,-20,6
94300,53,-46,-1,-4,-5,-2,1,-8
94362,-14,-52,-11,-2,0,-2,0,-12
94411,-26,13,-12,-1,3,0,6,5
94465,-53,-72,15,0,6,1,-2,-6
94516,-33,46,-11,-5,-7,-3,-4,0
94577,-13,-49,0,2,6,3,7,12
94622,-14,43,-29,-6,-4,-2,0,3
94682,-17,-8,11,-1,2,0,3,-15
94744,19,-4,-24,-5,-9,-5,-5,7
94802,23,27,-29,-4,-5,-1,5,21
94861,26,-49,15,-2,-10,-6,-8,-34
94924,-10,1,-36,-7,-9,-7,-3,0
94988,-3,-22,0,1,0,1,1,-4
95043,28,-26,-17,-5,2,0,-6,-5
95094,-13,1,-4,4,8,3,-1,-1
95146,-38,32,-15,-5,-5,-2,3,5
95208,-5,-32,-4,1,4,2,-1,3
95253,-17,15,-11,1,7,3,-4,6
95305,-54,-9,2,-1,5,1,0,-14
95361,13,19,-6,3,2,-2,4,-8
95425,-19,31,7,-2,-3,-2,2,1
95485,-17,-5,21,2,0,-3,2,4
95545,32,-22,-21,-6,-2,0,10,2
95597,14,-12,-18,-7,-7,-5,3,-5
95661,26,-31,-21,0,6,2,11,-3
95725,-11,36,8,-4,-11,-3,-2,-27
95785,7,30,-7,0,4,0,-6,-6
95847,24,44,-13,-7,-3,-1,-6,-13
95900,-8,-36,28,5,1,0,-8,-24
95948,24,2,11,4,2,2,1,4
96006,38,13,5,-5,-2,-6,-4,-1
96056,-5,-128,-13,-1,-4,-2,3,-5
96114,-12,12,-22,-3,-2,-2,-4,2
96167,-16,67,-15,1,5,1,0,12
96227,16,-10,8,6,2,0,1,-1
96280,4,-20,19,-3,-4,-1,-3,1
96343,-20,48,-1,0,-4,1,1,7
96392,19,24,14,0,0,2,-1,-1
96445,-1,-118,-16,3,1,-1,-6,-3
96497,-10,-31,40,8,6,1,-1,13
96549,21,18,6,-3,-9,-2,4,7
96604,4,6,-18,1,3,-1,-5,3
96657,7,45,35,2,-4,-3,-1,2
96708,-15,64,-23,-3,0,-1,0,4
96769,-16,34,-1,1,2,2,4,10
96829,-52,76,23,1,-2,0,6,26
96877,-34,-38,9,-2,-4,-2,-4,-3
96931,15,29,-16,-2,1,0,-2,3
96986,-13,20,28,5,8,1,-9,-19
97038,-10,-5,-14,1,12,4,-27,-3
97090,-19,0,-14,-3,-4,-5,-8,-4
97148,25,-12,-3,4,7,2,8,-8
97211,1,-32,9,3,5,2,3,-1
97270,-1,-9,-2,1,3,0,-19,5
97323,-19,22,-12,3,6,3,5,-9
97387,12,56,15,6,14,5,-4,5
97449,20,-108,7,-1,-3,-2,-7,-5
97510,-38,-12,3,0,-1,0,-6,-4
97571,-25,-6,11,3,5,2,3,-3
97621,10,-42,-23,-6,-2,0,6,2
97684,-47,-15,-1,1,3,1,-3,4
97747,-24,-17,17,3,-1,-1,-5,-3
97810,0,33,8,0,5,4,6,13
97872,-5,-15,-17,-4,-1,1,-9,-15
97927,-14,45,-2,0,3,0,-3,-3
97973,12,62,-28,0,2,-1,6,-1
98027,-20,38,30,3,2,-1,4,-1
98087,-8,-13,-13,-1,-3,-4,7,-6
98150,18,-16,5,3,-4,0,0,6
98192,-1,61,-12,-5,-2,-2,-3,-3
98251,3,34,14,-2,-3,0,13,6
98314,32,-90,22,5,5,4,5,-14
98363,-13,-43,26,3,-5,-2,-2,3
98425,49,8,-25,-5,-3,2,4,5
98487,6,58,56,7,5,1,-6,-6
98550,33,34,-7,0,-5,-4,-8,-13
98612,9,30,-4,-2,-4,-4,-7,-6
98672,22,-55,17,2,-2,-2,-18,2
98725,-10,-51,-14,-5,-6,0,5,9
98787,-9,-28,-10,-3,6,1,-3,2
98851,1,16,-6,-2,-2,-1,-1,-1
98915,-8,-22,6,-2,0,1,0,2
98963,-21,-97,7,0,1,0,-1,1
99018,-67,-3,52,7,11,2,-1,-22
99069,-24,-11,-11,-5,-1,0,0,-9
99122,-16,14,-1,-1,3,-1,0,-14
99176,-22,51,-37,-6,-6,-3,-1,2
99232,-15,73,-3,0,0,-1,-4,9
99297,-52,-7,3,-5,3,0,-17,-11
99354,-10,17,-28,-12,-17,-11,2,7
99413,-80,39,-1,2,9,3,5,10
99471,-17,-17,-29,-5,-5,-2,7,14
99519,-47,-107,7,2,-3,-4,-1,9
99570,68,28,-13,-4,-3,-2,-1,-3
99630,11,-24,19,-3,-7,-4,-7,-35
99677,52,-80,55,5,0,1,7,3
99735,5,-14,-7,-2,-3,-3,-3,2
99798,-22,24,-10,-5,-3,-2,2,0
99857,-40,86,9,4,4,3,3,-8
99909,12,-18,-1,-1,-7,-7,-15,-5
99961,-19,21,-10,1,3,1,3,9
100014,-7,6,11,-1,4,1,-6,2
100064,2,-5,-27,-4,-5,-4,-2,-2
100119,-36,-26,-5,0,2,0,0,5
100171,-2,27,-7,-2,-2,-1,-3,4
100223,-31,-66,-7,0,6,4,1,-9
100276,0,-43,-2,5,4,1,-8,-13
100336,11,30,-13,1,1,-1,-8,-10
100398,-11,25,-6,2,-2,-3,-4,8
100463,30,70,4,-10,-27,-11,-12,-22
100508,-15,-46,-22,1,7,1,-3,-5
100561,7,-16,-8,-2,2,-1,7,-25
100614,-12,-10,-26,-8,-13,-7,-3,-2
100665,-4,-15,19,4,5,2,-3,0
100719,2,38,16,0,3,1,14,-7
100783,-13,36,-25,0,4,0,0,0
100832,10,-8,1,-2,-2,-2,-8,-21
100884,1,-49,-17,-3,-7,-3,-3,0
100934,24,6,-6,3,4,2,-4,-14
100996,-26,68,28,3,6,2,5,8
101056,-4,22,4,1,2,-1,-2,3
101109,-11,-29,12,7,5,2,5,-8
101166,-2,25,-28,-4,-3,-1,-4,5
101214,0,-12,-14,3,0,1,-3,3
101266,-23,54,-8,1,5,1,1,4
101320,-8,-7,31,4,6,2,-4,18
101377,8,-87,16,-1,1,0,3,4
101439,-29,-16,-4,2,5,2,-1,-18
101500,12,26,24,0,-10,-3,-18,4
101560,7,66,-23,-14,-12,-3,7,-4
101614,-62,-111,2,-2,4,-1,10,13
101667,23,27,-18,-2,1,-1,19,3
101716,-78,27,12,9,5,3,3,-10
101775,-6,50,24,-4,-4,-1,4,11
101822,22,-28,2,-3,-4,-4,1,-21
101880,17,-84,53,12,0,-2,8,-13
101943,-8,-1,21,8,1,-2,6,-12
102002,12,-22,1,-1,2,1,6,11
102063,-31,-81,17,3,1,3,-2,-2
102117,27,-6,-4,-3,-2,-5,6,2
102183,19,-78,-21,-4,-4,-2,-4,-2
102242,-8,33,1,2,4,1,3,7
102302,-11,8,1,2,7,3,-6,3
102362,15,-64,21,-1,-2,-1,-10,-14
102418,25,47,-16,-7,-14,-5,-2,3
102482,-14,9,-2,0,-3,-2,-6,-7
102541,-14,0,2,-1,-3,-1,2,8
102603,40,5,-7,-1,2,0,3,4
102653,-23,-47,-5,-5,2,-3,-2,4
102705,-1,-32,23,3,0,1,0,-8
102759,-5,52,-20,-5,-1,-1,4,17
102811,3,14,7,-7,-14,-6,-6,-5
102866,2,42,-31,-5,-9,-2,-7,-4
102922,-11,45,-12,-4,-4,0,5,3
102985,-42,-25,-13,-2,-2,0,16,0
103045,-25,-17,11,-3,-9,-4,1,-3
103105,14,-86,4,1,0,-1,-5,-24
103159,-25,42,-22,0,7,2,-3,3
103223,-9,-21,0,-1,3,-1,-3,-1
103285,15,36,23,2,2,0,3,3
103347,-52,52,-22,-1,1,1,7,22
103399,-5,-48,-9,-1,4,-1,1,-6
103459,20,-33,-11,-4,1,0,0,-3
103523,-5,3,-4,-2,-3,-2,4,3
103584,-18,24,-26,-4,-1,0,2,-4
103647,-5,5,4,-3,-6,-4,-4,-4
103704,7,4,4,-6,-5,0,-15,-1
103764,-30,-67,-9,3,7,3,5,9
103818,-26,9,-9,-2,-6,-2,-1,13
103880,51,-7,31,6,4,-1,-3,3
103923,24,33,4,-3,-3,0,-1,-2
103977,-32,79,-13,0,2,-1,-1,-8
104027,-32,74,9,2,2,1,-4,-26
104084,-10,12,9,5,3,0,0,-2
104147,14,19,4,-3,-6,-3,-6,6
104206,-19,-20,18,2,-2,-3,0,10
104269,-8,-13,-4,-3,-2,-1,-3,12
104324,-14,-62,-1,0,0,-1,-4,5
104391,-24,44,-34,3,4,1,-4,5
104445,27,0,-17,-3,-5,0,-1,1
104509,-16,-25,-5,-4,0,-1,6,7
104567,-25,-17,2,0,-1,-2,-2,4
104621,-43,69,7,3,8,1,-5,-11
104676,0,-61,-18,-6,0,1,10,4
104723,48,51,-34,-4,-1,-1,-5,-6
104786,35,-13,0,3,-3,-1,-2,-18
104838,-21,32,8,-3,0,1,6,12
104897,20,-3,36,8,3,0,-3,5
104949,19,9,23,4,5,0,2,-1
105010,-8,13,-11,0,0,1,0,1
105070,2,-2,-20,-8,-6,-3,-1,1
105123,-16,6,0,-2,5,1,-10,1
105187,3,12,-1,-1,-3,1,-2,2
105252,-17,3,-3,-4,-9,-5,-2,-3
105310,-10,-10,11,4,6,2,9,-13
105370,3,-39,7,-1,7,3,4,1
105422,-39,-28,-34,-4,8,4,1,20
105473,43,89,-12,-2,1,1,7,-5
105528,-6,14,-2,-1,1,-1,-2,1
105587,-4,-44,1,-2,1,0,2,-5
105633,1,-32,0,1,1,-2,-4,2
105690,42,-19,-4,3,3,-1,-7,1
105753,-4,32,-13,-3,-5,-4,0,18
105812,-16,-62,1,5,4,2,-4,20
105865,-29,90,13,0,5,0,-7,-20
105928,-20,-58,26,1,2,2,-4,5
105990,10,-46,-14,-1,3,2,0,-8
106052,-7,0,-19,-1,-1,-1,5,10
106113,1,-71,-23,-3,-4,-2,3,-10
106165,8,9,-11,-3,-2,0,6,12
106227,-28,-7,-5,-2,0,-3,10,9
106290,-3,-21,7,1,2,2,1,-3
106354,-7,-91,13,5,7,1,1,-2
106414,-9,-6,-4,-5,-8,-4,-4,2
106463,-11,-26,-6,-7,-9,-6,-2,-3
106516,-33,-86,11,4,3,2,-1,5
106569,-1,-59,-3,-2,-7,-2,-1,-2
106622,-17,6,39,3,1,1,2,11
106674,32,49,-24,-1,2,-1,9,4
106735,-13,92,6,-3,-2,-3,-2,8
106798,-9,-36,-7,-1,-3,-3,-8,-5
106862,-6,-86,-18,1,2,-2,-11,-13
106908,-26,-3,8,3,-4,-2,-1,-2
106971,-13,18,16,4,8,4,2,2
107034,4,-45,-17,-4,-1,-3,-5,-1
107096,-7,70,-7,-2,0,-1,-3,2
107154,-3,56,-11,-2,0,0,-3,2
107215,-38,46,2,-2,1,0,-19,2
107268,7,-69,-19,-3,0,-2,2,7
107331,-20,-71,25,3,-2,-1,1,-9
107394,-13,0,-18,0,1,0,10,1
107454,8,-10,3,-4,2,-1,-3,-5
107514,16,-85,30,4,-3,-4,-12,-21
107567,10,20,18,-3,-7,-4,-4,8
107619,5,18,-19,-1,3,1,-3,9
107670,-45,57,4,0,8,5,8,34
107728,9,40,9,-3,-5,-3,-4,-8
107773,-19,21,9,0,-2,-1,-6,-2
107835,-12,21,-3,-5,-6,-3,-8,5
107897,-14,52,-19,-7,-1,-1,-3,-5
107957,-2,91,-17,-2,2,1,2,10
108018,-32,62,-29,0,1,0,0,9
108062,-1,44,15,1,0,0,2,5
108115,21,42,-1,-9,-19,-9,-3,0
108165,7,17,-5,-5,-6,-6,-2,-6
108219,23,62,20,-1,-10,-5,3,4
108275,2,52,-9,-1,-3,0,-5,4
108339,-22,-47,-40,-7,-4,0,7,-10
108400,-7,-25,4,4,-3,-1,0,-10
108462,0,25,-16,-2,0,-1,-8,-15
108514,-54,46,-55,-3,0,0,6,15
108585,-7,96,-22,0,0,-1,14,4
108640,22,-35,0,2,6,0,-4,-6
108699,-10,-3,2,-3,-1,0,1,-5
108753,-9,-16,13,3,5,3,6,-14
108803,-10,13,-44,-2,1,-1,0,0
108857,-15,28,32,0,-7,-4,-3,-2
108913,-5,-1,-16,-6,-2,-1,13,-2
108976,21,22,-7,-3,-1,0,-1,-3
109036,-37,-86,-11,2,1,0,-2,2
109099,25,8,-11,-10,-9,-1,-1,-9
109148,-9,25,-2,-5,-13,-6,-5,-21
109202,-17,-33,-1,-1,2,-3,-4,-15
109260,28,-32,-20,-7,-3,-4,-2,-16
109325,18,53,5,1,1,-1,9,-2
109381,6,-7,-7,-6,-3,0,-3,4
109434,-10,71,8,2,5,2,10,0
109487,-35,15,-17,-8,-5,-3,-3,0
109549,-9,7,23,0,-3,0,-1,4
109602,0,28,3,-5,-14,-7,-7,-21
109656,9,19,-10,0,0,-1,0,-10
109704,-32,43,-15,-3,-3,0,3,6
109756,-4,54,-4,-2,7,-2,-5,4
109814,3,-114,-6,2,-8,-3,0,2
109869,89,43,25,3,2,-1,-2,-13
109922,1,-93,20,5,5,3,3,10
109982,-20,-27,-3,-1,-10,-2,-1,2
110033,0,-21,23,5,5,1,-6,-9
110086,19,-14,7,3,-2,-4,-4,-21
110139,2,2,9,-2,-6,-5,-19,-5
110198,33,73,-13,-1,3,1,-5,1
110252,31,-75,-8,-7,-13,-6,-10,-2
110304,-1,-10,-9,-2,-1,-1,1,7
110362,-19,2,-31,-2,0,-2,-8,-9
110425,-1,-24,-10,-6,-4,0,11,6
110486,19,-54,5,-2,-2,1,4,3
110547,-8,-83,33,3,0,0,0,4
110597,16,-66,6,2,1,-2,10,10
110661,-5,12,2,1,5,2,10,12
110725,25,-35,-62,-6,0,0,-3,-8
110784,-42,-5,18,4,5,1,0,8
110835,35,53,-31,-3,0,-3,-3,-1
110898,69,2,-10,2,3,-1,-10,-8
110960,-20,-16,-6,3,6,1,5,3
111024,-20,22,-16,-1,3,1,-5,-10
111085,0,-20,-33,-6,-4,-3,1,0
111149,-6,-9,18,2,0,-1,-4,2
111197,-1,21,14,-2,-1,-1,-8,4
111248,7,-23,-20,3,7,0,2,-1
111302,40,-25,-3,-4,3,1,-5,-10
111356,-3,-50,13,0,-2,0,-2,-8
111408,-7,11,27,-1,-1,0,0,-3
111469,13,-12,3,1,-2,-3,-1,-4
111534,8,17,-25,0,-3,0,1,-6
111587,-38,68,-40,-6,1,0,0,19
111639,-45,4,15,0,0,0,-5,-5
111703,-8,-14,0,5,10,2,6,11
111767,8,25,-23,2,3,1,4,-7
111829,-20,-5,-14,-5,-5,0,-5,-2
111878,-27,-82,14,0,-1,2,0,1
111932,-7,-77,-2,-1,8,6,13,11
111985,-27,-32,-20,-1,1,-1,0,5
112037,-7,3,-34,-5,-4,-1,-4,11
112091,-14,82,-19,-3,0,1,5,-2
112149,-25,62,16,10,7,2,-3,3
112212,-9,43,22,-2,-11,-4,-4,-10
112271,46,-4,-40,-10,-9,-3,3,0
112321,-53,27,-15,0,3,1,10,5
112383,23,80,-16,-8,-4,-1,-1,-1
112446,-30,-64,9,-2,-1,-1,6,20
112507,-33,-1,-31,-3,-5,-3,0,-9
112569,29,-27,4,-5,-5,-2,5,8
112630,-13,-41,-16,0,2,1,-1,5
112682,-22,16,8,3,5,2,8,5
112744,6,28,-21,3,11,3,0,0
112809,-16,12,0,-1,1,0,-3,-6
112871,64,-21,-17,-13,-20,-12,-1,-6
112930,-1,-128,-17,-4,-11,-4,-5,-2
112982,-44,40,14,6,8,2,-1,-9
113034,-62,1,-3,5,-1,-1,4,13
113087,-49,-8,-24,8,15,7,7,-6
113139,-34,87,-48,-2,-3,-3,-1,2
113198,41,9,10,-1,-1,-3,1,-17
113254,24,-53,-12,-4,-8,-5,-4,-14
113314,-71,-5,-19,-3,3,2,5,-8
113372,11,-92,-5,-2,-9,0,-1,-14
113428,30,-68,12,0,0,-3,-6,-3
113491,35,-14,-17,-2,-8,-2,2,3
113550,16,45,0,0,2,-1,-1,11
113612,7,12,25,3,9,2,-9,-8
113672,-31,6,-23,-1,2,0,2,-1
113725,-28,-36,30,8,9,3,6,-13
113788,12,-48,13,-4,-21,-6,1,11
113851,-29,42,-9,-6,-6,-4,-2,-1
113912,-5,-7,-10,-2,1,0,-2,10
113975,1,78,13,1,6,1,-13,0
114023,-19,-46,16,8,0,0,3,-1
114075,-20,2,-5,-3,-3,-2,-5,1
114135,23,-5,3,-2,-2,-2,-5,-9
114181,-8,4,20,2,0,1,-5,-9
114235,-27,13,-8,-1,1,0,2,-9
114292,-22,-17,-3,-5,-4,0,1,-8
114355,13,25,-35,-7,-1,0,-5,-8
114418,-34,13,-9,-2,-1,-2,1,-3
114467,-5,-39,5,0,1,0,4,-20
114529,-7,7,12,-2,2,0,2,3
114596,6,12,-4,3,10,1,-2,5
114655,14,52,13,6,11,3,7,-12
114714,13,-2,-15,0,-7,-4,0,-1
114769,8,0,5,-5,-14,-6,-17,5
114832,-23,15,-28,-6,-4,-5,-4,-11
114895,-1,14,11,-3,-5,-2,1,2
114957,-20,33,7,1,1,0,2,-1
115014,14,-27,-18,-3,2,0,-4,5
115075,2,4,-9,-9,-13,-4,-8,-14
115127,52,-22,-13,2,3,1,-2,-7
115178,37,37,-6,-5,-6,-4,-2,9
115242,-34,22,-18,-1,1,-1,-6,-3
115284,-58,37,11,2,5,4,1,-14
115340,-22,13,2,-1,0,-2,-1,-4
115396,4,-17,-13,2,8,1,-5,-3
115457,28,6,-11,-6,-11,-5,-3,0
115516,-35,33,-36,-3,2,1,-4,4
115567,38,28,16,-2,-3,-1,8,1
115630,-16,60,10,5,4,1,2,6
115675,-39,-16,1,7,10,4,-4,-14
115727,29,-30,2,3,3,2,2,-6
115779,-8,55,2,-1,-7,-3,-2,4
115838,93,39,-12,-9,-19,-8,-7,-16
115899,3,-18,-18,-3,-3,-3,2,1
115959,-52,0,-4,0,2,1,7,-3
116012,-41,24,9,3,0,-2,-1,-8
116063,-2,36,2,-3,-5,-3,8,1
116119,-14,62,-33,-2,4,1,16,18
116174,1,48,-18,1,2,-1,4,0
116221,-7,42,1,1,2,-1,-7,-2
116273,-33,6,5,2,3,1,1,-12
116326,12,50,23,3,2,0,1,12
116389,3,87,2,-5,-6,0,2,1
116440,32,-11,-15,-7,-3,0,4,-1
116499,27,-22,-12,-10,-10,-6,-6,-13
116552,60,9,13,-5,-4,-6,-9,-9
116603,-11,-43,-14,-5,-6,-5,1,1
116656,-12,-85,38,6,5,3,3,-1
116712,75,-11,13,5,9,3,2,3
116764,-31,85,-9,1,8,3,-14,-1
116822,7,-3,-25,1,2,0,-4,0
116883,-5,-40,5,-2,0,-2,7,-9
116943,-47,33,-12,1,7,4,8,44
116996,51,24,14,7,5,2,0,34
117045,-31,54,-19,1,2,1,14,0
117099,70,2,-1,-2,-4,-2,-8,-26
117153,-35,88,-8,-2,-4,4,15,4
117204,-3,-8,20,0,-4,-1,2,-7
117256,16,37,1,2,1,0,0,0
117312,-27,38,8,2,2,4,12,-10
117362,-29,40,-23,-1,0,0,-10,13
117422,-27,-52,-46,-3,6,6,9,15
117482,7,-71,28,0,3,1,-4,6
117544,10,40,33,1,3,1,0,2
117596,-31,-11,-9,0,0,-2,9,-7
117646,8,11,-8,0,4,-2,-2,-2
117700,0,16,-25,-6,-7,-3,0,-4
117752,-4,26,9,-1,4,0,11,2
117806,-7,-2,-7,1,3,2,6,5
117863,0,-5,-4,-4,-1,0,-2,4
117925,-13,-111,20,2,4,1,0,-5
117989,-13,-88,8,-1,3,1,1,-7
118036,13,-51,-10,-5,-6,-2,0,-6
118099,11,-11,22,6,6,3,2,0
118163,-32,8,-19,-6,0,-2,-8,-38
118224,-7,-21,-22,-6,-15,-6,-20,6
118286,-8,-46,-3,2,-2,-2,0,-5
118337,-16,42,-21,-3,-3,0,-6,2
118399,-13,-7,-20,-10,-5,-3,-7,1
118466,92,-13,-15,0,0,-1,-3,-12
118529,-26,-24,-18,-3,2,0,-6,7
118585,30,109,-2,3,4,-1,1,-9
118636,-6,5,9,-2,-2,-1,3,0
118688,23,60,-14,2,-6,-4,3,-3
118750,-29,41,-23,2,2,1,-1,-5
118794,3,-37,-14,2,5,-1,-1,0
118847,22,22,-7,-3,-1,-2,8,-4
118903,-60,22,3,-5,-9,-1,2,37
118966,-3,-39,8,6,5,1,9,-12
119027,-53,-4,-15,5,11,3,2,-3
119087,-44,-50,-10,4,2,2,12,-14
119139,-16,-34,-8,-3,3,0,-2,1
119203,6,-58,-11,4,6,2,0,-1
119265,-31,24,7,3,15,6,1,-15
119327,-43,34,-20,1,6,1,3,14
119389,66,-54,-1,-10,-19,-8,-11,-22
119438,25,3,-38,-4,-1,-4,2,4
119501,-14,11,-1,-2,1,0,-5,-2
119564,-6,59,-23,3,4,1,-5,-5
119627,53,-66,23,4,5,1,1,1
119681,-30,33,-12,-1,3,1,3,3
119730,-21,2,-10,-2,-3,-1,-9,2
119784,9,-8,8,-1,-1,-4,16,-6
119845,-44,8,16,-1,-1,1,1,-6
119895,-3,14,23,-1,-1,-3,-4,-1
119950,4,4,12,3,4,1,-4,-10
120010,-36,0,-24,-6,2,-1,-25,-14
120075,-10,4,-32,-6,-2,-4,-12,-13
120129,9,-9,-6,1,1,3,2,2
120189,14,-27,-35,-3,-2,0,7,11
120242,-37,30,-1,-4,-1,-3,6,5
120304,35,23,-7,-3,-1,-1,4,-5
120368,-6,18,-16,1,3,0,-2,-9
120431,-24,-22,5,1,5,2,-3,1
120490,1,16,24,2,-4,-3,-3,-24
120542,-2,-54,-11,-1,-2,1,-1,9
120594,29,13,-4,-6,-4,-3,-2,2
120651,68,2,2,-1,2,0,-4,-5
120699,-24,27,-2,5,4,2,-6,-10
120752,48,-20,-8,-11,-8,-5,-4,0
120811,-9,-32,3,2,1,1,-1,-2
120872,-4,4,2,7,5,2,-2,7
120934,-26,-16,-18,-4,-6,-1,1,-20
120998,-25,-1,7,-7,-20,-6,-1,24
121061,-38,76,-18,-4,-2,-4,17,0
121114,16,-7,-4,-4,-6,-2,-7,-5
121173,-10,16,7,-6,-7,-5,-8,4
121224,-13,-47,-15,-6,0,1,0,-12
121287,-8,93,15,-1,1,0,-2,4
121351,-3,6,-12,2,8,2,3,6
121416,40,-37,-18,-10,-10,-8,-11,-11
121472,-17,-15,5,6,6,3,4,-8
121531,81,-15,-33,-11,-14,-6,-4,0
121584,-36,-20,-11,-1,2,0,5,4
121643,-30,-42,-8,-12,-18,-7,-7,-11
121696,7,20,17,-8,-10,1,-2,-7
121751,-5,11,-6,-9,-9,-5,2,-5
121805,44,-23,-9,-7,-6,-4,-13,-47
121855,-4,-10,-1,5,12,4,6,-1
121914,4,80,-21,-3,-1,-1,3,-2
121974,-31,25,9,0,-7,-3,-7,-4
122034,-27,-2,-10,1,3,-1,-2,4
122098,-1,-24,6,3,4,-2,-1,-4
122145,9,-10,-8,-1,0,-4,-5,-3
122207,-2,9,-5,1,3,0,-6,-8
122271,-12,-84,-18,-3,5,1,-2,3
122332,35,-18,-18,-7,-2,-3,-22,-1
122396,-17,-74,0,-4,-2,-1,4,-2
122457,1,14,-48,-7,-2,-1,-3,-2
122504,35,-10,13,-3,-7,-7,-7,-15
122558,36,12,-11,-5,-4,-5,10,17
122612,-19,-8,21,3,-1,-1,1,-3
122671,-20,-47,3,-3,-2,0,0,-2
122734,25,-1,-11,0,1,-2,-1,7
122779,38,-20,-36,-8,-4,-3,10,-6
122831,25,26,-1,1,2,1,4,0
122897,-7,21,10,2,4,0,-11,-6
122959,9,-7,33,8,9,2,2,-2
123022,-20,19,-9,0,6,1,-7,-4
123077,-15,7,-8,-3,-11,-4,6,0
123129,-41,20,23,5,4,1,0,7
123193,-8,35,3,-4,-4,-4,-1,-4
123257,-4,69,10,2,1,0,2,4
123317,16,26,-3,-3,2,-3,-5,-25
123378,30,18,-2,-3,0,-1,-1,-17
123431,-14,-99,-31,-9,-12,-7,-5,-9
123481,63,-21,-17,-5,-5,-3,0,3
123538,-19,60,-9,3,7,0,-5,-3
123587,2,111,11,5,3,1,5,-1
123638,-5,-50,9,-1,0,-1,-9,-13
123698,-26,-17,-5,1,0,-1,-6,-17
123758,12,57,17,2,0,0,-2,-2
123809,-47,49,-45,-7,-1,-3,8,1
123864,6,-21,-29,0,0,-4,0,0
123917,-9,-49,38,10,12,4,3,-13
123969,-11,50,4,-1,-3,-3,-5,1
124023,20,-115,17,8,4,3,9,1
124073,18,-40,-28,-4,1,1,-5,1
124126,-13,-49,12,4,7,2,1,4
124185,9,-33,-27,-8,-3,-5,-2,-2
124238,-42,127,-38,-2,8,2,7,13
124299,2,21,-28,-8,-1,-2,2,4
124358,10,15,-4,-10,-15,-6,-2,8
124412,13,20,8,-4,-7,-4,-5,-10
124466,36,29,16,-9,-19,-9,-4,-1
124517,-18,-15,-3,-4,0,0,1,-2
124570,-6,6,58,4,3,1,4,2
124622,-36,-74,-5,0,-1,0,6,6
124678,-8,-108,-10,1,4,0,-5,-6
124742,-45,17,77,14,4,1,8,4
124801,-46,76,-23,-4,-1,-1,13,23
124856,2,43,53,4,2,-3,-15,-29
124908,-9,82,5,0,-1,0,7,-8
124959,1,-92,-20,-13,-11,-5,3,-3
125017,26,-32,-14,0,5,-1,-2,8
125063,-28,61,-7,-3,-2,-3,3,9
125117,27,6,9,1,4,0,0,3
125175,27,-5,-19,-4,-8,-3,-7,-6
125222,57,11,-7,2,3,1,0,-5
125280,-11,-29,-17,-2,1,2,3,-1
125342,-19,22,-13,-4,-1,0,-2,-4
125408,19,2,-21,-3,-2,0,-4,3
125455,-1,11,22,4,10,6,3,0
125506,-21,-5,2,-1,-2,-2,0,5
125559,-13,-45,-4,-1,-2,-2,0,-3
125613,-14,-17,-15,-3,-1,1,6,10
125666,15,-80,0,1,1,-2,3,-2
125724,-37,90,7,-4,-3,-2,1,-3
125784,-4,8,0,-1,6,5,11,-10
125837,7,27,30,1,0,0,2,1
125899,27,-17,-11,-3,2,2,6,-3
125962,-7,-33,-11,-2,1,0,0,-1
126025,-67,-13,20,1,-1,0,9,4
126085,-56,-4,29,1,5,5,6,9
126146,-13,3,-14,-1,-3,-1,8,5
126199,-36,-2,7,3,0,-1,-3,-3
126249,-42,-80,-34,0,2,-3,-3,4
126307,3,-11,10,-1,0,0,-5,-1
126354,-21,17,0,-2,0,1,0,35
126407,-5,-17,-5,5,2,1,4,2
126465,-38,-6,2,1,3,-1,-2,-1
126528,-6,-26,-6,-5,-6,-4,-6,-7
126591,-15,-6,9,3,-2,-1,-2,0
126639,12,47,-5,0,2,2,-7,-8
126702,36,-58,17,4,3,0,13,-5
126764,-43,11,-23,-10,-10,-2,10,7
126827,-25,4,-33,-3,2,-1,4,-5
126888,-28,21,-4,0,0,1,4,-3
126938,1,-10,-22,-2,-4,-4,0,2
127000,-8,-101,-10,-2,-1,-3,-3,-2
127063,-16,7,8,1,0,1,-2,-2
127126,16,-16,-18,-4,0,-2,-3,0
127186,36,15,4,1,-2,0,3,2
127248,-19,-106,9,3,-1,0,-1,-1
127300,-13,8,11,-2,2,-2,5,3
127361,42,-43,-3,1,-1,-3,-8,-4
127404,-3,-88,21,4,2,1,2,4
127460,7,36,-32,-2,-5,-2,-2,3
127509,12,22,8,1,1,0,-1,3
127565,28,45,19,-1,0,-4,-3,24
127628,18,-63,-7,0,8,2,3,-6
127690,-1,-93,23,6,-4,-3,0,2
127752,-29,39,-31,-1,2,-1,-16,-4
127804,-40,68,18,3,3,1,1,20
127865,37,19,-18,-2,-4,-1,-4,6
127929,-29,82,19,-3,1,0,-7,0
127990,32,-62,-15,0,1,0,1,-2
128049,8,76,-45,-5,-6,-3,-5,-20
128103,12,31,-18,-10,-15,-7,0,-6
128164,4,13,-8,0,2,1,4,8
128227,31,-53,12,-1,-1,-1,0,-1
128289,9,-30,-13,-2,-6,-1,-6,-5
128350,-15,-3,-4,4,11,1,-9,2
128409,-23,-5,-10,2,5,3,9,2
128462,46,-9,-9,-5,-8,-4,-8,-10
128519,32,-65,18,0,-7,-5,-6,-3
128566,33,-13,-5,-4,-5,-2,2,1
128622,-14,27,-9,7,7,-1,-9,15
128671,26,-12,6,-1,-6,-6,-8,-16
128730,-33,15,-11,-3,-1,-2,-8,-5
128792,-40,-18,2,6,10,6,9,7
128857,5,14,-9,0,4,1,2,4
128912,17,12,-22,-2,6,4,5,4
128967,-21,30,10,2,3,0,1,-1
129029,-14,-31,16,3,2,0,3,9
129093,-29,-13,24,4,1,0,-7,-6
129155,-1,-3,17,2,9,3,-2,5
129218,-8,-77,10,1,-3,-3,-9,-9
129267,-22,-15,-14,-2,-2,-2,-1,0
129320,14,29,6,3,6,4,3,22
129368,-18,5,-10,0,-2,1,1,4
129424,-40,19,3,-3,-3,-2,-6,-13
129480,24,13,-12,-3,-2,-2,0,-3
129529,12,-53,1,0,-4,0,-3,8
129593,-22,25,5,1,-5,-4,-5,-4
129655,8,20,-8,-3,-4,-2,3,-4
129714,-19,29,4,-6,-5,-3,1,-4
129772,-4,-10,-6,0,-5,1,4,5
129829,40,-26,9,4,5,2,0,7
129893,-44,11,-3,5,1,0,8,3
129954,18,10,17,0,2,0,-2,-2
130014,59,-30,-15,-14,-15,-7,-7,-1
130065,-49,18,39,4,-1,-1,3,-3
130126,-11,-7,10,1,1,0,-3,-5
130172,50,-15,-6,0,0,-1,0,3
130225,-18,-4,-20,-1,5,4,1,-6
130277,18,-10,7,-2,-6,-3,-12,-2
130335,-51,71,-11,-3,-7,-4,-7,-5
130397,-6,26,1,-2,4,0,-13,26
130458,17,-27,23,7,5,0,-4,6
130511,-16,4,2,5,6,6,5,29
130574,12,20,11,4,5,-1,-7,-9
130637,-24,11,7,2,0,0,-2,-1
130700,18,18,6,0,-1,1,-21,5
130762,-7,-73,5,7,9,2,4,3
130809,-16,43,22,4,-1,1,4,-20
130871,-30,13,13,0,0,0,3,0
130934,-14,72,37,-2,-2,-1,2,5
130997,35,23,84,7,1,1,-1,-5
131057,-2,-20,-9,-4,-2,0,4,-1
131107,6,-13,16,-2,-2,-2,-1,-6
131161,-4,47,-18,-3,-4,-2,-8,6
131214,-36,16,-5,-2,0,2,2,2
131275,0,12,-15,-3,-2,-2,1,-2
131328,6,6,-18,1,-1,0,-24,-8
131379,37,35,-13,-2,1,1,0,3
131437,35,1,-4,-3,-5,-1,3,1
131501,-10,-16,-1,-4,-3,-1,11,0
131564,-22,-31,19,4,0,-2,-4,5
131618,20,9,-20,-1,4,4,-2,-16
131673,9,-11,14,-3,1,0,-12,-4
131724,-3,22,-4,-1,-1,-4,-6,-8
131777,-26,47,2,-3,4,3,14,-8
131828,10,42,-3,0,0,-3,0,-4
131886,7,49,8,4,2,-1,-4,-4
131940,0,23,1,-3,-1,1,-1,-5
132001,-10,1,9,-1,0,-1,-7,1
132061,20,24,-31,-7,-5,-3,-2,2
132116,6,6,-16,-2,-4,-3,-4,8
132179,-18,-7,56,5,4,2,3,-11
132241,1,11,35,-1,-6,-1,0,0
132301,25,107,44,4,2,0,-6,-5
132360,-11,64,-49,-4,4,1,3,2
132405,17,15,15,-1,-5,-2,-2,14
132459,-11,-19,17,-2,-2,0,-5,-8
132519,4,-19,-11,-2,-7,-5,-4,-4
132571,13,-6,-18,-1,0,1,0,4
132623,1,-5,6,-1,-3,-1,-2,-12
132676,14,0,-8,-4,-4,-2,0,-7
132739,22,15,4,1,-9,-5,-24,-4
132781,-25,4,-6,1,1,-1,-3,1
132839,8,-1,-15,-2,-1,-2,-5,-14
132904,39,-79,45,0,-1,-2,-6,-6
132964,-2,11,-11,2,0,-1,-4,-10
133012,-34,-49,8,2,6,2,6,0
133065,-17,21,-8,-5,-5,-3,-27,-2
133120,-5,11,-40,-8,-3,0,18,5
133169,3,-5,0,0,2,-3,-3,2
133227,-30,35,-9,1,2,0,-6,8
133280,-8,-65,14,1,0,-2,15,-13
133344,-29,-67,3,3,0,2,6,2
133410,-14,85,-8,-1,-3,0,5,4
133464,35,-38,-18,-8,-7,-2,-1,-6
133515,-13,46,6,-4,-7,-3,4,35
133569,-30,-14,-16,-2,0,-1,0,-2
133622,-30,58,-32,0,-5,-2,1,6
133673,-22,26,-54,-3,4,-2,4,-4
133733,-32,37,0,0,1,2,9,19
133781,-43,44,8,8,12,6,-4,14
133844,25,-51,-12,-9,-15,-7,18,-8
133908,-11,4,-13,0,1,2,4,3
133967,-4,42,-15,2,-7,-6,5,11
134021,-17,-39,23,2,-5,-3,-3,-1
134085,22,27,3,3,3,-2,-3,-12
134147,13,42,-9,-4,-3,-2,-7,3
134210,-24,30,-26,-10,-2,-5,-7,-15
134258,-1,97,-6,-6,-10,-6,2,-8
134323,3,-11,-12,1,5,1,-1,12
134382,19,-14,-7,-2,-8,-3,8,0
134447,-14,13,-10,2,5,-1,14,-4
134507,23,-13,-12,-1,1,-3,-4,-9
134568,-7,35,9,2,1,0,-2,-3
134619,-11,54,31,4,-1,0,6,2
134683,-52,-43,0,-2,-2,2,3,41
134746,-35,10,-9,1,5,-1,-1,-3
134807,30,-37,-3,-1,-1,-1,-4,-4
134859,-7,-128,40,1,1,-1,-1,-1
134912,-21,-17,8,3,6,0,7,0
134974,12,54,1,-2,0,1,8,12
135016,15,-17,7,2,3,2,9,-5
135070,13,3,-9,-1,0,-3,-5,-4
135124,-11,-25,3,3,6,0,-3,-7
135186,-12,6,-8,-4,1,1,0,23
135249,-4,45,-17,1,-3,1,2,-12
135309,15,38,20,-3,-6,-1,-1,-8
135361,-11,-5,-10,-3,1,-2,-1,-15
135426,35,21,-6,-1,0,-1,1,-5
135486,-2,-64,-19,-2,-2,-2,-3,4
135549,11,80,0,-4,0,-2,0,-6
135610,-1,-31,13,4,5,2,0,8
135660,10,0,-5,0,-3,-1,-2,-2
135723,-9,-18,-2,-4,-3,-3,-1,-8
135785,-2,-12,11,1,0,3,1,-3
135848,27,79,-19,-1,-1,0,-3,2
135910,-31,-5,-12,-1,2,1,-1,5
135969,50,-44,3,-2,-4,-3,-5,-14
136021,40,-32,7,-1,3,2,-2,-5
136073,9,-102,-3,-2,-1,0,-2,-5
136126,-19,11,17,3,-2,3,5,20
136186,30,-21,1,4,5,0,-6,-5
136231,-10,22,-3,-2,-2,-1,-7,-6
136290,-17,-108,17,2,-1,1,-6,-5
136352,6,83,-4,4,9,2,-3,-6
136412,-4,5,21,0,-4,-2,-4,-10
136473,-27,-20,-17,-3,2,0,0,23
136525,-40,19,-8,-1,-1,-1,1,-1
136586,-12,21,-17,-8,-6,0,-2,-4
136649,17,-48,13,1,-2,-2,1,5
136712,41,-54,-32,-3,2,0,1,9
136772,-10,18,-9,-1,3,0,-7,-11
136825,-34,35,3,1,4,2,5,-14
136875,-17,-33,-1,-3,4,1,6,-24
136930,34,1,-3,-2,2,-1,-4,-9
136980,-20,42,21,-1,-3,1,3,1
137037,-29,-34,-5,-2,0,0,-16,1
137089,68,-28,-28,1,4,0,-6,4
137153,11,-16,-10,2,7,3,7,7
137214,-17,-27,-10,-1,-6,-3,2,8
137274,-5,31,-25,0,1,-1,-9,-2
137327,-23,-18,1,1,-2,-2,0,-2
137390,6,-3,7,0,-7,-3,-3,0
137450,52,-19,-15,-10,-6,-5,-9,0
137514,53,2,6,-2,-4,-4,-7,-1
137577,18,-8,-2,12,14,7,5,8
137625,10,-29,-13,-6,-3,-4,0,-1
137679,12,-43,-24,-4,-1,0,-2,5
137731,-26,-35,-22,0,-2,1,-2,5
137783,25,11,6,2,9,2,1,13
137837,10,-11,-5,1,6,4,-3,2
137897,32,-107,-1,-5,-6,-3,6,0
137961,-31,-30,6,1,6,1,-1,-12
138019,36,21,3,-4,-3,-1,-1,-1
138077,-1,17,-3,-5,-10,-4,-4,8
138130,17,10,-11,-5,-4,-1,-5,4
138193,16,26,11,2,4,1,5,3
138256,39,4,-15,-8,-16,-6,0,5
138317,-12,18,-15,4,4,4,11,3
138377,-14,59,-16,-4,1,-1,-17,1
138429,-20,-30,-6,4,3,1,0,-7
138493,-37,26,7,5,7,3,-5,3
138555,17,71,53,2,-4,0,-10,-4
138617,-21,-7,2,0,10,0,1,5
138668,17,0,-1,2,3,1,-5,-10
138721,-9,29,7,3,5,2,8,5
138784,-31,-32,-6,-3,3,1,-5,-16
138829,-7,-31,-10,-5,-2,-3,9,0
138880,29,-18,4,-2,-10,-7,-4,-8
138935,2,-32,19,7,6,2,3,1
138999,-17,-70,-6,2,3,1,-1,9
139059,4,-68,3,-2,-2,-2,1,5
139119,-13,31,-7,-2,2,2,-2,-2
139173,-21,-25,-22,-4,-7,-1,-1,2
139239,-21,5,16,3,2,0,4,18
139299,-22,46,-9,0,2,1,-4,0
139359,7,-27,1,0,-4,-3,-3,-11
139417,-13,54,-14,-4,-5,-3,4,2
139464,-65,11,22,5,5,4,27,2
139519,-13,-17,-13,-4,0,1,14,27
139567,-9,-28,-11,-1,3,0,5,-7
139621,-8,1,56,3,2,1,1,13
139679,23,7,-4,-1,-3,-1,2,-3
139742,-43,-10,-28,6,11,4,0,-3
139804,17,16,-5,4,5,0,0,3
139856,-31,-4,8,1,-1,-3,-3,11
139906,12,2,9,0,0,-3,-5,-6
139965,40,21,-1,-3,-7,-2,-1,8
140014,6,-37,-3,-1,-9,-8,-4,-8
140077,-3,0,-35,-6,-4,-1,0,19
140131,-29,45,-30,-7,-6,-2,-7,-3
140183,20,-70,56,4,4,1,-3,-4
140246,10,24,-18,2,4,-1,-15,11
140289,-14,53,18,-2,-4,-4,3,4
140341,-9,19,18,3,-3,-1,-5,-1
140395,11,24,24,-1,-4,-3,1,-2
140446,12,7,1,5,5,0,-26,-3
140499,11,-18,-25,-12,-13,-6,0,-13
140560,38,-22,-13,-7,-1,1,6,-3
140605,-2,-31,-13,-6,-9,-4,-2,-12
140661,-9,-8,-23,-1,-2,0,0,4
140724,35,0,9,2,3,0,-4,0
140786,-9,-80,3,0,5,1,6,8
140847,-22,32,-18,-5,-8,-2,8,39
140897,56,-61,-23,-3,2,-2,9,-11
140949,-13,-17,28,2,-1,-2,5,-9
141004,-29,48,-13,0,1,-1,3,3
141054,-19,-16,31,5,2,-2,2,5
141106,4,37,12,1,4,2,-4,-2
141158,19,50,6,0,-1,-1,2,-2
141212,-23,4,-22,-1,-1,0,2,6
141265,37,10,-1,-3,-12,-7,-9,-7
141324,32,-5,27,1,-6,-4,-12,-1
141386,-4,1,-2,-5,-3,0,6,-3
141447,-11,-31,-2,3,3,1,2,1
141498,-20,43,9,3,2,-1,2,7
141549,13,48,-11,-1,4,1,-1,-13
141601,-14,-82,-4,-3,-8,-4,11,-2
141655,-24,47,0,-3,-2,-3,-2,-19
141707,29,63,14,0,-7,-5,-5,-1
141771,-12,-47,-12,-5,-6,-4,-14,0
141834,-41,-40,5,4,11,4,-2,3
141889,-2,-6,4,3,5,2,4,-1
141948,-2,-4,0,0,-3,-2,3,-2
142001,-19,15,-11,9,6,1,-5,2
142061,2,-26,27,7,6,1,-4,-5
142127,20,11,23,3,5,0,-3,-12
142187,29,-112,-16,-1,1,0,7,-5
142250,-31,-10,-26,-2,1,2,6,-3
142313,-43,34,-21,0,1,2,11,2
142359,9,-72,9,-2,-1,-2,-8,-5
142411,1,82,8,1,-3,-2,-3,3
142467,-35,43,-22,-6,-2,0,1,-5
142516,-6,-16,-3,0,-3,-3,-4,-4
142569,-33,54,-9,0,-6,-4,3,9
142629,-2,1,-3,1,0,-1,-5,9
142693,22,-20,-18,0,-2,0,-3,0
142749,-23,-18,-7,-1,-1,0,3,20
142809,-14,-3,13,2,6,1,-1,6
142861,5,9,-13,0,0,-1,-2,-1
142924,-1,-11,1,-1,2,0,-1,9
142988,-6,5,9,-1,-14,-4,-1,-2
143050,19,17,-12,0,10,5,7,4
143109,-31,-33,1,1,0,1,7,7
143172,-18,67,-16,1,5,1,-4,-1
143225,-28,30,-12,-1,-3,-1,-3,-4
143286,-33,-76,12,2,0,0,2,2
143353,-19,-16,6,-2,-2,-3,2,0
143409,-29,-14,-2,3,3,0,-6,-17
143470,16,38,-13,-4,-2,-4,-5,4
143525,27,13,5,0,-5,-4,0,-13
143573,-30,16,-4,4,2,1,3,6
143626,73,-80,-23,-7,0,0,-3,-5
143681,-3,-11,-12,-2,3,2,-1,1
143732,-22,6,-10,-3,-3,-4,-12,-12
143790,-7,78,13,4,3,-2,-18,-12
143853,16,14,-3,-7,-6,-2,-2,1
143912,5,24,-6,-4,0,1,3,-4
143977,21,37,-22,-2,-3,-1,-4,3
144025,-20,-15,9,-1,4,0,3,11
144089,-54,22,-21,2,3,2,8,22
144151,1,-37,-15,-4,0,-2,-5,-15
144212,-22,-22,-24,-6,0,-1,1,-3
144271,-5,-10,-2,1,4,1,-3,6
144324,-49,25,-13,0,1,2,4,24
144375,-7,4,-13,-1,-2,-3,-2,0
144429,13,-54,-22,-1,2,1,-2,-4
144484,-21,9,-2,5,6,0,1,1
144535,-48,-14,-3,2,1,2,-1,0
144593,-2,-6,-2,-2,-7,-3,-7,-2
144654,56,-40,-53,-14,-12,-8,-4,-21
144715,1,84,-11,-4,1,-1,13,6
144767,-4,-87,40,3,2,1,2,3
144830,10,-23,17,5,2,-2,2,0
144895,-20,5,1,0,-1,0,5,8
144954,40,-23,-17,-3,-5,-2,-9,-21
145017,-9,-50,11,1,0,0,1,-7
145070,-7,-4,-18,-5,1,0,-5,-9
145129,-46,19,18,6,5,2,-2,-6
145193,14,-13,-31,-4,-1,-1,1,4
145254,-32,-23,-4,4,2,2,9,8
145315,-38,-43,41,5,-4,-3,-22,-10
145372,21,9,-7,1,3,-4,3,4
145418,-37,10,6,-1,1,0,-3,7
145471,-26,-4,-10,-5,0,-2,8,-3
145522,-12,-60,4,6,-1,-2,4,3
145579,11,-46,-2,0,-3,-2,0,-16
145634,-16,34,-7,-3,3,0,3,-1
145697,40,16,5,-2,-11,-7,8,-6
145758,-27,-78,31,6,5,1,-5,-1
145807,63,-84,-18,-3,1,-1,-11,-22
145870,2,2,-14,-5,0,-2,-5,-8
145932,10,16,-8,-3,-4,-3,2,-4
145995,-6,63,1,-1,1,2,7,8
146057,17,-28,-9,1,7,0,14,6
146117,-5,-24,-2,-3,-4,-1,5,-10
146170,-20,29,6,-1,0,2,1,20
146221,-10,12,48,7,10,4,-1,4
146275,29,-122,65,7,4,-1,-3,-8
146329,38,-5,-4,-8,-12,-6,-12,-13
146379,-17,-32,0,-2,0,3,1,-19
146436,14,21,-10,-1,6,4,-1,4
146500,-49,-77,9,3,2,0,0,-10
146560,-2,-48,31,3,3,0,5,4
146612,-7,71,-7,1,2,-1,3,6
146674,-34,-41,-12,0,0,1,2,9
146737,3,55,2,-1,3,-1,-2,-9
146801,-5,-128,34,6,8,0,9,-6
146863,2,-6,0,-1,3,3,1,4
146912,3,8,-3,1,2,-2,-4,-6
146975,7,-8,0,1,1,1,4,2
147035,-9,-4,5,3,7,5,3,-3
147098,-29,23,-16,-10,-12,-6,2,-13
147162,10,-4,8,-4,-9,-3,10,-13
147219,-16,5,18,5,5,3,-4,1
147271,-16,-23,-2,2,7,2,5,0
147324,-10,0,2,1,4,2,-9,2
147377,-25,75,33,8,5,-1,-4,-2
147428,23,7,20,6,5,2,-2,-3
147482,-15,54,-10,-3,-1,-2,-8,13
147540,-17,110,2,-1,-3,-1,0,-1
147602,29,27,28,1,-1,0,-3,1
147651,13,14,-12,2,6,2,-5,0
147706,7,22,7,3,2,2,2,4
147762,10,44,1,1,-5,-1,3,7
147809,27,43,-10,-1,-1,-1,4,-4
147864,20,-2,-9,-4,-5,-2,6,0
147923,-5,10,5,3,9,2,4,-6
147988,-27,0,7,2,1,1,-6,-10
148044,0,40,-5,-3,-2,-3,0,2
148103,19,-48,9,1,0,-1,3,-5
148156,12,-26,-13,-4,-8,-4,-2,-8
148208,-31,-5,19,4,4,2,3,0
148271,-27,8,-2,-2,-3,-3,18,11
148317,0,38,-3,1,-1,0,4,5
148381,-14,-30,0,-3,-10,-6,-7,-6
148441,-3,16,-6,-1,3,-2,11,5
148493,-20,48,-3,1,3,1,6,-6
148545,-28,-19,-49,-10,-5,-2,1,3
148598,2,-37,17,5,2,-2,-4,3
148650,13,28,34,3,2,-2,-5,1
148710,-22,38,24,2,0,-2,1,-10
148760,16,-27,-25,-10,-8,-2,-3,6
148823,-1,-41,-23,1,2,-1,-4,-1
148885,-40,9,-12,-4,0,0,1,11
148945,7,21,-9,-1,0,1,13,-10
148994,-40,-28,0,-3,-3,-2,-5,-9
149048,6,-10,-11,0,-1,-2,-2,-3
149102,-31,-23,-19,-6,-7,-4,6,5
149158,-1,-35,5,-1,1,0,0,-15
149207,10,29,5,-5,-2,-2,-3,-15
149263,21,1,11,4,2,2,1,-2
149325,-17,24,0,5,9,2,-1,3
149388,1,54,-1,0,-3,1,-6,-6
149448,10,-2,-7,-3,1,0,5,-18
149507,-55,5,28,2,-2,1,1,-6
149559,18,-9,11,5,10,3,4,-11
149611,11,-18,6,0,-5,-3,-2,-3
149670,-2,17,-29,-4,-3,-2,8,4
149719,22,34,-2,-8,-9,-4,8,7
149772,7,-7,4,1,-4,-2,5,0
149829,0,81,-20,-5,-11,-4,-1,2
149889,-25,-21,2,5,7,2,1,2
149941,-7,35,-16,-6,-6,-3,5,-11
150003,0,-38,8,0,4,3,3,4
150067,-3,82,18,3,5,4,2,-2
150129,16,-25,1,-1,2,2,2,-2
150190,37,11,-23,-5,-3,-2,-9,0
150250,-28,4,3,2,1,-3,-2,-2
150305,89,34,-6,-4,-3,-5,-29,-14
150367,8,78,-22,-4,-2,-1,3,1
150430,-4,8,33,-7,-8,-6,-3,-5
150491,8,65,6,4,2,0,2,-13
150541,-18,89,1,1,1,0,-3,9
150605,-40,9,-3,-4,-1,-2,5,-9
150669,-8,-55,18,-1,-3,-2,-3,-9
150732,-26,37,-6,-5,-6,-5,-2,-3
150791,37,-16,-6,-12,-13,-7,4,-11
150841,15,-3,15,-10,-17,-6,-6,-5
150893,-19,63,1,-1,-2,-2,-4,-19
150948,-1,40,1,-4,-3,-3,-9,-7
151002,-38,60,-22,1,8,2,6,-4
151051,59,60,2,3,7,1,-6,-6
151110,-40,-3,12,7,5,0,0,-12
151173,-24,-73,16,0,-12,-4,3,-8
151237,-23,-19,13,0,-14,-7,1,-4
151284,75,-63,35,3,2,-1,6,23
151347,-23,64,16,6,6,2,2,6
151410,-7,43,30,2,3,1,-3,3
151472,40,-77,18,-1,-3,-3,-9,-20
151532,-15,-29,-30,-3,1,-1,-6,-7
151590,-10,6,-9,-1,2,1,-3,12
151653,-10,-104,7,5,6,2,-3,13
151713,-1,11,6,-3,-3,-5,-7,-1
151771,0,-32,-15,-5,-3,-2,-3,-6
151831,29,43,-17,-5,-10,-7,-3,-4
151883,-35,40,1,-1,-1,0,5,2
151936,30,-14,-11,-2,-5,-2,-5,-1
151989,-28,49,-2,-3,-3,-4,-4,2
152041,23,-44,21,2,0,-1,-1,-7
152102,-58,9,1,-5,-7,-3,-4,4
152153,20,24,-1,-3,-4,-2,4,-6
152217,-58,5,3,6,1,-2,-2,-15
152275,1,6,22,5,4,2,4,0
152327,-1,49,-16,-3,3,0,-2,-5
152391,3,-93,9,-1,-11,-5,-19,28
152454,20,-24,-11,-5,0,0,6,8
152514,33,50,12,-3,-9,-6,-11,-11
152579,-2,33,-6,1,2,1,0,-3
152635,-4,-79,-23,-9,-17,-7,-5,-22
152686,-16,3,-46,-2,11,4,-5,12
152749,-41,-30,-35,-6,-8,2,-17,-12
152813,-19,24,-17,-7,-12,-6,-2,5
152874,20,-37,-4,-6,-5,-5,-8,-11
152935,4,-25,7,0,5,1,-7,-9
152988,-15,19,19,2,-1,1,2,3
153040,14,54,-16,-2,2,0,-8,13
153091,-14,29,-19,-10,-10,-5,-2,-1
153149,-7,35,-18,-2,-4,-3,-2,4
153197,26,-12,-15,-5,-2,-1,-6,-17
153255,-7,-3,11,9,6,2,4,8
153317,32,-12,14,0,-2,0,-9,-12
153378,-16,120,7,1,3,4,6,9
153438,-58,-24,-7,1,-3,-2,-5,4
153491,-26,-87,-11,4,-2,-2,1,9
153555,9,-21,-20,-8,-7,-3,-2,-13
153613,5,-85,27,5,-3,-3,0,3
153677,-23,13,16,-3,-3,-3,5,1
153738,47,23,-7,-2,-9,-7,-2,2
153793,-2,-99,-4,0,1,-2,-4,-6
153840,11,7,-9,-1,-1,-2,-1,0
153895,-13,3,21,7,8,4,1,10
153954,40,-8,30,1,-4,1,10,-1
153999,-35,-30,54,6,-3,-3,-5,7
154058,1,-33,-7,-8,-13,-6,-4,2
154121,26,-23,-5,-5,-5,-5,6,-2
154181,-9,-2,-29,-6,-8,-3,12,-7
154231,6,-16,7,-2,-9,-4,0,7
154293,3,34,6,0,-3,0,4,2
154357,23,-4,23,0,-5,-2,9,-18
154419,31,25,-13,-4,-5,-1,1,9
154479,2,46,19,0,-1,-3,-4,-1
154539,-24,-24,-2,-2,-1,1,-7,-7
154593,20,-12,25,6,7,1,5,4
154655,-4,-96,32,3,6,3,4,1
154720,3,-10,-14,-4,1,-2,-8,-8
154779,-35,-28,-28,-2,-1,-2,-8,2
154840,-31,3,3,-4,-8,-2,10,-7
154890,-11,-57,-22,-5,1,-1,-7,-12
154945,-6,-83,55,8,4,-2,-2,31
154996,-10,24,-1,-2,-1,-2,3,-4
155048,-16,13,-16,1,2,0,-1,-1
155102,20,8,-27,-6,-6,-3,-5,-10
155159,9,-9,-20,-1,2,-2,-20,-7
155225,34,35,-2,-1,-9,-4,-6,-14
155290,-12,-30,2,-1,2,-1,1,-3
155335,-59,101,-9,5,6,2,5,10
155388,12,-45,34,-4,-9,-6,-14,-7
155439,3,-59,5,1,7,4,5,4
155490,28,-7,16,9,4,1,5,6
155549,-30,52,6,-2,-7,-2,-1,-22
155601,-40,61,13,-6,-4,-3,1,-2
155663,25,-3,-8,-7,-6,-3,-5,-9
155724,1,-1,28,2,4,2,2,3
155784,36,-36,21,-3,-5,-3,-2,-4
155839,21,-20,-6,3,2,0,2,6
155888,-46,-62,7,-1,4,2,3,-3
155941,10,-2,-19,-6,-6,-2,2,1
156000,-42,-70,37,3,-2,-2,-4,-7
156060,63,18,8,1,-2,0,1,3
156106,14,-21,9,-5,-3,0,1,-1
156161,-18,-19,19,3,9,3,4,3
156211,17,-55,-8,0,1,1,-1,7
156263,-38,-49,12,-1,2,0,8,8
156324,14,-38,6,0,-2,1,2,-7
156385,-5,-8,15,-1,0,-1,-6,-6
156436,28,19,-12,-9,-13,-6,-19,3
156490,-24,60,-25,-3,5,3,2,13
156545,-31,69,-6,0,6,3,-6,-12
156592,-18,-18,-13,-3,-1,1,-1,-3
156647,0,-17,23,3,-5,-4,-6,-9
156703,-37,0,-23,-8,-4,0,-1,0
156767,13,-52,6,3,8,3,9,-5
156829,6,2,-8,4,5,3,8,4
156881,-4,-4,-19,-6,-7,-5,-2,-2
156931,-44,55,-1,-2,3,1,6,5
156988,-7,18,-12,-1,7,1,-3,-1
157036,1,-16,-24,-4,-2,-1,-4,-11
157091,8,33,-6,-5,-5,0,9,-23
157148,-7,-92,-2,1,-3,0,3,3
157196,31,40,3,-2,-4,2,5,7
157249,-24,-34,-1,5,3,0,-3,-5
157309,0,-37,7,2,2,0,-6,-17
157367,-7,53,-34,-3,-1,-1,19,-9
157427,-32,-3,0,1,1,2,1,12
157478,7,70,-9,-4,-3,-2,-6,-6
157533,-24,-75,3,-1,2,-2,-8,-9
157585,3,-9,1,3,6,0,9,2
157638,-10,53,-20,-3,-3,-3,7,-2
157695,-15,51,-11,-3,0,-2,-2,-8
157749,-2,43,-7,-3,-6,-3,-2,-13
157809,-21,-31,9,1,0,-1,-2,-7
157859,-5,16,4,2,2,0,-2,5
157922,26,41,-6,-1,-11,-6,-8,-8
157985,27,-29,-23,-3,-5,2,-14,0
158048,-1,54,-16,-4,0,-3,-4,3
158112,-21,36,4,-1,-1,-2,7,6
158171,41,-5,55,6,5,0,9,3
158221,-47,-5,-35,-5,4,1,-2,5
158283,-43,30,-17,-2,-4,-2,1,6
158334,6,17,14,4,-1,-4,-7,-13
158385,-22,66,-2,-4,-2,1,2,-1
158442,-10,16,-17,-2,1,-1,-6,5
158491,-6,0,23,2,-2,-2,-4,-4
158554,-1,10,-39,-1,7,3,3,-12
158618,-23,6,6,5,6,1,-1,-9
158673,-6,-8,-14,0,-2,0,4,5
158722,5,32,4,1,-3,-3,9,-19
158784,24,1,-15,-2,0,-1,0,1
158846,-5,-38,-10,3,3,-1,-6,8
158909,8,42,8,1,-3,-1,-4,-8
158971,-8,19,4,-4,-11,-2,3,3
159031,3,14,-8,-1,1,-2,-5,-6
159083,28,18,10,0,1,-3,0,-16
159145,15,3,-3,3,3,5,14,7
159208,56,-91,18,-1,1,0,2,-6
159272,-2,-55,17,6,3,1,-5,1
159334,-14,2,-13,-3,0,0,-4,7
159398,-16,-37,-10,-3,-5,-1,3,30
159445,-18,9,-11,-2,-2,0,-4,-14
159499,-6,-9,-3,0,1,0,1,13
159548,8,35,19,0,-3,-1,-2,2
159604,25,-80,7,1,-7,-1,1,-2
159655,-47,-8,-8,-6,-11,-6,-4,-7
159722,-18,-43,-11,-3,-2,-1,1,4
159776,24,24,-10,-8,-13,-6,-10,-12
159835,-17,-56,-7,3,6,3,3,-12
159896,23,62,-47,-4,-7,-4,-11,1
159950,-12,-25,6,0,0,0,-14,-5
160015,-22,77,-1,1,6,2,-6,-10
160073,15,-32,-22,-2,0,-3,-5,-13
160134,-6,30,7,-5,-7,-2,-3,3
160194,-41,20,-9,-2,-2,-2,2,-3
160246,-13,-15,19,4,0,1,-5,3
160309,-45,-3,-7,-1,1,0,1,-6
160373,10,44,10,1,5,0,3,-2
160435,-9,-57,-14,-2,-3,-1,-2,-5
160490,-20,17,8,3,3,2,4,9
160540,3,88,17,-1,-7,-1,2,2
160592,-15,-20,5,0,-2,-3,-4,-20
160643,-47,27,24,5,3,-1,3,36
160697,23,14,-17,1,0,-2,-5,-8
160754,16,3,-4,-4,-9,-3,-1,-7
160809,28,-37,-1,1,-2,-1,-7,-21
160854,-1,-3,1,-3,-2,-3,-2,3
160909,-34,67,19,1,-4,-2,-2,-3
160975,-4,6,-16,-2,-2,-1,-2,1
161034,-14,11,-14,-5,0,-3,-3,-1
161099,-3,-1,7,-1,0,0,-1,8
161154,-14,-6,8,-3,-2,-4,-2,-3
161207,-12,-87,24,3,-3,1,7,7
161260,19,-16,7,6,4,0,3,3
161325,2,18,-2,4,6,1,-9,1
161390,-1,4,-23,-7,-4,-1,3,5
161441,-7,-8,-12,-2,-8,-3,1,-4
161492,-27,-45,21,3,2,2,-13,24
161556,-5,-29,-10,-5,-6,0,-1,1
161621,18,43,-7,-1,-3,-3,1,-3
161682,-9,8,24,2,3,1,-5,-10
161731,27,35,-3,1,7,-1,-7,8
161794,-27,9,7,2,-1,0,0,2
161858,-1,-60,2,-4,-7,-5,-6,-3
161919,30,4,0,-1,-10,-4,-9,7
161980,-42,101,-36,-5,-4,-3,-2,-8
162033,-2,28,-8,-4,-2,-3,-2,-7
162094,13,-66,31,2,3,-1,1,-5
162157,-11,-2,-10,-4,-2,-1,0,-14
162223,66,-60,-40,-6,2,1,2,6
162288,-14,-41,0,-1,1,-1,2,3
162330,-8,50,8,-3,-7,-5,-3,7
162384,-2,21,9,-2,-8,-2,2,-7
162436,-11,36,7,-1,-3,-1,8,-2
162496,-21,-34,29,5,6,0,-4,6
162548,-6,-3,-4,7,7,1,5,13
162603,-57,69,5,1,1,1,3,-20
162664,-28,-17,-28,-9,-13,-5,-3,-3
162729,-51,16,-1,-2,-6,-1,-4,-12
162783,52,-12,-14,-4,-1,-2,-2,6
162832,-32,78,-22,0,5,1,-7,-8
162896,-1,-85,41,7,8,5,3,13
162946,33,21,-9,-3,-6,-2,2,-7
163000,19,0,-2,-7,-4,-2,2,-20
163056,-19,-37,3,-1,-2,-3,-10,-9
163115,-5,30,7,-7,-8,-3,-2,-2
163165,-7,-8,3,0,4,-3,-8,-2
163225,40,66,-7,-6,-6,-6,-4,-12
163277,39,-25,15,6,3,2,-3,-3
163342,-26,16,5,4,3,2,-2,-10
163406,18,-47,-10,-1,-2,-2,-3,-4
163463,-29,35,13,5,5,0,-1,7
163524,-3,24,22,1,1,1,-1,7
163575,-13,7,-19,-5,2,2,-4,-5
163630,-27,72,-20,-4,-2,-1,-8,-9
163681,11,-27,-17,-6,-6,-1,12,2
163733,-25,35,-19,1,1,2,14,35
163787,-30,37,-11,3,5,1,11,16
163838,-15,15,-6,3,1,0,0,-2
163891,-31,43,-2,-5,-8,-4,-6,0
163945,-27,-25,14,1,5,1,-1,-1
164004,29,-12,0,-1,-1,-2,-2,-7
164064,6,13,-16,-3,3,1,-1,-4
164123,-13,11,-3,0,1,0,3,-8
164183,-16,57,2,-6,-6,-1,2,4
164228,58,19,-13,-2,-1,0,-1,4
164282,-19,-11,-7,4,6,2,4,2
164337,18,57,10,2,4,1,-1,-6
164385,-29,19,4,-2,-3,-2,-4,5
164447,-26,-57,-10,1,-1,-1,1,1
164506,-28,43,-26,-3,0,0,2,1
164559,-22,-11,-2,4,3,-1,0,-4
164611,7,8,6,0,-1,-2,0,6
164664,-28,37,-1,-1,2,0,-1,1
164725,21,-48,-7,1,-1,0,5,0
164770,11,18,-4,0,-2,0,-4,4
164825,-8,4,-7,-1,-4,-4,0,-7
164873,10,-32,1,2,4,1,2,-19
164927,3,8,4,2,4,3,4,-4
164985,16,-26,-2,-3,-4,-2,-5,-13
165046,4,-61,-1,-1,-2,-1,1,-17
165111,8,-1,-7,0,2,2,3,0
165159,-16,10,-7,-5,-3,-3,-5,-5
165212,37,17,-5,0,1,1,11,4
165263,-10,-23,2,-4,-7,-3,-5,-20
165319,-15,-5,-23,-4,-1,0,3,3
165370,-8,8,-1,0,-3,1,0,0
165436,4,-17,-14,-7,-1,0,0,4
165491,-24,-13,6,4,-6,-4,0,-4
165550,-16,7,12,-1,0,-3,-5,-5
165601,18,-97,-12,-3,4,-2,0,-9
165653,-17,-21,-16,-4,-3,-1,-19,2
165706,-16,17,-18,-4,0,1,2,3
165760,-11,-93,-12,-6,0,-1,-7,-3
165814,1,-18,-5,2,0,-1,-5,-7
165863,11,27,7,3,2,0,-3,-10
165916,1,-47,-14,2,6,-1,7,32
165969,-27,4,8,-3,-5,-2,-16,-4
166028,-1,-1,-15,-5,-6,-3,-7,-5
166089,-56,-13,11,10,9,3,9,5
166150,35,-10,-1,-5,1,-2,3,1
166212,-14,-45,-14,-3,-1,-2,2,10
166264,9,-19,-9,-4,-3,-3,-6,-24
166328,-16,-59,15,5,1,-1,1,-4
166392,-23,-26,-15,-5,-7,-2,7,42
166451,2,20,-17,3,7,0,1,4
166503,-12,5,-10,0,5,4,-1,-4
166554,18,38,1,-1,0,-2,-23,-4
166605,-28,32,-10,-3,-5,-2,1,-6
166657,13,27,10,-1,3,0,-5,-6
166720,-6,4,0,-4,-13,-5,2,-3
166767,-15,-20,-6,-3,-4,-4,-5,-3
166829,12,-38,19,7,5,1,1,6
166891,4,48,-31,1,6,3,5,5
166953,-44,-4,3,-2,-3,0,-9,24
167009,21,-52,-2,0,1,-2,2,-18
167056,-20,-26,4,-2,-4,-4,-5,2
167109,18,13,-5,-3,-5,-3,-4,-3
167160,12,-91,30,9,6,1,5,4
167216,-24,3,4,5,7,3,14,-10
167272,-8,22,4,-2,-7,-2,2,2
167338,-46,53,7,-4,-7,-2,2,14
167394,1,24,-8,3,0,-1,-8,2
167454,-29,3,19,2,5,2,-1,1
167506,-3,-19,22,2,-3,-4,-5,-4
167569,8,18,14,1,-3,-3,3,-2
167630,19,15,-9,-1,1,-3,-10,-8
167694,-7,-38,4,1,0,0,-9,-10
167759,-9,57,6,1,1,-2,-2,4
167805,-16,-10,-6,0,11,-2,2,-1
167870,4,-78,-14,-1,13,1,2,9
167931,-26,28,17,0,-3,-2,3,3
167996,74,-27,-10,0,7,-1,7,-1
168055,9,5,8,-1,5,-2,2,5
168106,-26,-15,4,-2,-5,0,-12,-3
168157,2,26,-31,-2,-1,-3,-17,-15
168212,-23,-12,-31,-2,-1,1,-3,8
168273,-8,-22,-12,0,21,-3,-7,4
168317,19,-97,15,0,-2,-3,0,0
168377,-16,-13,0,0,-10,1,-2,8
168437,-16,-10,41,5,6,0,3,17
168487,-16,31,-5,0,-3,1,-1,-1
168541,-32,73,-4,-5,-1,-1,7,42
168594,-28,14,-17,-6,-18,0,6,2
168649,12,0,35,0,-2,-3,2,0
168699,-1,21,15,-1,-4,-2,3,8
168754,39,53,30,-2,-21,-7,4,-8
168816,-2,-34,-10,2,8,6,-3,-5
168879,37,55,18,2,1,-1,-25,1
168940,-2,52,-12,-9,-17,-7,-5,15
168990,8,41,-15,-5,0,1,-4,-18
169053,24,21,13,3,0,0,-2,18
169116,-19,-56,24,0,0,-1,-1,-9
169179,-24,13,5,3,5,2,3,4
169239,32,5,5,2,0,-2,-3,1
169290,53,42,7,-4,-4,-3,2,-8
169353,1,3,-11,-3,-5,-2,-5,0
169418,16,36,-16,-3,2,-5,10,-12
169479,-10,-20,-5,-3,2,-1,0,-7
169546,-1,-16,7,1,-2,1,3,3
169609,15,72,29,0,-7,-3,-6,-4
169654,10,79,5,1,-10,-5,-4,-3
169717,13,25,-7,2,3,-1,6,-1
169781,53,10,-10,-3,0,-4,-7,5
169839,-38,2,-4,-3,7,-3,5,-16
169889,1,-1,-12,-3,2,-1,2,3
169944,-7,31,-7,-1,-10,1,-3,1
169997,24,-47,18,3,10,1,1,-4
170048,-21,18,-16,0,8,2,4,-11
170103,-20,-40,-1,-5,-3,-2,-5,-7
170159,0,-52,-54,-9,16,-4,4,2
170222,-16,-19,-37,-5,-3,-3,-2,0
170282,-3,-3,-13,0,4,2,2,0
170334,2,5,-11,-6,-11,-6,-3,-3
170398,-41,-14,-19,1,4,3,10,11
170461,21,-9,1,-1,-4,-3,-4,-27
170521,41,-81,1,-5,-6,-3,-3,-12
170572,8,12,-10,-4,-7,-5,-2,0
170626,12,18,-2,-2,-2,-5,-9,-8
170681,-15,-43,-12,-3,4,3,-5,5
170730,11,36,-15,-3,-3,-2,-7,23
170787,-15,-17,-12,-3,14,-4,13,3
170839,49,-11,-32,-5,-3,-2,-5,-24
170902,-18,17,2,1,0,2,2,11
170963,-2,-36,-5,6,-1,0,-4,-4
171024,14,-38,-12,-6,-4,1,-4,-6
171077,-17,34,-15,-4,2,-2,-8,-2
171138,-25,19,2,-2,-1,0,0,1
171202,-11,-11,4,-2,0,1,2,0
171265,-13,95,26,1,2,1,3,4
171324,-49,63,-3,-1,0,0,-3,4
171376,7,35,2,3,5,3,16,6
171428,-19,-67,6,0,-5,-2,1,-2
171481,7,-25,-11,-3,-4,-1,-4,2
171532,-4,-11,-1,-1,2,-2,-2,-4
171588,12,23,9,-2,-1,2,-7,2
171645,34,-58,-2,1,1,-3,-6,0
171711,-9,12,17,-1,-14,2,-9,-8
171773,2,-58,18,0,-1,-2,-5,12
171820,11,13,4,-1,0,-3,4,7
171875,-3,11,-23,-1,16,-2,-3,2
171923,-33,29,-19,-3,5,1,1,9
171976,-31,34,16,-1,-2,-1,-5,-4
172030,-10,14,-18,-1,1,-2,0,-7
172081,-2,29,-3,-2,4,0,8,-3
172134,-15,1,-12,-2,6,0,-2,0
172188,-9,27,8,-1,-1,-3,-3,-8
172245,13,34,0,-2,-21,-1,-1,2
172306,2,60,22,5,-1,0,-1,10
172356,-14,77,11,1,3,-2,-1,1
172411,22,-81,-2,-6,-14,-4,-4,-5
172465,-10,-5,-2,-2,11,-2,-17,37
172532,-22,-24,-8,-1,-4,0,-3,0
172577,3,-43,-25,-2,2,-2,10,-2
172629,-4,17,10,-2,-5,-5,1,-3
172685,-38,9,7,5,-6,-4,3,4
172748,-5,-13,-26,-1,7,-2,-4,-1
172809,-7,-12,11,2,8,4,8,3
172869,1,-22,-16,-4,-10,-4,13,-1
172922,-32,-100,-19,-3,2,0,0,5
172982,45,-12,-11,-5,6,-3,-2,-1
173034,8,-9,-3,0,-3,2,5,0
173087,-23,64,-9,-10,-18,-4,3,-1
173143,17,3,-10,-3,-10,-5,-3,0
173206,2,-19,15,4,-1,-2,-3,3
173261,-27,-11,-49,-9,-4,-1,-20,3
173311,1,19,-18,-4,-15,-1,-2,-6
173362,5,46,-15,-4,-6,-3,0,-5
173424,1,44,-2,-1,-8,-2,-2,-1
173483,15,24,5,-1,-14,-1,-2,-1
173528,10,-15,7,0,-12,3,-1,-7
173588,-8,11,-3,1,5,1,6,3
173649,19,-13,0,-1,3,-2,8,0
173709,2,-70,-21,-3,0,-2,2,4
173761,9,-10,-6,-2,0,-5,1,-3
173813,5,-21,1,-1,5,1,-1,4
173866,-13,-5,7,-1,-6,0,-4,-4
173922,-23,-13,-21,-4,-5,-1,5,10
173972,-22,30,-18,0,-2,-2,1,0
174034,-9,-20,-12,-9,-13,-4,-11,-3
174094,-15,-2,-10,0,0,-1,-2,-4
174158,2,7,15,0,-2,-1,1,5
174204,-6,35,4,2,7,0,2,4
174267,24,-17,8,1,-18,6,-2,1
174329,0,19,21,3,2,-1,0,1
174392,-3,-47,-2,-3,-3,-2,-3,-4
174452,-13,-14,-11,-3,-11,0,-1,0
174504,-9,-4,-2,0,-4,0,1,-3
174566,-32,-3,32,-3,-3,-4,-1,-1
174631,10,-105,13,2,4,-1,4,3
174693,-14,31,-6,-3,8,-2,-1,0
174752,-19,35,37,9,6,2,-6,-4
174804,7,5,-5,-2,-1,0,2,3
174857,14,-27,-16,-1,-2,1,2,5
174911,-20,1,-10,-2,0,-1,-5,-6
174963,7,-68,17,4,-2,2,-4,-7
175014,14,19,15,0,17,-2,-2,-5
175074,16,13,-12,1,0,-2,-1,-6
175135,-29,-33,-19,-3,3,-2,3,-3
175195,7,19,-22,-3,0,-1,-5,-1
175258,-16,-22,22,3,2,1,-21,-12
175315,-24,82,-5,3,12,-1,5,-1
175375,2,-12,1,-4,-29,0,4,1
175434,-19,18,4,0,-3,-1,-18,-1
175495,12,43,-18,-5,-5,-5,-3,-6
175552,7,12,28,3,22,-3,-1,-4
175616,16,69,33,3,5,1,-7,2
175672,-22,-9,-23,-11,-21,-5,-2,-3
175734,-12,77,27,2,22,-2,0,2
175794,-29,-5,-24,3,3,0,7,-1
175854,-27,51,-23,-7,-12,-6,-11,-3
175908,24,10,-27,-6,-5,0,-4,-1
175964,5,30,11,3,3,3,7,33
176011,-7,-31,2,5,7,2,-4,3
176064,-3,-44,46,9,6,1,-18,3
176122,-5,-30,28,5,-2,-2,-2,15
176171,24,-24,34,3,-5,0,2,1
176235,-10,2,-1,1,4,2,1,3
176297,27,-55,15,2,1,-1,-12,6
176356,31,-28,-12,-2,3,2,3,-7
176408,6,-9,-9,1,1,-1,-5,-8
176471,1,0,-9,1,-3,2,4,9
176534,7,37,12,1,-4,0,-2,-8
176595,-2,10,4,-2,3,0,3,0
176657,-6,26,-10,-3,7,-1,-13,2
176717,-1,13,42,6,27,-2,-6,-16
176777,9,30,30,1,0,2,3,0
176828,8,-110,25,-1,-1,1,0,4
176883,-2,-3,10,1,2,-2,3,2
176936,-8,9,-25,-5,6,-2,8,4
176986,-10,-26,14,0,-3,2,6,2
177039,12,-4,-12,0,-1,-2,2,2
177099,-20,-12,-16,-1,-5,-2,-1,-3
177160,-34,8,23,2,4,3,3,-6
177219,-17,11,20,0,-5,-2,1,5
177271,-36,-44,4,-2,-11,-4,0,-1
177335,-6,-22,-26,-6,-4,-4,-3,3
177399,20,18,9,2,8,2,-4,-3
177463,18,-14,4,-4,-5,-2,12,6
177519,-17,5,-2,2,-1,-1,-8,-4
177580,-22,10,8,0,2,0,0,-4
177635,-7,54,-16,0,6,1,-5,-8
177683,-13,0,-17,-4,-3,3,7,9
177736,-15,28,27,0,6,2,-3,-20
177792,4,-64,-5,0,-1,-3,4,-1
177842,-16,-29,-11,0,4,2,0,-5
177899,14,0,10,2,-7,-1,-1,-4
177961,6,17,8,0,3,4,-3,1
178022,21,16,13,2,3,1,0,-1
178083,-30,-6,5,1,1,-1,2,7
178134,3,-7,-2,1,2,1,-5,1
178187,-5,19,31,8,7,4,17,-1
178240,4,4,-11,-2,3,-1,2,0
178295,-1,11,4,2,2,0,-2,-2
178345,-36,-2,25,2,-3,-4,-7,-2
178400,19,13,1,1,-2,-1,-3,6
178462,-16,28,-5,1,-1,0,0,6
178524,14,-16,-3,0,5,-2,15,-1
178586,-1,-21,-28,-5,14,-3,-4,1
178637,25,40,48,5,-2,1,-2,-3
178700,13,10,41,9,-6,4,12,-7
178763,-16,11,-2,-2,-7,-3,-3,6
178824,0,14,5,-2,-2,1,0,4
178884,6,6,-10,-3,-9,-2,-1,6
178938,-7,-17,-9,-4,-31,0,0,-6
179001,-42,-34,-24,-4,-8,-1,-3,1
179063,-3,42,-7,-1,8,0,-2,9
179125,-4,0,-2,-2,6,-2,2,0
179182,31,47,-17,-11,-14,-5,1,5
179238,-41,101,4,-5,-9,-3,0,-4
179302,-26,-14,4,0,1,0,0,5
179365,9,-23,-5,0,-2,2,0,3
179425,28,-27,-4,0,18,-3,0,-5
179478,-6,15,2,-1,-7,-2,-4,-7
179528,1,-57,16,4,2,3,-1,-4
179581,19,21,-2,1,4,0,-2,2
179633,13,15,3,0,1,-1,-24,3
179695,15,-1,14,0,4,0,-2,2
179742,32,-30,27,1,-3,-2,8,-7
179806,-29,-19,11,-6,-11,-2,8,46
179866,3,52,-7,0,-2,-1,-11,-12
179927,-31,4,-6,-2,-2,-2,-1,-5
179981,5,-26,-10,-5,8,3,-8,-28
180029,1,37,-15,-3,8,-1,-3,-9
180083,1,6,-21,-7,-8,-3,3,-1
180135,-2,-33,20,0,2,1,3,1
180186,-55,-53,18,4,-3,0,-1,-3
180249,-9,-16,20,6,-2,-3,-2,-9
180311,21,-9,-9,-3,-1,1,2,0
180369,-7,-37,-16,0,-3,-2,3,2
180421,3,51,22,0,-10,-3,-12,-3
180473,23,5,7,0,3,0,-8,-14
180526,-29,40,6,0,-2,-2,3,-1
180581,-4,10,-5,0,-3,-2,0,0
180644,4,-23,-7,-3,-1,-1,15,-1
180707,-13,-63,-5,-1,-9,-1,-5,4
180766,9,23,-6,-4,-3,1,0,5
180822,9,-6,14,1,0,-1,-7,-8
180871,25,20,-12,-7,-6,-4,-3,-2
180923,-28,5,-2,-1,2,1,-2,-12
180980,0,26,18,0,3,-2,-5,-3
181028,1,-67,2,2,23,-2,-5,-26
181089,22,-82,-22,-4,-2,-3,0,-6
181149,37,42,8,4,4,-2,19,-1
181208,-5,5,-25,-7,-10,-5,-21,1
181262,-25,-54,-24,-1,-6,-1,4,19
181315,-40,0,0,0,4,3,4,25
181369,-6,-63,16,3,-3,-1,7,-3
181421,-26,1,-22,-4,0,-2,-4,-1
181472,-20,39,10,-1,-2,-1,-4,-7
181530,-32,12,-24,-8,-9,-3,-4,34
181583,-33,78,1,1,2,-2,-2,14
181638,-18,30,-12,3,4,3,-4,-11
181688,-15,-32,-1,-3,-2,-2,0,-4
181749,-49,-13,8,1,2,2,5,3
181799,-12,20,-19,-6,-4,-2,3,-3
181853,16,-30,-9,-3,-2,-3,-8,6
181906,10,38,1,-1,-1,-2,2,-4
181958,-28,21,-3,-7,-6,0,-1,-17
182016,-37,2,-8,-2,-2,1,13,23
182069,-37,66,-41,-5,2,3,11,18
182132,4,40,-17,0,5,1,-1,1
182194,23,-10,1,-2,-2,-1,3,1
182252,-2,6,-24,-6,-1,-2,-6,-14
182307,3,-37,38,7,4,4,5,1
182356,-26,3,16,3,2,1,2,14
182408,6,25,-21,-4,-2,-2,-3,-2
182462,-15,-44,7,-2,-3,-4,-5,-7
182514,-9,-74,-19,-3,-1,-2,1,-2
182571,1,9,19,-2,-4,-4,1,-16
182635,-16,78,10,3,3,1,4,-1
182695,32,63,2,-1,-1,1,4,-3
182749,18,-38,-24,-5,-3,-2,-7,-7
182813,94,-41,6,0,0,-1,4,10
182876,21,-48,-1,-3,-3,-1,-1,-2
182934,-6,55,-9,-7,-3,-3,-5,5
182994,3,26,9,4,5,0,-3,-3
183054,-7,-6,-17,-1,-5,-1,0,8
183107,-20,-56,-35,-1,1,-1,-4,9
183158,-23,-12,-3,-8,-7,-4,3,-16
183211,25,-87,-5,0,-4,-3,2,-4
183264,36,-59,-4,1,0,-1,-2,10
183319,29,-38,25,-2,3,-3,-6,-7
183372,-14,4,-3,-1,-1,-2,-5,-3
183434,-13,25,0,-2,1,2,3,4
183497,-7,19,-1,3,2,-1,-4,-20
183557,7,-11,-13,0,-3,0,-1,14
183607,-46,3,-7,1,1,0,0,7
183672,24,-91,63,7,3,0,1,1
183737,-10,-7,-3,-2,-4,-1,2,14
183801,-18,11,-16,2,1,0,9,-4
183865,-22,2,-26,-3,-6,1,-5,-21
183919,-3,-12,-9,-7,-5,-5,1,-8
183969,-6,-11,-6,-3,-1,-2,-2,9
184033,13,-38,-3,3,4,2,0,6
184096,9,10,14,0,5,-2,-3,4
184157,-10,48,-12,0,5,-1,-6,-5
184218,-5,26,3,0,4,-2,-10,0
184268,35,-10,8,1,5,-1,11,-7
184321,-50,-3,-12,2,2,-4,5,-2
184373,51,-76,8,1,-4,-2,3,-8
184436,-18,26,8,4,25,-1,-5,12
184481,-8,2,18,-1,-17,-2,-2,3
184539,-16,39,10,0,-5,-1,3,-7
184599,-14,-8,13,5,3,2,0,2
184660,-3,24,10,3,0,0,0,-21
184713,0,-64,1,4,10,1,-2,-7
184776,10,0,-26,-8,-10,-4,-2,-12
184839,-5,-45,-8,-1,1,2,-25,-1
184899,49,-39,12,-6,-11,-7,-3,-31
184959,40,109,-16,-1,1,-2,-5,-22
185012,6,30,-32,-6,-5,-3,-5,-14
185068,9,-7,-11,0,2,1,5,6
185116,21,-6,-9,-1,-4,0,0,3
185168,15,27,-21,1,1,0,-3,-2
185222,-6,12,3,0,-1,-3,-5,-6
185279,1,30,-10,-1,1,-2,1,-5
185340,-7,83,12,-4,-10,-7,-12,-4
185402,-16,-25,-6,0,-5,0,5,-1
185462,19,29,-6,-1,2,1,-2,1
185517,-33,7,-3,1,8,0,-3,-14
185578,3,-26,-22,-7,-21,3,-4,4
185643,7,-21,11,4,6,0,0,1
185704,25,51,-5,1,-1,-3,-3,-1
185763,-30,97,-6,-2,1,-1,-6,-8
185815,-4,-9,9,-1,-4,1,-2,3
185879,-3,-44,-8,-4,-2,-1,-6,-9
185939,-2,1,-15,-3,0,-1,-2,0
186002,60,32,-4,-2,-3,-5,-9,-12
186061,41,-52,46,7,0,2,1,0
186112,-27,79,-23,-3,-4,0,-2,-2
186165,-25,31,22,0,2,0,0,-3
186218,-11,-14,10,1,-10,-3,1,1
186281,9,26,-30,-8,-5,-2,0,-14
186324,-4,-65,-9,-4,-7,0,-5,-2
186379,2,13,-5,-3,-35,0,3,1
186445,19,-17,-23,-6,-3,-3,-17,-15
186505,53,-8,-3,-2,-10,-2,1,4
186564,-14,9,-5,1,0,-1,6,0
186614,-16,7,5,-3,1,-3,6,-7
186678,13,4,13,-3,-6,-1,3,2
186741,-26,-7,0,2,4,2,-5,6
186804,37,87,21,-3,4,-1,3,3
186864,35,4,-13,-5,-13,-7,-7,-2
186925,-18,-62,-12,-1,5,-1,0,-5
186979,13,62,11,-4,-9,-2,-1,0
187042,-7,-71,-22,-4,2,-1,3,15
187107,6,35,-3,-2,-1,-3,-2,0
187168,6,13,1,-6,-3,-5,-8,-3
187214,0,2,-15,-3,7,-5,-5,3
187268,-13,-10,-6,-1,3,-1,1,-1
187320,-16,10,2,-4,-7,-3,0,2
187371,-2,3,-17,-1,0,-1,-10,-20
187426,7,-48,-8,-1,0,-1,-3,-4
187490,-19,-10,-13,0,-4,-1,-5,4
187553,26,25,-28,-7,-15,-1,-8,0
187608,-32,18,-13,-5,-7,-2,-5,-3
187666,-55,-6,-3,0,19,1,6,-13
187719,37,-9,-12,-3,-8,-3,-4,-4
187771,-6,-13,0,-1,-2,-2,2,1
187823,-11,10,-5,-2,1,1,1,15
187875,52,44,-8,-3,-6,-1,-1,10
187931,-15,-55,-2,-2,-1,2,5,42
187989,-4,-5,-5,1,6,2,2,0
188050,-16,11,-1,2,3,0,-2,-7
188102,4,-6,9,-1,-7,-4,3,-15
188153,21,-22,-8,-2,-3,-2,-3,0
188207,-9,35,-19,-4,2,0,0,8
188258,-14,56,-18,-9,-6,-5,-3,21
188319,39,14,-15,-3,-5,-2,-8,2
188363,26,86,16,-2,-8,-5,-5,-11
188415,5,-17,29,5,3,1,-22,-7
188468,-35,-29,10,-3,-12,-1,-5,7
188527,-12,-21,-15,-5,-2,-4,6,-7
188589,15,16,-3,-3,-6,-5,-5,-8
188649,9,19,9,2,-3,1,3,-9
188708,-18,-6,-11,-2,0,1,1,15
188763,11,42,11,3,2,-2,-28,-25
188813,-15,-15,30,2,-17,0,-14,-3
188868,11,28,38,2,1,1,7,4
188922,-5,29,0,-3,-4,-2,1,12
188971,13,-9,-6,-6,-15,-8,10,-14
189024,16,28,13,1,1,2,2,8
189088,-5,15,6,4,5,4,7,17
189150,-1,15,7,-2,-5,-3,-8,-22
189211,0,-32,2,3,6,0,-23,-15
189273,20,17,21,5,4,1,1,0
189323,-18,-43,-5,3,2,-1,1,-4
189377,-20,7,-22,2,6,5,-3,-15
189428,-19,-1,27,6,4,2,-1,3
189479,6,-18,4,-2,3,1,6,10
189533,-20,46,-8,-3,-1,1,-1,-2
189598,-13,-17,-2,0,-1,1,-3,6
189662,-17,25,11,-2,0,1,6,3
189718,-13,-11,-18,-2,1,-1,-1,-2
189775,5,6,-19,-7,-5,-5,-7,-8
189826,7,-6,-7,-4,-3,-1,4,4
189891,-4,112,-1,4,3,0,6,11
189955,-5,-65,10,-1,2,-2,6,14
190019,-42,15,-2,-1,-8,1,9,22
190074,4,23,3,0,3,0,-3,3
190123,-38,35,-8,-8,-6,-5,-6,-1
190186,0,-5,-10,-2,-2,-1,9,7
190249,-11,10,9,2,-2,0,3,0
190310,16,-7,-3,1,2,0,3,-3
190372,-46,14,-13,2,2,-2,1,5
190434,1,8,-13,-4,-5,-5,6,-3
190494,43,-2,16,2,0,-2,-4,-6
190556,3,-33,24,2,2,1,-2,-4
190614,-20,-10,1,6,12,3,1,-2
190678,-1,-116,-24,-3,5,0,3,11
190745,-5,7,5,-1,-1,1,-2,4
190794,-11,37,5,-1,-1,-1,-24,-3
190847,31,-31,20,-1,-5,-2,-19,-4
190904,51,-53,-1,-2,-3,-3,-3,-25
190951,26,21,22,2,3,2,5,-7
191002,-14,-9,-14,-2,-4,-4,-8,-13
191060,-19,17,-1,-4,-11,-2,-1,3
191113,-4,10,0,-2,3,3,-3,-15
191174,-7,-1,-22,-5,-3,-2,-2,-1
191236,18,18,-15,3,4,1,-2,14
191298,15,-11,-9,-4,-7,-3,-3,7
191350,-13,-77,-13,-4,-2,-1,14,-2
191411,-23,46,11,-1,0,-2,-5,1
191472,-1,22,-15,0,1,0,2,-6
191534,23,-8,25,3,1,-5,-27,0
191594,-10,32,-5,-7,-8,-2,1,-17
191655,13,31,9,-4,-4,-4,-3,-15
191714,36,57,24,4,2,-2,-7,-6
191775,-4,-50,10,2,2,0,-8,-13
191838,15,3,-22,-1,2,0,12,15
191905,-39,6,24,3,0,0,3,-2
191957,-2,-42,-14,-3,1,-2,3,4
192018,0,-66,-11,-5,-5,-1,1,2
192077,-6,-11,-12,-4,-6,-3,-3,5
192137,2,34,39,5,6,1,-1,3
192199,-6,-23,-2,-1,0,-2,-3,-5
192247,5,35,-17,-1,2,-1,-7,-15
192301,-15,6,13,-2,-6,-3,-17,2
192352,0,14,-18,0,3,0,2,2
192413,-16,-4,1,-4,-7,-2,-1,-10
192479,-19,-20,-19,-2,-4,-3,-1,2
192539,26,100,-44,-10,-2,0,0,-4
192605,-8,-13,-9,0,-6,-1,-2,-4
192668,-1,-99,6,4,7,3,-20,3
192719,-18,81,-15,-1,1,0,6,-1
192779,-1,-12,-8,1,-3,-2,2,15
192840,-14,-41,-18,-2,2,-1,1,6
192901,-31,8,32,4,0,2,9,16
192962,-14,-28,1,-3,0,-1,-3,-16
193022,-27,65,-27,-6,-3,-3,4,2
193081,-38,41,16,-1,1,-1,-8,-8
193132,38,16,26,2,0,-2,-8,-11
193192,19,-7,30,3,6,2,-2,-9
193253,-7,-19,-19,-6,-4,-3,-4,1
193313,-53,34,2,3,4,4,8,27
193374,-30,-16,-16,-1,4,0,7,-10
193436,16,46,19,-4,-8,-5,-20,-26
193498,16,9,-3,2,4,0,0,18
193559,-13,20,0,0,0,0,2,-16
193622,-2,19,3,-4,-6,-4,-4,-4
193687,-1,17,-5,1,3,1,-1,8
193741,-18,43,7,-2,-2,0,-1,10
193802,-45,37,1,1,1,-2,-10,-20
193863,-5,30,-8,0,4,2,6,13
193922,-66,25,-7,-2,-1,-3,-2,-18
193983,-3,13,-1,3,2,1,-1,4
194033,-28,9,4,-2,-3,-1,-10,-6
194086,-28,52,7,0,1,3,17,-4
194139,-10,-14,16,1,-1,-3,-3,14
194191,-40,-59,9,3,4,2,6,6
194246,5,83,-4,-5,-11,-6,-2,1
194297,-17,-2,15,-3,-8,-3,14,4
194349,-2,-32,20,0,1,-1,-2,5
194401,-14,-116,-21,1,4,1,-4,6
194456,-31,-9,5,-6,-9,-4,9,-1
194515,-9,-69,4,2,5,0,-2,-6
194567,-14,1,-12,2,2,-2,2,-5
194627,22,52,-1,-3,-10,-4,1,4
194679,22,2,-22,3,6,1,3,-5
194742,24,52,19,0,0,-1,2,4
194804,-1,-9,20,8,8,2,2,-10
194867,-23,10,-6,1,2,1,4,0
194928,29,-64,2,-1,-1,2,3,24
194979,23,-42,25,1,2,3,-4,-5
195043,-15,14,1,2,3,3,6,10
195107,-10,19,-6,0,-2,-2,1,-2
195167,20,21,11,1,0,-1,-2,7
195220,-20,3,-4,0,-2,-1,3,7
195278,1,127,-4,-2,4,1,6,-3
195324,6,27,-15,0,-1,0,1,1
195378,-7,29,-26,-2,-2,-2,-6,-6
195428,-4,-18,10,2,2,-1,-7,-8
195485,38,-37,-12,-7,-6,-4,-5,-5
195548,-10,-12,-12,-2,-2,0,3,-4
195608,-28,37,-24,-7,-7,0,-17,2
195668,-17,63,38,2,0,-1,-2,7
195725,11,-40,-1,0,-4,-2,-4,0
195773,-58,21,41,8,6,3,1,-32
195828,-21,26,15,6,6,3,-3,17
195878,-9,37,-16,-8,-5,-2,-6,-1
195931,6,-34,12,0,-1,0,0,-10
195983,4,65,-15,-2,5,0,-7,-6
196036,-2,-20,7,-1,-3,-2,-1,8
196089,15,8,4,-2,-2,-1,-1,-35
196148,-10,-14,-12,0,1,0,-3,4
196209,-10,-1,-10,-7,-2,-1,-20,2
196259,9,97,-18,-3,-2,-5,-4,-3
196313,-23,-18,10,4,7,2,3,7
196367,-24,28,-11,-1,-7,-7,9,-1
196417,-13,65,-14,-4,0,2,3,4
196471,6,30,-10,2,2,2,1,10
196531,15,6,2,-2,2,1,13,6
196593,-11,65,21,2,4,0,-7,3
196653,-25,12,-10,9,12,2,-7,0
196703,-27,-104,12,-1,-2,-2,-3,-20
196755,-49,-70,-29,-7,-3,-2,-1,4
196809,-33,33,-14,2,10,4,2,38
196862,-63,50,29,-8,-17,-5,7,4
196913,0,50,14,-3,-6,-3,-1,-7
196971,9,-19,26,4,4,-1,-3,-6
197021,-50,13,3,1,8,6,9,3
197071,-21,27,-9,-5,-8,-3,4,16
197131,10,-8,-37,-1,6,2,1,-4
197192,37,-80,-1,-5,0,3,8,-13
197244,-35,-9,1,1,4,0,-3,-10
197294,-21,9,-25,-9,-9,-4,-9,-10
197352,-10,-38,-9,0,6,2,-2,1
197401,57,-30,-5,1,-3,-1,-6,-7
197454,-8,-4,-17,-3,-6,1,-6,-17
197511,-48,12,18,-5,-8,-4,-18,1
197557,-1,-14,0,2,1,0,-4,-19
197610,-14,39,-27,-1,-1,0,-1,9
197664,-7,111,-23,-2,-1,-2,-1,-6
197716,-25,38,-18,-2,0,2,1,3
197768,23,-47,34,2,-1,-2,-8,-24
197822,-44,10,8,2,-2,0,-2,-5
197877,-10,17,10,4,-1,0,0,0
197933,17,-39,9,2,1,-1,-2,-5
197995,28,19,-27,-3,-1,1,0,-4
198044,11,-22,-30,-1,-1,-3,-3,-18
198098,28,-84,-19,-6,-4,-3,-1,-10
198151,5,68,13,-5,-1,-2,0,2
198210,-71,11,-4,5,11,6,5,11
198257,36,5,-19,-3,-4,-3,0,-11
198312,-22,-7,0,3,4,1,-5,-1
198376,58,-107,32,-3,-3,-5,-5,2
198439,8,-5,69,10,6,3,-9,-4
198499,0,-7,-12,-4,7,1,5,-6
198549,-20,-8,-4,3,0,1,5,10
198611,10,-7,3,0,-30,1,5,-4
198674,-8,3,8,-9,-12,-5,-3,5
198736,20,-3,3,18,22,-3,-10,-19
198797,-63,33,-6,-3,-1,-1,0,36
198848,19,-3,8,9,7,2,-2,-20
198913,-1,33,-35,-9,-5,-2,2,-4
198975,7,0,-7,-1,-2,-4,-6,-3
199036,-35,-2,20,9,10,-1,-2,17
199099,-32,-14,4,1,3,4,-2,-17
199147,-22,27,-4,-1,18,0,-1,0
199211,-2,8,-10,3,11,1,3,3
199275,-1,-36,-11,4,6,0,5,10
199337,-52,68,-4,4,0,2,2,13
199386,-53,-8,-7,-4,-3,-2,-1,2
199440,22,3,-8,-2,-3,-1,4,6
199494,3,39,66,8,8,0,-3,-6
199545,16,13,0,-8,-12,-7,-5,-11
199610,-16,-34,-29,-14,-9,-7,-24,-17
199656,4,13,44,1,-7,-3,7,4
199716,24,-39,-16,-1,-25,-4,-3,3
199779,-8,4,-14,-7,-1,-2,3,-19
199841,8,3,14,3,1,-1,5,-10
199890,-34,1,-17,2,0,2,1,6
199952,-13,-6,1,1,0,0,-4,8
200014,11,6,10,-1,-3,-1,2,12
200078,-16,17,-4,1,-1,-2,3,2
200139,17,-1,17,6,0,-2,-3,16
200200,-12,19,-23,-1,4,2,1,-23
200253,2,35,-1,1,4,-3,-4,-8
200303,5,37,-27,-8,-5,-4,-2,19
200358,31,39,6,-2,-2,-3,-23,3
200409,22,-18,0,-1,-2,0,6,5
200461,52,59,-18,-5,-9,-3,-14,6
200520,12,-14,-8,-2,0,-1,-1,-7
200582,8,-8,4,0,-3,1,-8,1
200642,-16,64,5,-7,-7,-4,2,-1
200705,-11,-25,6,-1,4,0,2,6
200758,-26,-1,-19,-4,-6,-3,3,4
200822,16,-82,0,-1,1,-1,5,-6
200881,-4,35,-23,-5,3,0,1,2
200942,-33,-49,-21,-3,-6,-3,4,-3
200993,-37,-3,22,1,2,-2,1,11
201057,-1,-9,-3,-3,-25,1,-2,0
201120,-20,5,1,5,7,4,-4,-31
201185,-8,41,10,5,1,4,11,12
201241,12,-30,23,7,-1,3,-17,-8
201292,29,7,-16,-2,0,-3,-12,-7
201346,6,6,0,-3,-3,0,-7,0
201399,-11,9,-22,-6,24,-7,-4,-9
201450,-31,-6,-13,-9,-10,0,2,-30
201510,1,-12,3,1,3,2,-3,1
201558,-36,-24,-7,2,3,3,9,-10
201622,-29,-12,10,6,-1,1,4,6
201684,-7,77,-21,0,-3,-3,-2,3
201743,-9,19,-9,-1,-2,-3,-8,-6
201802,-15,27,24,1,5,-3,-5,3
201867,15,-21,19,3,13,-5,-5,-16
201932,56,3,-9,-5,-10,-4,-2,7
201986,19,-24,-12,-3,1,2,6,2
202045,-6,31,-1,-2,5,2,0,5
202095,-14,12,-6,4,-24,2,-5,7
202148,-35,-63,5,0,1,-1,1,-1
202201,-37,-25,-17,-2,3,3,-5,-3
202253,8,-21,-10,1,0,0,0,10
202316,15,-82,7,4,-2,1,-3,-2
202362,-6,-20,-5,-3,-12,-7,-2,-13
202425,-47,16,10,-4,-6,-5,-11,-23
202487,12,-32,-1,1,-5,0,-4,3
202546,11,11,26,1,-9,0,-2,-3
202599,7,-30,9,-3,-8,-4,-6,-6
202661,-14,23,-4,-2,-18,2,-1,-19
202724,22,34,3,-1,1,-1,-1,2
202786,-13,36,26,-3,-6,-7,-21,2
202847,-9,-31,2,1,-3,-1,0,-6
202898,-5,-5,-7,-2,-2,-1,1,10
202961,0,-16,-6,-1,-6,-4,-6,10
203026,37,25,11,-1,-10,-3,6,23
203091,-33,-3,-1,-3,1,1,-1,9
203150,-11,-9,0,-3,-1,-1,-11,-34
203210,-22,-59,-2,-3,1,-2,-1,-17
203267,19,-62,-6,-1,4,0,5,2
203319,-19,-30,-2,-4,-25,0,-8,-3
203371,-4,-2,9,0,-4,0,2,11
203429,3,-16,4,-4,-3,-1,5,1
203490,15,-15,-6,0,24,-3,-1,7
203550,11,71,-3,-3,-3,1,4,-33
203609,-25,10,-1,0,5,-3,1,-7
203657,2,37,19,-1,5,2,-15,-1
203710,18,-24,-3,2,-2,1,3,19
203770,12,-1,-18,-4,0,-2,0,8
203821,15,18,6,1,-14,-4,-6,8
203873,-13,-13,12,2,-1,-4,-7,-13
203935,-14,9,0,0,5,-1,2,6
203978,9,-21,-7,-1,-1,-2,1,-8
204030,15,5,-18,-6,-9,-3,-1,-2
204091,-3,-2,-1,-3,-7,1,-1,2
204150,10,-6,-7,0,-35,0,-8,-34
204210,-28,64,-14,-1,18,-5,-7,-8
204264,-11,-7,4,0,-3,0,-1,5
204320,11,22,-11,0,4,4,0,8
204369,6,-14,-6,1,14,-1,5,-3
204422,-29,40,1,1,2,0,-1,-4
204473,34,-29,6,5,3,-5,-8,-21
204525,15,5,-3,1,-1,-3,0,3
204578,3,20,-6,2,2,-3,-18,14
204631,6,-17,0,-3,1,0,6,0
204685,-6,0,-10,-6,-40,-1,-26,3
204737,-11,-23,-27,-5,-5,6,-9,-19
204789,-75,0,12,6,35,2,-14,1
204841,4,24,12,1,-4,1,2,-6
204895,1,-34,8,0,7,-1,2,2
204952,-22,-26,-15,-6,-1,-3,6,14
205014,-34,-32,7,-5,-1,-7,-13,-49
205075,-7,0,5,2,-1,1,-6,-18
205134,11,-17,-1,1,1,1,-3,9
205185,0,-56,-34,-5,6,-2,5,14
205238,26,-4,8,0,-5,-2,-14,-9
205291,24,-82,8,1,-2,-7,-1,-10
205344,54,-12,-3,-2,-2,-2,-26,-15
205397,-8,31,8,3,15,3,-3,-2
205453,0,12,-4,-1,-8,-5,-3,3
205499,6,4,3,0,3,-6,-4,4
205554,-9,-6,7,-2,2,-2,-2,-7
205616,8,22,15,0,-6,0,3,5
205658,10,2,-2,0,-43,-4,4,6
205715,-9,-1,12,3,4,2,-1,7
205765,-35,19,-1,-2,-5,-4,-3,-1
205818,-9,-3,-12,-5,-1,-1,-2,-11
205877,-17,2,-12,-3,0,1,-4,7
205941,-13,-15,2,0,1,0,0,-4
206003,-5,14,-7,-2,2,2,4,10
206050,12,14,-11,-4,-7,1,-1,2
206114,5,-2,10,-1,-7,-3,-4,-4
206175,-9,14,-3,-3,-6,-1,-1,8
206239,29,20,5,1,0,1,3,-9
206286,-5,-36,4,-3,-5,-2,-4,19
206350,-25,0,-2,1,-1,1,10,39
206413,21,27,-4,1,22,-1,-5,-4
206477,-24,29,-17,3,-8,-2,-8,0
206537,52,-35,7,2,2,1,0,-10
206588,-21,36,14,1,-4,-2,-10,-20
206652,-8,-3,-1,0,4,-2,-2,-13
206714,-15,75,13,-2,-11,5,-3,-8
206776,9,-32,-35,-4,-4,-2,-14,-24
206836,19,74,3,0,6,1,-4,-13
206897,-31,3,-15,-2,-4,0,4,-2
206958,13,31,-4,-5,-1,-2,5,23
207016,-2,12,14,1,2,-3,3,13
207077,-19,39,-4,-1,18,-2,10,-13
207138,4,0,17,2,-4,0,-6,-6
207197,2,3,1,0,4,-3,0,13
207250,42,3,5,-4,1,-4,9,-6
207300,5,5,-24,-2,3,-3,-1,-2
207353,43,6,-6,-2,-10,-3,-3,-16
207410,37,-70,31,4,-1,-2,-6,-10
207460,17,7,12,-2,-1,-1,12,14
207519,-1,-14,-18,-4,-4,-4,-6,9
207581,-15,16,4,0,1,0,18,-4
207639,-9,-67,25,0,-2,0,-1,-6
207691,10,99,0,0,-3,-1,7,25
207743,24,8,7,1,-1,-1,3,-32
207798,-26,5,-14,-4,-4,-1,2,-3
207849,-25,16,8,1,7,-3,-4,-6
207902,1,-2,3,1,1,0,4,0
207960,-1,-24,3,2,-3,-2,-1,5
208022,-20,5,-13,-3,11,2,2,17
208081,12,6,-24,-3,12,0,-6,1
208134,-9,-68,24,0,-1,0,-2,-31
208196,-24,-17,-23,-6,-2,-1,2,-10
208258,22,26,2,-1,-17,-3,-4,-10
208320,-39,2,11,4,-1,3,14,7
208381,-3,30,3,0,3,-1,3,1
208441,-31,14,-8,1,3,8,7,52
208494,-14,32,5,0,2,1,-4,13
208556,16,-8,-8,-3,-6,-3,-2,4
208620,16,10,-4,-3,4,-1,-9,-8
208683,10,2,26,4,2,-1,6,16
208743,25,-46,-12,-8,-7,-2,3,28
208794,-9,16,42,6,2,3,-6,-13
208846,-10,1,-3,-2,0,0,-5,0
208898,0,25,-12,0,-1,0,0,10
208953,13,-17,13,-4,-29,-3,-16,-18
209005,17,1,3,-2,-17,-1,13,8
209062,36,60,-8,-1,-24,0,1,-6
209124,3,2,-6,-7,-9,-4,-14,-6
209187,19,-7,4,5,6,3,1,7
209235,-9,11,-33,-4,1,-1,-5,-4
209299,-55,-6,-8,-5,-3,-1,3,15
209361,0,71,2,-1,1,-4,-13,-17
209424,4,16,-10,-1,0,-2,-6,-4
209484,-34,-2,-2,-1,6,-3,13,5
209537,22,-29,-8,-3,5,3,-8,-2
209599,15,20,9,2,4,-5,3,-9
209651,-6,-4,-17,1,5,0,3,11
209700,9,26,-5,-6,-8,-6,2,-8
209759,20,10,9,1,1,-2,-3,-2
209808,9,9,-22,-2,-3,2,4,22
209866,-17,17,8,-1,11,6,5,19
209927,15,-14,-1,0,-7,0,3,-7
209980,9,9,2,-2,-11,0,6,12
210043,-1,-8,-17,-3,-8,-4,-7,4
210104,8,12,2,-2,0,-1,-3,-2
210168,23,16,20,1,4,0,-10,1
210230,11,-2,-15,-3,4,-2,-5,-6
210292,24,-31,-9,-1,-5,-4,0,8
210340,-1,4,-3,-5,2,-1,2,-6
210403,29,8,2,-2,-5,-2,8,-16
210465,-13,18,29,1,6,4,-5,3
210527,-3,2,6,1,4,0,1,15
210586,2,-30,-18,-5,-9,-5,0,-9
210640,-32,14,-11,0,8,1,2,9
210690,23,3,6,-2,-15,-7,6,7
210743,37,-19,8,-4,-5,4,-6,-25
210797,-14,-1,3,0,1,-1,-3,-4
210849,16,-1,2,-5,-8,-2,2,-4
210917,-15,17,20,3,3,1,1,-1
210969,-11,19,-19,-4,4,-3,-4,1
211029,-29,61,2,2,1,2,-8,-28
211081,-8,15,-26,-2,3,2,-6,-7
211144,-9,3,-18,-2,0,-2,1,5
211209,-15,56,-31,-6,-6,1,8,5
211269,31,-33,-15,-8,-7,-1,-3,2
211332,18,-1,-13,-2,-3,-1,1,5
211380,25,26,-14,-4,-2,-5,-27,4
211433,-34,-5,35,2,-30,0,-8,7
211490,31,-34,-8,-1,0,-2,-3,15
211537,-6,-29,39,8,3,4,8,15
211591,-31,54,-25,-5,-5,0,-2,-35
211649,-19,-11,7,3,2,0,1,3
211712,-22,56,-10,-4,0,3,2,9
211774,28,19,-10,-4,-3,-1,0,-5
211823,-11,-1,9,1,1,-1,2,2
211875,-15,7,19,3,4,-1,-7,-7
211931,-14,-12,-19,-4,-3,-1,2,1
211983,-18,-7,-8,2,0,-3,-2,22
212033,35,-46,10,-3,-4,-1,-3,1
212085,45,-38,3,-1,-2,-2,-2,-8
212138,10,19,-1,-5,-9,-7,6,-25
212188,-6,26,15,-1,-8,0,4,-1
212251,34,23,-6,-3,-6,-4,-9,24
212310,-4,-31,13,4,3,3,0,8
212373,-49,9,-31,-3,3,-1,-8,27
212417,9,0,22,0,0,-3,1,-16
212468,-12,-9,3,-1,0,0,-4,1
212519,-30,32,13,1,2,1,4,-1
212574,27,8,5,-6,-4,0,-4,-3
212629,-22,17,-29,-4,-1,0,-2,-18
212693,35,-91,15,2,1,-2,10,1
212754,-1,7,-5,-4,-3,-2,-4,-18
212813,-17,3,-9,-2,1,1,0,-3
212859,16,-25,3,-2,1,0,-3,8
212912,-35,13,-10,-8,-8,-2,-3,-18
212972,-5,24,-8,-5,-3,0,2,6
213024,-6,14,21,5,0,0,3,-9
213075,-24,4,-4,3,9,2,6,-13
213130,-71,13,6,10,9,1,0,-8
213184,-11,-11,-38,-6,-1,-1,-6,-4
213236,4,-17,22,-5,-6,3,5,1
213294,-49,1,-21,-1,3,3,-1,2
213354,-15,-4,-17,-4,-3,-1,1,-3
213404,6,-32,3,1,0,0,-9,2
213458,-20,39,-8,-5,-10,-4,4,20
213513,7,-24,-11,-1,0,0,0,3
213575,4,20,-2,0,2,0,0,8
213621,44,45,17,4,0,1,-2,-21
213677,-2,-56,4,2,5,4,15,6
213733,-22,10,6,2,-1,2,3,-3
213799,-40,15,-9,-1,-5,0,3,5
213863,25,64,-3,-2,-1,-1,2,-10
213907,-61,-2,-18,0,5,4,3,37
213970,4,29,-4,-2,-4,-2,-23,-6
214033,18,116,30,1,-4,-2,1,1
214097,-21,-14,-18,-11,-11,-2,6,39
214156,-49,25,-9,-3,-2,1,1,2
214216,35,-112,-18,-4,-4,-4,-5,4
214261,-24,-7,-17,-2,2,-1,1,2
214314,-7,9,6,-1,-4,-1,0,-1
214369,16,-32,24,6,5,3,-11,-36
214419,7,-61,-5,1,-3,-4,-1,-2
214479,19,9,-10,-1,-2,0,3,7
214539,-8,14,20,2,3,0,7,-7
214601,53,63,20,-3,-3,-2,0,-3
214660,31,-3,4,-4,-6,-6,-5,0
214719,1,-26,-7,-5,-1,-3,-2,-12
214779,0,-65,13,-1,1,-2,-3,3
214839,11,-12,12,2,3,1,-2,-3
214894,-3,9,3,2,-2,0,5,7
214958,7,25,1,0,1,-1,-3,-5
215023,58,-24,-22,-7,-4,-1,0,-9
215079,12,-13,26,1,0,0,-1,8
215139,-15,-9,5,0,-2,-2,-2,-17
215190,37,-2,-1,1,-1,0,4,-32
215253,60,-36,-29,-10,-14,-9,-3,-34
215318,15,-34,-11,-1,3,1,3,-11
215379,6,-27,-21,-2,-1,1,3,-13
215439,3,2,25,2,3,3,-4,-3
215504,10,16,-8,-2,3,3,-4,2
215552,3,71,-17,-1,-3,0,-3,-2
215604,-22,-10,-6,-1,-5,-3,-4,-9
215656,-10,-57,18,5,5,3,-3,4
215708,19,-34,-8,2,3,2,2,7
215761,9,11,-15,-8,-5,-3,-3,-12
215822,-10,13,-23,-2,1,1,-14,3
215885,-11,1,-3,1,-2,-4,-10,-10
215943,-20,-1,11,7,9,5,6,7
215994,40,13,21,-4,-9,-6,-1,-37
216056,-21,13,-1,-3,-2,-3,1,7
216115,-24,-17,11,0,-1,0,2,0
216179,-44,47,-25,-3,2,0,5,29
216239,5,19,-6,-1,2,1,10,-15
216304,28,-17,-11,-5,-2,-2,-8,-3
216364,-3,13,7,3,1,-1,0,-1
216413,53,28,-2,-5,-5,-1,9,26
216465,-31,12,-14,1,1,3,-2,-14
216520,-41,27,2,0,-1,1,11,47
216572,16,-9,-2,-2,-3,1,-1,-3
216624,7,42,-10,-2,3,-3,4,7
216682,6,1,-3,0,1,1,-1,-10
216744,-6,-6,-6,0,-4,-2,-23,15
216804,-17,-7,-8,-1,1,-3,-4,-1
216855,12,33,-6,-4,2,1,-2,-4
216918,-9,12,-16,-5,-1,-5,2,-2
216981,9,9,-16,-4,0,-6,-1,-5
217044,-3,-39,-1,0,-7,-1,-7,16
217104,-1,-59,-2,-4,3,1,-1,-1
217164,-27,25,22,1,1,0,-1,-2
217217,-21,8,13,3,1,-1,3,-12
217273,-13,29,25,7,7,-1,-1,-26
217320,11,-18,2,4,-15,3,-1,10
217377,28,-12,-6,-1,11,3,-4,11
217426,6,-19,-4,-4,-15,-5,-11,-9
217481,-8,17,12,0,1,-2,1,-1
217543,-7,-28,2,-2,-11,-3,3,10
217614,-39,-17,5,-1,-3,0,7,3
217668,-4,6,-16,-5,-2,-3,0,2
217727,30,-11,13,6,11,3,3,7
217778,28,9,16,4,13,-1,-3,1
217841,-19,-72,24,4,6,8,-10,-22
217904,2,-17,14,-1,2,-3,0,0
217968,18,-73,-1,-1,2,0,8,4
218031,4,-5,-11,-1,6,3,1,15
218087,38,-86,-2,-3,-12,3,-5,-1
218138,1,3,-4,2,-2,0,-2,-20
218191,-16,-12,-5,2,4,2,-2,15
218250,-4,7,15,-2,1,-3,-2,-8
218294,-9,-23,-12,1,-1,2,4,12
218349,12,-11,4,0,10,-1,-3,9
218407,-14,-19,12,-1,20,7,3,-8
218470,1,-60,17,3,-7,-1,5,18
218533,20,-26,-6,-1,-1,1,-8,-13
218589,58,2,-6,-2,0,-5,4,5
218648,-19,-7,-8,-5,-2,-3,-5,-9
218701,6,53,-10,0,1,0,3,6
218765,-12,21,11,5,4,1,-1,7
218829,7,-11,9,3,-3,-3,-5,-3
218889,12,-30,-8,-2,0,0,0,-2
218949,-9,9,-4,-1,0,-3,-4,-13
219001,-24,20,1,-1,1,0,5,-17
219063,1,14,-10,-2,-1,-1,-4,-12
219127,-28,48,-23,-2,0,1,-1,4
219193,-10,-29,12,2,2,0,5,2
219256,19,-1,-11,-4,0,0,0,-11
219320,-11,0,-22,-5,3,0,1,2
219363,0,41,10,1,4,1,-20,-5
219417,8,36,24,4,-2,-2,-2,4
219466,-14,16,-13,1,-2,0,1,-2
219518,13,-13,4,-3,1,-4,-7,-12
219574,-19,-19,-5,3,25,-1,2,-3
219637,-22,-25,2,3,8,-2,5,38
219701,-11,-1,-12,-6,-17,-3,-1,-1
219753,-17,19,32,-1,-4,-2,-3,2
219806,-21,-14,-16,0,21,3,-4,12
219860,4,-30,-13,0,0,-2,-4,-7
219908,-3,-20,15,-2,-9,-1,2,9
219959,-9,-26,-25,-1,9,-2,1,-19
220018,39,-8,-14,-5,-8,-5,-7,-23
220067,-13,-1,13,-5,-6,-2,4,6
220118,28,-3,42,6,-2,-2,-4,-2
220170,-15,10,-16,-1,3,-1,1,7
220223,16,-6,-13,-2,2,1,-4,-15
220275,7,2,-12,-3,-7,-2,2,1
220329,19,22,-8,0,4,1,2,-15
220380,24,19,10,-3,3,-4,0,18
220433,3,-84,-2,-1,1,3,-20,-17
220496,30,8,-1,-3,-8,0,-6,-6
220556,2,4,23,2,4,2,3,0
220618,33,10,5,-2,-9,-5,3,1
220667,5,-11,3,-1,-4,-3,1,-4
220731,19,29,18,1,5,7,-6,24
220792,12,29,-11,-3,-6,2,4,-2
220843,16,17,-6,-6,-5,2,1,4
220899,31,1,8,1,4,1,-4,5
220951,-15,-25,1,2,3,-2,-6,-14
221011,15,-22,-19,-1,-22,-4,-1,16
221064,5,37,11,1,-1,-3,1,-6
221116,8,6,13,-4,-13,0,-6,-6
221174,10,-16,-12,-5,-1,-1,7,20
221236,-14,110,-14,1,2,-2,2,6
221296,-1,-15,6,-5,-22,2,-2,-7
221356,18,-37,12,7,6,1,-1,-1
221410,-13,78,-5,-3,15,-3,-6,-4
221461,-25,-8,-15,-2,4,0,3,0
221514,-10,24,-2,-2,-1,1,-1,-8
221567,10,-5,1,-1,-4,-1,1,-5
221617,-12,38,-8,-4,-16,-3,0,3
221671,-17,-17,-21,-1,18,-3,1,1
221725,-5,-24,10,0,-4,-2,-5,6
221783,18,-17,6,4,21,0,12,-1
221836,6,-6,-4,4,2,-6,-5,-1
221897,-14,-28,36,4,-3,-1,-3,3
221958,2,-26,-23,-7,-8,-6,-2,0
222010,22,-38,-7,-5,4,-1,0,-13
222076,32,-24,-6,-2,-3,1,-1,8
222138,-19,5,-15,2,-23,1,5,-14
222196,-3,12,-7,-1,4,2,-4,22
222259,-2,36,11,2,12,2,6,0
222308,5,30,30,2,3,-1,-2,8
222360,5,55,17,2,-4,-2,0,15
222415,-18,91,-6,-4,2,0,8,4
222467,7,26,4,-2,-40,-1,1,-8
222518,22,-9,-9,-2,-3,1,-13,-19
222572,-15,-12,2,-5,-18,-7,-2,-6
222634,-56,-5,4,-1,-4,1,5,-1
222700,-18,-2,-15,-2,-1,-5,1,-8
222762,-11,-7,5,3,5,4,3,8
222821,-2,2,-21,-3,1,-1,0,-4
222883,-2,-18,2,3,1,-2,10,7
222929,-11,-49,-9,-4,-6,2,-20,30
222983,2,-20,-24,-4,-2,-3,-2,0
223036,38,4,-9,-3,-4,6,6,1
223086,-41,-16,-11,2,1,0,16,7
223142,-1,-5,2,2,-10,-6,-2,0
223197,-1,1,0,0,-1,0,-2,-8
223259,5,-47,10,-2,11,4,1,0
223322,-11,5,-30,-6,-4,-1,1,-12
223384,10,26,-13,0,6,-5,2,5
223433,7,7,-3,-2,-5,-2,1,9
223495,25,5,12,-1,-8,-1,3,5
223559,3,-40,-16,-1,5,0,-6,-17
223621,-9,-1,11,-2,3,-2,1,12
223681,-11,-32,-3,-1,-6,2,4,6
223734,-12,-2,-19,-5,-3,-5,-12,-1
223797,-10,31,-22,-1,0,2,12,-5
223860,1,-122,6,2,9,6,2,12
223921,51,-21,24,2,1,1,-3,-10
223983,10,22,5,3,1,1,0,1
224035,12,-51,44,0,-1,-4,-3,-4
224084,-18,-30,-7,-2,2,-3,-4,13
224141,21,-12,-2,-2,-6,-1,-2,0
224191,-17,-14,16,-1,-2,0,-3,-23
224244,-19,-18,4,0,-11,-4,-1,-13
224299,-10,-58,-31,-6,-6,-6,-6,-5
224363,-4,4,17,2,-7,-3,-1,-6
224425,-41,-32,-29,-6,-9,2,12,29
224484,-9,-22,-10,-3,-4,-4,-4,-6
224544,1,-6,37,5,0,-1,3,10
224607,8,3,5,0,-10,-8,-24,2
224663,1,77,13,2,-4,-2,2,2
224731,-32,-35,3,2,9,-2,-1,-15
224788,-25,1,-2,0,5,2,2,4
224836,-6,4,-6,2,6,1,12,0
224889,20,28,3,0,-3,2,3,3
224941,57,-30,4,-1,-18,-5,-4,3
224993,-33,1,-11,4,5,6,2,-9
225048,22,-45,-8,0,-5,-4,-7,-10
225104,21,0,-8,-3,-1,0,-5,1
225168,7,46,-2,-2,-1,1,-1,-4
225231,3,5,-8,1,-1,-1,-2,-10
225278,40,-93,-22,0,-2,0,0,-4
225341,-42,-7,2,-2,-4,-2,-3,-5
225405,13,-19,13,1,8,2,3,34
225467,-14,-9,-6,-1,2,2,-1,-7
225526,4,24,-29,-6,-7,-5,-6,-17
225580,-28,42,-15,-6,-5,1,1,-7
225646,-29,-28,-23,-2,-2,-2,3,-7
225705,-4,-32,-17,0,1,0,-4,21
225772,-21,-40,-14,-2,0,-1,-8,-20
225826,-12,21,14,-2,1,-1,1,6
225878,-9,31,-5,-1,-1,-2,-2,-5
225932,7,-15,6,0,-1,-2,9,-2
225990,53,-6,4,-2,-2,-1,0,-4
226036,44,47,-35,-9,-5,-4,1,-6
226089,-20,-2,21,9,10,0,0,5
226149,15,-10,2,-2,-1,0,-2,-14
226210,-3,-8,-19,-4,1,1,2,-6
226270,-5,-31,-15,2,4,1,5,38
226319,30,4,-1,-2,-1,-2,-1,1
226383,13,-18,-1,-1,2,-2,6,4
226446,7,40,-9,0,0,0,4,-4
226509,-7,-12,8,0,-3,-2,-5,0
226568,20,-19,-18,-11,-13,-9,-4,2
226629,-22,8,21,1,3,1,-2,-13
226682,4,-10,-9,-2,-1,1,-3,-1
226738,8,16,-20,-7,-3,-2,5,4
226786,-2,-71,-12,1,0,1,-5,-3
226838,-8,68,-11,-4,-3,-2,0,0
226895,-23,19,-5,-1,-3,-1,6,4
226949,28,-33,27,2,1,1,5,8
227011,20,18,-12,-6,-5,-5,11,-5
227071,-10,10,2,1,-1,-3,-1,-10
227121,-13,-17,5,3,4,0,-2,-6
227184,-1,3,-13,-4,1,-2,-2,-1
227247,-30,-2,-19,1,3,2,-1,-20
227310,13,31,8,-6,-8,-4,-2,1
227371,16,-39,1,0,-1,-2,-4,1
227433,10,-1,-4,-2,-2,0,11,4
227488,-37,14,-8,-3,-4,-4,-2,-34
227535,-22,-11,-5,-4,-5,-3,4,16
227588,5,-31,4,-1,1,-1,-5,4
227642,8,10,1,2,1,1,-4,-13
227693,-7,0,7,3,4,-1,-4,-24
227751,-18,14,-3,-1,-2,1,-2,-9
227813,-7,-58,3,2,1,-1,9,3
227873,-18,18,-17,-2,-3,-1,-12,2
227928,-15,25,2,-1,2,0,2,5
227978,-1,-2,-2,-4,-6,-3,-4,-6
228036,-14,-9,-5,-2,-3,-3,3,-1
228085,14,36,-6,-6,-5,-5,-6,-9
228135,30,-25,-18,-4,1,1,-1,-29
228195,28,4,-1,-2,-7,-1,-4,-7
228240,-17,61,-29,-6,-1,-2,-1,-9
228293,10,44,-21,-5,0,-1,9,21
228354,-32,11,-12,-2,1,1,-2,-25
228413,-7,30,35,3,-2,-2,2,8
228476,2,15,5,-7,-5,-4,2,10
228526,21,3,10,-1,0,-2,-7,-15
228578,-19,5,7,0,1,1,0,11
228631,3,-47,-25,-1,2,0,-2,4
228692,12,-61,-5,-1,-2,-1,5,7
228737,-13,-26,-15,-4,-6,-1,5,-16
228794,1,17,25,1,-4,-3,1,3
228857,-23,2,11,-3,-2,-3,-22,7
228917,13,29,5,3,1,1,4,-1
228967,33,-4,0,-2,-2,-1,9,37
229019,-25,26,-4,2,1,1,1,9
229072,-10,38,-8,-5,-3,-2,-9,1
229130,-4,26,-14,-3,0,-2,-5,18
229178,4,22,8,1,2,3,-1,-19
229231,4,-20,-1,0,-2,0,1,12
229282,6,16,-25,-1,4,-1,-12,-31
229337,5,-43,-15,-2,-1,-3,10,6
229393,7,9,-7,-3,-3,-2,3,2
229456,-2,-21,-3,-6,0,-2,-4,12
229517,-34,-30,-8,-1,-1,2,4,27
229574,13,-84,32,3,0,3,4,16
229621,22,-95,35,0,3,0,6,12
229675,-17,49,25,0,-3,-2,-1,-11
229727,19,-10,8,-1,1,-2,-4,-6
229778,25,-16,-18,1,-1,-1,2,-5
229840,3,39,60,6,4,3,5,10
229899,34,7,-22,0,-4,-4,-6,-4
229954,-8,31,-26,-3,0,0,-3,-20
230017,-19,-62,-7,-2,-2,0,5,-1
230079,19,31,26,-1,-4,-2,-3,-4
230141,-14,4,33,-2,-3,-2,1,13
230203,-42,21,12,3,2,2,0,-21
230251,-6,-23,-12,2,1,-1,-4,-6
230313,33,13,-2,-3,-3,-6,-6,2
230364,-23,40,9,1,0,1,6,10
230415,17,-78,3,-1,2,1,0,-8
230471,-12,40,-10,-3,-2,-1,-7,11
230522,7,22,-6,-2,-3,-1,-2,9
230579,-6,18,-18,-3,-1,0,-1,-19
230642,-19,18,42,2,1,-3,-4,4
230702,-12,6,1,4,5,3,-1,-5
230754,-13,66,-26,-5,-5,-3,-3,-6
230816,-28,38,12,-1,1,1,-2,-11
230884,14,-4,26,-1,-2,-2,-3,-6
230951,5,-73,-18,2,1,0,0,9
231003,-4,20,-8,1,1,1,-1,-15
231056,20,-7,-14,-5,-7,-5,8,12
231116,10,51,-21,-2,3,0,0,-5
231181,-2,-25,-14,-4,-6,-2,6,2
231242,-69,-11,5,-1,2,5,3,-10
231302,6,-9,-20,-6,-2,1,-4,-5
231354,-11,-16,-18,0,2,0,3,0
231417,-10,76,-15,-5,-3,-3,-1,-3
231481,-7,-97,-16,0,2,0,-2,0
231541,1,-4,7,0,-1,-2,6,4
231592,-18,33,3,-3,-5,0,-1,-3
231645,23,9,-27,-4,0,0,-3,-14
231698,2,12,7,-2,-3,0,12,52
231752,-16,49,-27,-3,1,-2,-8,-32
231813,11,28,1,0,-1,1,1,-1
231864,16,-45,-19,-3,2,-1,-1,5
231923,-24,-49,-16,2,0,0,-5,0
231983,38,-31,0,-2,-2,-5,-1,15
232043,-1,34,-1,-3,1,0,6,5
232095,-26,-11,5,1,-1,0,2,-2
232160,-10,19,-5,3,6,2,2,4
232223,-7,-9,12,0,0,2,0,11
232284,42,32,-24,-9,-7,-4,5,31
232342,-34,25,36,1,2,3,6,-11
232388,-11,-84,50,5,1,1,-11,-42
232441,-18,38,19,4,1,-4,0,8
232500,-16,-52,-3,-2,-1,1,9,7
232554,-12,56,-10,0,2,0,5,-4
232607,11,25,14,-4,-5,-2,1,-4
232664,-18,-10,-8,0,1,0,-7,-5
232725,-13,21,-29,-7,-3,-3,-2,-4
232787,-3,-1,-10,-3,-2,1,-6,-7
232847,7,43,14,1,0,0,-1,9
232898,-25,21,26,3,2,3,9,1
232967,1,-11,-6,-3,-1,1,-3,-6
233024,-21,10,4,0,-1,0,1,33
233089,14,-66,-6,-4,0,-1,-3,1
233147,-7,-35,11,4,1,3,4,-7
233208,-5,42,-5,1,1,0,0,-6
233260,0,59,-37,-4,0,-2,-3,9
233310,17,39,2,0,-1,0,8,-2
233363,16,2,-9,-7,-9,-6,14,-1
233418,-12,-10,-10,3,3,4,11,14
233470,-15,-11,-15,1,6,3,11,9
233526,-10,6,1,-1,-2,-1,1,-14
233588,1,-7,-9,-3,-6,-3,-3,4
233650,12,-13,3,0,-3,-2,3,4
233708,9,10,24,0,0,-1,-6,-19
233767,-24,27,7,1,-2,-3,-1,-12
233830,23,-21,-9,-4,-1,0,-4,-11
233894,6,-10,6,-1,-1,-1,-7,-3
233949,33,13,11,-4,-3,-1,3,-12
