timestamp,emg1,emg2,emg3,emg4,emg5,emg6,emg7,emg8,label
10.028986,-34,-34,-14,-28,-98,-20,-5,-36,2.867112520
10.029071,0,-22,-3,-11,-1,6,-9,4,2.867112520
10.030708,-7,55,6,16,25,0,14,-1,2.867112520
10.030727,-96,-20,9,-54,-95,-43,-5,-34,2.867112520
10.043373,7,20,-26,58,78,44,-40,-11,2.867112520
10.043391,38,52,15,-20,-44,-119,-18,80,2.867112520
10.044422,38,10,3,9,-58,38,-7,1,2.867112520
10.044433,77,1,-3,44,45,-120,-5,62,2.867112520
10.065758,-95,-87,-14,-42,-8,100,-82,48,2.867112520
10.065801,25,0,16,41,83,10,46,8,2.867112520
10.066476,21,32,12,-3,-66,26,-8,6,2.867112520
10.066516,13,-53,-27,-9,30,-60,22,-24,2.867112520
10.089847,-10,37,1,-47,-105,-19,-6,-32,2.867112520
10.089868,72,40,-12,-1,-76,-8,-34,-47,2.867112520
10.091645,-2,28,15,20,103,51,38,28,2.867112520
10.091657,5,55,27,9,-68,29,-6,-52,2.867112520
10.103509,-57,-75,-20,-23,-32,-38,-16,14,2.867112520
10.103528,11,-17,-6,-44,-39,14,15,-16,2.867112520
10.106046,-19,47,12,66,101,-42,-38,-3,2.867112520
10.106060,-70,-82,12,28,15,-10,-16,29,2.867112520
10.126107,80,127,-8,-37,-55,0,-13,42,2.867112520
10.126118,16,104,-2,-16,2,-6,20,4,2.867112520
10.126364,-11,-13,-19,-2,9,-90,-45,-5,2.867112520
10.126373,93,127,25,42,36,8,-26,29,2.867112520
10.149537,-53,-9,4,-78,-49,-47,-12,-53,2.867112520
10.149560,-53,-53,-27,52,99,45,-5,-16,2.867112520
10.151702,1,-42,-4,-27,-87,-90,-15,-8,2.867112520
10.151712,70,17,17,28,51,-30,34,-53,2.867112520
10.163389,-7,94,-1,25,-17,58,-8,-44,2.867112520
10.163421,-50,-5,-8,-62,-14,-5,-34,3,2.867112520
10.172909,57,99,15,19,29,-19,15,95,2.867112520
10.172922,-89,-19,-15,-24,-42,66,25,18,2.867112520
10.186306,69,33,-2,11,23,-50,23,-15,2.867112520
10.188550,56,-63,0,7,-42,4,-16,14,2.867112520
10.188561,-65,-81,-3,13,13,21,-47,-29,2.867112520
10.188564,56,-27,7,-7,24,33,-16,-71,2.867112520
10.209051,-33,-88,-31,-19,-42,-48,5,43,2.867112520
10.209086,0,119,1,10,-16,59,14,-6,2.867112520
10.216156,50,53,37,47,86,-60,6,-23,2.867112520
10.216187,-26,-35,-26,-14,-79,74,38,-4,2.867112520
10.223352,-18,-15,4,-4,109,53,-25,-4,2.867112520
10.223384,17,2,10,14,-91,52,-8,1,2.867112520
10.226345,34,120,-17,-43,-60,127,59,-19,2.807817978
10.226364,30,-15,-22,-21,-35,-50,-17,-37,2.807817978
10.246059,-35,26,16,0,-20,-75,-28,5,2.807817978
10.246090,30,-8,-3,12,-28,-26,-47,44,2.807817978
10.248776,10,-55,8,9,74,71,1,-21,2.807817978
10.248792,-67,-87,-26,-38,-22,-24,-13,-42,2.807817978
10.269001,-48,-75,-18,-9,7,-59,-5,-2,2.807817978
10.269023,-12,18,-8,31,103,14,7,-56,2.807817978
10.271061,-73,-128,-20,18,-10,-2,-34,2,2.807817978
10.271074,-11,-9,12,8,-82,-26,14,62,2.807817978
10.284629,99,112,37,-8,6,-77,-15,6,2.807817978
10.284641,7,-88,-26,-25,-1,-43,5,2,2.807817978
10.284643,-62,-76,-40,-43,-100,7,40,-23,2.807817978
10.284645,38,95,3,20,-67,-8,-22,36,2.807817978
10.305783,21,127,17,47,46,78,16,-4,2.807817978
10.305801,79,124,36,1,-104,12,38,37,2.807817978
10.307882,-110,-85,2,-28,-81,-12,-21,-50,2.807817978
10.307894,80,-88,-32,-9,-62,-45,31,-45,2.807817978
10.329724,-35,-88,0,9,-40,-23,-22,80,2.807817978
10.329736,12,-22,-11,-24,0,-30,-20,-23,2.807817978
10.329738,14,44,6,-20,-32,-24,3,12,2.807817978
10.329741,6,107,25,38,86,48,24,24,2.807817978
10.345131,-59,-97,-35,-27,-76,23,-17,-58,2.807817978
10.345143,29,26,-5,16,89,-100,-5,5,2.807817978
10.345146,32,11,0,3,-6,52,47,-43,2.807817978
10.345148,74,68,14,23,110,-22,-16,-37,2.807817978
10.366471,-5,61,24,-18,-34,-39,59,-72,2.807817978
10.366516,-65,-57,3,52,-2,11,-83,44,2.807817978
10.366524,25,3,2,5,8,6,50,26,2.807817978
10.368699,-64,-55,-7,-35,-90,10,-23,17,2.807817978
10.390683,65,42,0,-18,-66,-49,33,-29,2.807817978
10.390695,-108,-126,-23,-8,-3,0,11,-45,2.807817978
10.390698,12,56,7,16,71,-2,-31,13,2.807817978
10.390700,32,6,-8,-20,-35,-6,-7,23,2.807817978
10.402871,50,54,4,9,-23,50,9,35,2.807817978
10.402896,-18,55,7,-38,-46,34,-28,12,2.807817978
10.411055,-8,57,18,22,42,-48,82,17,2.807817978
10.411082,-4,-117,-38,-38,22,-30,-67,-77,2.807817978
10.426151,18,-51,3,15,-32,39,-6,14,2.807817978
10.426187,25,-5,8,11,84,-26,-38,34,2.807817978
10.426678,25,-11,-11,-10,-51,-83,-42,-12,2.807817978
10.426688,46,53,5,36,116,43,31,65,2.807817978
10.449495,7,48,19,24,46,32,-18,29,2.807817978
10.449527,-58,-35,-26,-34,-102,-14,29,-49,2.807817978
10.450117,53,77,-2,-2,22,-22,-16,45,2.807817978
10.450127,14,99,11,-19,-48,-1,24,28,2.807817978
10.463015,-13,48,17,27,23,15,-8,-5,2.807817978
10.463047,86,-57,-8,-19,-22,3,35,61,2.807817978
10.470972,-3,50,1,8,77,8,-29,-34,2.807817978
10.470992,-38,-20,-4,4,60,17,-48,-29,2.807817978
10.485707,-7,36,18,7,3,73,53,-21,2.802089973
10.485727,22,94,31,15,-73,22,55,-22,2.802089973
10.486559,-29,-36,-20,-38,-118,10,34,-45,2.802089973
10.486581,69,-13,8,29,58,85,-77,60,2.802089973
10.509159,-3,-113,-19,-19,-46,-105,8,-11,2.802089973
10.509184,9,44,24,17,83,82,23,33,2.802089973
10.511350,-26,-21,-17,19,39,40,-41,-56,2.802089973
10.511363,-6,-17,7,-13,-64,-35,9,-12,2.802089973
10.522520,-30,-116,-6,4,28,11,19,-5,2.802089973
10.522569,-54,-50,-13,-18,8,-49,-26,-38,2.802089973
10.530641,-79,4,15,14,-17,-4,-4,60,2.802089973
10.530665,59,-49,-7,-15,-53,-31,7,-34,2.802089973
10.546304,-101,-76,-18,3,20,24,-25,3,2.802089973
10.546314,80,123,3,-21,-9,-56,25,-12,2.802089973
10.546370,-10,-34,-20,-13,-2,-31,-12,75,2.802089973
10.546422,-20,-94,1,17,-79,12,-8,-4,2.802089973
10.569497,13,39,11,-11,-5,-2,4,30,2.802089973
10.571641,14,85,17,60,113,-42,-19,-11,2.802089973
10.571654,-50,-109,-23,-36,57,91,43,-41,2.802089973
10.571656,-52,66,-9,-18,18,-80,20,-40,2.802089973
10.582936,14,75,-9,5,126,34,-8,58,2.802089973
10.582968,-28,-42,-1,-16,-37,-6,-14,-16,2.802089973
10.590818,87,123,35,42,54,-17,-35,10,2.802089973
10.590838,-20,-28,-7,-16,-20,33,48,-2,2.802089973
10.606848,45,6,-9,9,25,2,-10,-88,2.802089973
10.606861,-76,-85,-23,-46,-91,-49,-42,-14,2.802089973
10.606864,-12,74,12,-3,-30,-3,15,24,2.802089973
10.606866,-128,-85,-15,2,0,59,29,68,2.802089973
10.629196,82,66,-3,-14,-48,-60,-12,13,2.802089973
10.629227,-45,30,-5,4,-24,54,11,-5,2.802089973
10.631782,73,15,22,0,-95,-36,6,26,2.802089973
10.631793,-105,-32,-12,17,71,46,-48,-35,2.802089973
10.643513,8,36,7,36,-55,53,-13,-15,2.802089973
10.643537,-8,70,-1,37,35,25,34,-27,2.802089973
10.650912,50,0,7,-12,1,52,-17,46,2.802089973
10.650924,-13,9,-2,2,32,-28,-7,-13,2.802089973
10.666414,31,-94,-13,0,49,-5,14,34,2.802089973
10.666457,21,-79,-11,-13,-72,58,-1,-14,2.802089973
10.669599,13,76,-10,-12,30,31,18,-26,2.802089973
10.669619,75,127,4,-21,-79,-51,-26,14,2.802089973
10.688901,-42,-103,1,6,28,6,-2,-37,2.802089973
10.688919,-29,-41,4,-6,20,-16,-3,-8,2.802089973
10.689543,14,-74,-23,-4,-13,-41,-33,-85,2.802089973
10.689553,1,-1,2,-20,12,20,26,-4,2.802089973
10.702498,-8,127,-2,0,30,-7,-3,-15,2.802089973
10.702518,-4,-75,-4,-68,-97,-45,26,21,2.802089973
10.711156,64,71,17,79,59,-28,-52,-21,2.802089973
10.711180,12,-30,-15,21,-50,-56,36,-22,2.802089973
10.726216,59,24,14,-29,-49,93,-56,61,2.802089973
10.726242,0,-35,-16,-15,-61,-90,66,-10,2.802089973
10.728440,-7,9,-9,3,106,74,-33,31,2.802089973
10.728454,-34,59,29,6,-29,-20,10,68,2.802089973
10.749002,-19,25,2,-6,-70,-34,28,-13,2.794122138
10.749048,10,-72,2,7,14,36,11,72,2.794122138
10.749616,-52,-128,-11,-28,-64,-39,-14,24,2.794122138
10.749657,11,70,2,-9,18,2,2,-41,2.794122138
10.771411,-47,21,-2,-8,-25,-15,4,-43,2.794122138
10.771428,15,107,19,4,71,19,-20,7,2.794122138
10.773506,-18,-24,1,48,42,-10,37,-7,2.794122138
10.773520,-11,-49,5,-16,-65,-17,-48,13,2.794122138
10.786167,45,-22,-3,32,127,85,35,45,2.794122138
10.786207,57,127,22,48,-23,3,-7,-61,2.794122138
10.788569,-85,-85,-32,-51,9,66,-50,-36,2.794122138
10.788582,-20,60,7,23,28,-12,-11,-13,2.794122138
10.810394,44,-3,-1,-28,-63,-86,2,60,2.794122138
10.810407,-25,-20,15,19,90,-14,-17,-60,2.794122138
10.816173,62,3,-7,-19,-106,-59,-1,-43,2.794122138
10.816248,71,-79,-6,-22,-14,16,20,14,2.794122138
10.832008,-73,70,3,2,-34,-3,5,-35,2.794122138
10.832038,74,101,23,-6,35,-8,-28,93,2.794122138
10.834764,-80,-77,-38,-22,-28,-11,68,-20,2.794122138
10.834774,28,-52,2,-11,-62,-24,-92,-41,2.794122138
10.846051,38,85,-5,36,12,-2,73,-45,2.794122138
10.846075,4,-23,2,17,71,33,-18,-63,2.794122138
10.848281,-28,37,34,49,-12,53,-16,80,2.794122138
10.848299,-34,-58,-45,-31,71,28,26,16,2.794122138
10.872229,-9,-63,9,44,29,103,35,32,2.794122138
10.872241,19,-27,-24,-32,-52,-16,-42,20,2.794122138
10.872243,-15,41,2,-27,-24,-12,-13,-26,2.794122138
10.872246,64,74,22,19,-49,-2,58,9,2.794122138
10.891572,-6,96,7,-16,-32,-57,-47,21,2.794122138
10.891596,-45,-36,-29,-11,-46,6,5,-24,2.794122138
10.892272,48,127,35,-6,-76,-47,-45,44,2.794122138
10.892294,-52,-92,-29,-78,-20,28,11,31,2.794122138
10.906240,0,-128,-20,59,79,-19,42,-53,2.794122138
10.906258,21,74,14,38,86,127,6,55,2.794122138
10.906883,33,84,6,24,101,-94,22,-9,2.794122138
10.906927,-5,75,18,24,56,32,31,-47,2.794122138
10.929296,-88,54,-7,-53,-94,8,-26,-1,2.794122138
10.929322,53,-89,-29,-14,-83,-48,-13,-30,2.794122138
10.931802,-1,5,-10,-9,-19,33,22,-22,2.794122138
10.931814,17,-20,10,16,70,-11,53,-1,2.794122138
10.951352,98,8,-7,-16,38,6,-74,-12,2.794122138
10.951456,61,53,12,15,-10,1,-8,-22,2.794122138
10.952115,-39,-60,-11,-55,-128,-33,-3,-31,2.794122138
10.952133,76,103,15,39,87,13,-1,16,2.794122138
10.966111,-4,-79,-1,-31,-41,-48,-4,-25,2.794122138
10.966123,-19,53,4,-5,28,57,-51,19,2.794122138
10.966311,90,6,6,81,112,73,68,78,2.794122138
10.966319,-17,54,-1,9,3,-51,19,74,2.794122138
10.989175,6,-31,-18,-42,-79,23,13,48,2.794122138
10.989192,4,10,16,10,-6,-75,-2,6,2.794122138
10.990880,-10,-90,-6,-30,-31,4,-22,-28,2.794122138
10.990893,23,-8,-2,13,-60,-7,-27,23,2.794122138
11.012448,0,79,-1,-23,-57,-38,-3,-28,2.853349084
11.012459,-28,-126,-25,-10,56,-6,34,11,2.853349084
11.012872,-22,-7,-2,-25,-85,21,-7,-44,2.853349084
11.012881,-13,6,1,42,-12,-33,-21,-31,2.853349084
11.025229,29,-51,-3,-37,69,4,-43,0,2.853349084
11.025306,-17,-56,-10,43,-66,55,-32,5,2.853349084
11.040074,-21,0,0,-16,44,2,37,-99,2.853349084
11.040097,69,97,18,-1,27,92,33,-35,2.853349084
11.049073,41,96,22,11,-41,-22,10,10,2.853349084
11.049089,-68,-68,-22,9,-11,-10,5,-57,2.853349084
11.051933,5,-19,-25,-22,-14,-49,-8,-41,2.853349084
11.051952,32,47,14,-17,-128,-23,-10,74,2.853349084
11.071887,-49,1,-3,21,-2,19,45,-15,2.853349084
11.071905,-25,127,36,-29,-36,-19,-59,-6,2.853349084
11.073702,16,-51,-17,6,23,-30,-30,13,2.853349084
11.073714,16,-128,-22,-14,0,17,-24,-47,2.853349084
11.085491,-57,-81,4,-22,-85,18,44,-34,2.853349084
11.085525,-80,-27,7,14,-12,-27,33,2,2.853349084
11.096469,-33,-69,-13,53,88,68,-22,2,2.853349084
11.096477,-22,56,-6,-4,-57,-79,-42,-1,2.853349084
11.109198,6,11,9,27,74,50,14,40,2.853349084
11.109227,82,90,10,15,38,93,26,10,2.853349084
11.110856,26,17,7,-42,-41,-9,15,70,2.853349084
11.110883,-94,-55,0,59,105,-47,-72,-41,2.853349084
11.131510,-40,-8,4,4,-36,-27,-11,-14,2.853349084
11.131527,52,46,7,-18,-42,2,36,41,2.853349084
11.133888,37,46,1,-4,51,-43,-27,42,2.853349084
11.133905,95,-61,0,-30,-28,12,3,5,2.853349084
11.145271,-88,-27,-14,-2,15,-28,-24,-20,2.853349084
11.145307,50,50,-7,-13,-36,-4,-11,48,2.853349084
11.155518,-33,47,11,-3,-43,10,15,-1,2.853349084
11.155531,45,12,4,-20,-28,-3,19,7,2.853349084
11.169249,-69,-97,-58,-17,-67,19,-34,-41,2.853349084
11.169269,8,64,-2,13,85,-50,-2,-9,2.853349084
11.170483,-6,119,-2,-33,40,13,34,-17,2.853349084
11.170502,-31,58,5,-2,-97,-8,-31,48,2.853349084
11.191630,96,66,24,23,70,92,21,26,2.853349084
11.191655,-92,-79,-14,-5,-2,-88,34,-57,2.853349084
11.194161,-22,54,11,-8,-15,-6,-21,-30,2.853349084
11.194171,-42,-22,10,29,113,81,-29,-42,2.853349084
11.205112,3,1,-7,0,15,-23,-17,36,2.853349084
11.205137,-34,-116,-19,-40,-94,-55,-9,-4,2.853349084
11.215113,82,-57,23,20,-7,4,16,-2,2.853349084
11.215122,-47,-46,-12,-22,-75,-3,36,-21,2.853349084
11.230752,-31,-21,-5,-20,-25,-31,-27,-15,2.853349084
11.230763,32,96,-3,-13,-25,7,23,-3,2.853349084
11.230766,40,29,5,70,39,-76,-28,19,2.853349084
11.230768,-32,-17,-1,17,-42,18,38,70,2.853349084
11.251522,62,5,1,-26,17,42,-12,-13,2.868275246
11.251545,16,-30,12,61,125,82,-19,1,2.868275246
11.254061,-66,-99,-12,-30,-101,2,22,23,2.868275246
11.254076,26,55,-10,-32,-85,0,7,-34,2.868275246
11.265442,18,118,8,-13,-16,-61,-19,-53,2.868275246
11.265473,-80,-105,-35,-18,-49,-25,-10,-60,2.868275246
11.275336,37,62,2,26,75,37,-21,-17,2.868275246
11.275348,21,101,5,-7,34,-10,25,-13,2.868275246
11.289185,57,33,15,21,-27,-5,-6,27,2.868275246
11.289209,38,67,10,-9,-79,0,53,7,2.868275246
11.291036,-32,-69,-29,-31,-128,-42,-93,44,2.868275246
11.291048,-66,-5,8,17,79,19,1,-29,2.868275246
11.311505,29,24,12,31,-27,-5,22,-22,2.868275246
11.311523,69,40,11,-10,79,27,-13,28,2.868275246
11.313806,-40,-8,-19,-41,-91,-8,67,-22,2.868275246
11.313820,-63,28,25,29,116,56,-59,-55,2.868275246
11.325152,17,9,-6,-26,-38,-43,-2,18,2.868275246
11.325173,26,41,13,25,-22,-3,-6,-29,2.868275246
11.336779,-68,-97,-51,-50,-92,-5,-14,-22,2.868275246
11.336797,38,-18,-11,-1,37,26,10,-28,2.868275246
11.349553,0,24,2,15,8,10,38,27,2.868275246
11.349585,19,79,6,-20,-32,-19,-39,-70,2.868275246
11.352316,97,57,42,-24,14,86,-42,-8,2.868275246
11.352329,45,-103,-51,2,-21,-123,53,-12,2.868275246
11.371492,-42,28,-5,31,63,17,2,0,2.868275246
11.371512,26,-72,-18,-36,-23,20,2,19,2.868275246
11.372889,-15,-42,28,41,56,9,41,-48,2.868275246
11.372905,5,19,4,-22,-15,5,-7,70,2.868275246
11.385052,49,31,18,26,-16,-45,12,20,2.868275246
11.385065,-7,-24,-13,-56,-79,94,10,-16,2.868275246
11.394258,42,63,33,24,15,-85,-14,8,2.868275246
11.394274,-71,-103,-38,-30,-65,-49,23,-26,2.868275246
11.409381,32,67,10,0,-22,-52,-12,-72,2.868275246
11.409413,-23,24,-9,-3,69,-13,-21,29,2.868275246
11.411855,25,52,7,39,19,29,58,4,2.868275246
11.411867,119,127,23,-1,-18,59,-16,46,2.868275246
11.432462,-24,-85,-9,12,3,-3,18,21,2.868275246
11.432473,-21,14,3,-35,-75,-73,-31,-74,2.868275246
11.432833,-1,30,-13,-8,44,25,-22,19,2.868275246
11.432842,-71,-73,0,0,58,-17,-5,-91,2.868275246
11.445184,4,38,-12,-20,-21,29,5,-6,2.868275246
11.445206,65,-14,3,38,85,-16,-12,0,2.868275246
11.455336,-35,81,0,-40,-74,-65,7,9,2.868275246
11.455354,-71,-61,1,74,46,77,3,-64,2.868275246
11.469413,-32,-56,-5,-24,15,-104,-36,-13,2.868275246
11.469450,-1,4,3,38,41,80,65,32,2.868275246
11.471569,55,99,5,-22,11,-42,-20,-2,2.868275246
11.471585,-31,-40,-7,-26,-79,-45,30,-19,2.868275246
11.491708,-90,-79,-8,6,56,24,26,50,2.868275246
11.494001,73,71,30,41,3,59,20,114,2.868275246
11.494013,-72,-89,-39,-23,-96,-75,-20,-10,2.868275246
11.494016,-15,-14,-17,-43,-43,-39,-18,27,2.868275246
11.505059,30,-59,-5,14,43,8,-32,23,2.936168558
11.505078,-55,21,-6,-6,-74,-66,-8,-16,2.936168558
11.515479,50,84,36,36,53,65,18,58,2.936168558
11.515490,-24,9,-11,3,21,8,-1,-23,2.936168558
11.529443,42,43,-24,-50,-46,5,-39,-66,2.936168558
11.529529,1,34,12,5,-33,0,52,45,2.936168558
11.530422,68,88,22,62,127,50,-74,7,2.936168558
11.530439,-40,-25,-14,-29,-101,-42,-4,-18,2.936168558
11.552492,1,102,-5,-30,-72,-17,35,-19,2.936168558
11.555171,-10,20,-2,35,81,9,-38,-27,2.936168558
11.555194,9,80,-1,-8,66,-48,60,39,2.936168558
11.555199,76,90,20,-17,-12,77,35,127,2.936168558
11.565546,2,-92,11,6,-22,11,-24,58,2.936168558
11.565671,-8,-52,-17,-35,68,2,-6,-36,2.936168558
11.575815,-24,-105,-7,4,-23,-13,-27,-30,2.936168558
11.575828,41,55,12,2,5,8,-51,-30,2.936168558
11.588915,-78,-7,4,10,39,19,29,1,2.936168558
11.588932,17,-28,-3,-8,-83,-34,7,21,2.936168558
11.590360,-35,-91,-18,-5,-10,2,-9,-89,2.936168558
11.590375,60,127,5,-25,68,13,15,1,2.936168558
11.612047,55,-71,3,9,-33,18,-8,-51,2.936168558
11.612075,-23,-53,-9,-42,20,0,-12,42,2.936168558
11.614833,-50,47,-11,21,-34,-33,-13,12,2.936168558
11.614849,11,21,5,-42,10,88,-16,-10,2.936168558
11.625777,30,19,17,75,122,16,73,11,2.936168558
11.625821,-15,-29,1,12,-42,-17,-54,-33,2.936168558
11.635843,-66,-55,-23,-29,-28,40,-29,-40,2.936168558
11.635859,42,53,4,-2,33,-72,-14,18,2.936168558
11.651343,-11,23,11,-3,59,-25,-6,29,2.936168558
11.651352,-21,-50,-3,-4,-33,62,25,-18,2.936168558
11.651356,33,48,-8,-1,-18,2,23,7,2.936168558
11.651358,31,-2,-8,-7,-59,-39,-7,-15,2.936168558
11.671522,-67,31,-4,-14,-4,49,-33,-25,2.936168558
11.671541,-27,47,3,27,-3,-15,29,18,2.936168558
11.673031,-43,-89,-21,-41,-4,22,-20,-15,2.936168558
11.673050,-14,-15,17,-31,-107,-40,4,-56,2.936168558
11.685605,79,50,2,42,78,45,-10,2,2.936168558
11.685652,89,76,25,23,-23,-11,53,84,2.936168558
11.694612,-25,-37,-12,-8,19,28,-33,-42,2.936168558
11.694625,-57,-67,-8,9,25,16,-14,37,2.936168558
11.709527,-17,22,-9,-10,-35,-59,-23,-24,2.936168558
11.709560,40,18,-3,-22,-7,-37,1,-9,2.936168558
11.711840,-12,98,36,15,16,36,20,22,2.936168558
11.711855,27,-89,-34,4,11,-31,-60,-24,2.936168558
11.731399,90,49,2,-39,-128,-2,37,10,2.936168558
11.731411,-4,0,-9,27,68,-14,-31,-8,2.936168558
11.732815,37,-38,8,21,-59,19,75,15,2.936168558
11.732830,18,50,6,-4,-39,44,-15,-11,2.936168558
11.754094,-18,-25,9,67,88,39,-2,-7,2.936168558
11.754119,-75,26,4,-37,-109,32,-76,-34,2.936168558
11.756071,-63,-44,-18,-1,-12,13,65,15,2.936168558
11.756084,6,-58,-12,22,44,-31,-8,1,2.936168558
11.769427,-22,-38,-17,-48,-128,-22,-17,-29,2.865237737
11.769459,54,95,20,3,79,-16,19,8,2.865237737
11.771486,-63,-13,12,50,118,19,-31,-11,2.865237737
11.771505,12,-25,-6,2,-33,-32,-2,48,2.865237737
11.791382,-86,-17,-4,-10,61,10,-19,-15,2.865237737
11.791398,18,-12,-10,-7,-13,-8,28,17,2.865237737
11.793028,94,114,19,-23,-33,-24,-3,-47,2.865237737
11.793094,-83,-37,-15,-9,67,59,29,-59,2.865237737
11.814286,40,-50,-18,-21,-72,-15,-54,-8,2.865237737
11.814319,-30,-53,1,13,48,-18,42,-56,2.865237737
11.815439,35,34,-14,-42,-80,49,17,36,2.865237737
11.815447,-15,35,29,65,113,-3,65,10,2.865237737
11.828808,0,-29,-6,34,99,124,25,-23,2.865237737
11.830219,-32,-39,-22,-33,2,-127,-61,-42,2.865237737
11.835570,44,40,9,6,-44,-32,-54,23,2.865237737
11.835595,12,34,21,19,-3,37,6,9,2.865237737
11.851518,-77,-7,-22,-28,-45,58,24,-16,2.865237737
11.851538,66,-29,-10,-32,-91,-55,-23,57,2.865237737
11.853786,-9,2,-4,-2,7,20,34,-5,2.865237737
11.853800,53,56,11,-15,-38,-5,-42,87,2.865237737
11.874060,6,127,19,12,7,-86,-16,15,2.865237737
11.874084,34,28,3,4,-2,43,13,-80,2.865237737
11.876827,31,30,-17,-22,-99,-27,-17,-15,2.865237737
11.876838,-46,-52,-15,-15,-63,-6,-5,-58,2.865237737
11.888458,73,-44,0,-13,20,-98,8,92,2.865237737
11.890092,-49,29,-16,-54,-100,110,-2,-12,2.865237737
11.895400,48,-13,20,108,121,11,25,40,2.865237737
11.895420,-18,16,3,-2,37,59,-21,-24,2.865237737
11.912249,-11,45,13,-26,-53,10,58,-6,2.865237737
11.912288,-77,-123,-12,-15,49,16,-11,-13,2.865237737
11.914476,-8,-10,-10,-41,-32,40,-54,26,2.865237737
11.914492,37,84,14,15,-8,-48,56,47,2.865237737
11.934173,84,20,-16,15,17,-23,-38,47,2.865237737
11.934243,-41,-19,-16,9,9,-18,-20,-60,2.865237737
11.935370,-34,12,7,-26,-100,0,29,-88,2.865237737
11.935412,25,-30,-9,28,35,-16,-33,43,2.865237737
11.947454,67,81,22,12,-5,3,-12,7,2.865237737
11.947558,50,127,37,27,16,-33,30,25,2.865237737
11.957972,-47,-128,-47,-58,-54,24,-50,-47,2.865237737
11.957985,-73,-28,-9,-15,-5,-13,16,-17,2.865237737
11.971407,-12,-18,7,-6,-55,-57,15,-41,2.865237737
11.971432,36,11,-2,38,18,64,-18,85,2.865237737
11.973660,25,20,24,-5,95,-29,5,-37,2.865237737
11.973673,20,96,15,-18,-99,3,1,-5,2.865237737
11.993866,-43,-125,-2,56,56,106,-15,-60,2.865237737
11.993905,64,95,40,1,17,-65,8,51,2.865237737
11.995312,86,-105,-56,-12,-101,-25,21,61,2.865237737
11.995322,76,-39,-19,-20,65,-55,-27,-17,2.865237737
12.008786,-31,39,-9,-5,-8,18,-32,-35,2.865237737
12.008801,79,-23,40,39,-11,58,6,75,2.865237737
12.015192,1,13,-5,-5,-5,-27,43,-18,2.865237737
12.015218,31,47,1,-27,-12,-12,14,-19,2.865237737
12.031820,21,70,-3,-9,5,-13,-28,10,2.755977501
12.031889,-78,-46,-5,-3,41,12,16,-93,2.755977501
12.033144,37,20,-10,-52,-5,-26,-26,-12,2.755977501
12.033150,23,-81,-1,37,-28,67,54,-20,2.755977501
12.054203,-23,12,3,-47,-46,-82,-47,-8,2.755977501
12.054222,-17,28,-4,37,58,-98,29,-27,2.755977501
12.056379,-17,-21,18,9,23,71,34,4,2.755977501
12.056391,-2,46,-5,12,-75,-35,11,24,2.755977501
12.068343,-60,-18,2,-45,-126,-3,-3,-20,2.755977501
12.068369,-11,2,-17,11,66,21,-4,-4,2.755977501
12.075485,54,-2,12,19,-4,-5,-59,112,2.755977501
12.075517,-104,-94,-24,-10,13,-9,33,-11,2.755977501
12.091570,-39,79,8,-3,-20,-19,17,-4,2.755977501
12.091594,20,9,-16,-9,-78,-2,22,14,2.755977501
12.093073,9,103,13,-10,127,28,-79,-29,2.755977501
12.093098,53,-10,-7,-8,-70,10,-54,-23,2.755977501
12.114258,-78,-51,-21,34,127,-55,-11,-35,2.755977501
12.114282,-17,69,-14,-47,-128,-20,-22,-33,2.755977501
12.116514,61,125,36,15,-63,-11,76,83,2.755977501
12.116526,-6,-28,-7,23,65,-61,-20,-80,2.755977501
12.128896,-23,-73,-10,3,-12,76,38,-22,2.755977501
12.128913,12,-41,-9,1,50,15,14,-6,2.755977501
12.135637,-70,20,12,-9,-76,-106,-5,-14,2.755977501
12.135682,-17,4,10,-18,79,60,-8,7,2.755977501
12.152004,22,3,-14,1,-30,-13,-18,98,2.755977501
12.152032,-59,-57,-6,-19,23,13,13,11,2.755977501
12.152933,-18,-15,0,23,18,-13,3,-12,2.755977501
12.152949,40,127,14,8,-109,-27,32,10,2.755977501
12.173951,60,-10,26,2,77,82,5,44,2.755977501
12.176034,-29,-111,-31,-16,75,-89,-64,-56,2.755977501
12.176047,-8,2,-5,9,-1,-19,-10,-20,2.755977501
12.176050,15,107,21,-15,-39,107,21,24,2.755977501
12.188611,25,46,13,8,-11,-106,57,-11,2.755977501
12.190681,20,15,-25,13,-53,115,1,-78,2.755977501
12.195453,15,-46,9,19,28,-27,10,-28,2.755977501
12.195484,-39,-78,-25,-29,-58,21,-62,6,2.755977501
12.211319,-12,34,4,-7,-3,7,6,-7,2.755977501
12.211331,96,77,33,-5,80,-33,-32,25,2.755977501
12.212857,-110,-86,-52,-7,-47,9,84,-86,2.755977501
12.212866,92,99,11,11,-34,-42,-57,8,2.755977501
12.234002,43,22,-15,-1,-18,7,-4,4,2.755977501
12.234019,2,44,13,13,-36,-59,-31,-21,2.755977501
12.236518,102,124,56,64,2,91,30,29,2.755977501
12.236533,-1,-128,-41,-50,-4,37,8,-54,2.755977501
12.247558,43,-35,-12,14,66,-34,-59,3,2.755977501
12.247581,-5,-13,13,0,58,84,67,7,2.755977501
12.256474,-23,-21,0,8,41,58,-28,8,2.755977501
12.256486,-30,-31,18,19,27,37,-1,32,2.755977501
12.273197,-22,9,-1,40,87,21,-68,-67,2.836597711
12.273209,2,13,1,-12,-116,10,12,103,2.836597711
12.273213,68,79,13,7,-25,-9,18,23,2.836597711
12.273215,-34,-39,-27,-22,-60,-59,-58,-43,2.836597711
12.294163,-56,-6,-23,-46,-37,24,40,0,2.836597711
12.294187,-28,42,2,5,-31,-34,-31,35,2.836597711
12.296152,6,22,-12,-11,-13,-6,-13,-6,2.836597711
12.296162,-20,76,24,-16,-30,-25,47,-15,2.836597711
12.307861,50,8,15,-33,-33,8,10,27,2.836597711
12.307878,-20,-71,-14,77,81,60,-27,-5,2.836597711
12.319088,54,15,13,-4,-61,-113,-39,34,2.836597711
12.319101,47,69,18,52,-3,120,95,43,2.836597711
12.331421,-48,-81,-22,9,-78,-71,30,2,2.836597711
12.331445,53,64,-9,-55,-37,-12,-5,-21,2.836597711
12.334463,-37,-21,-20,-47,80,-32,1,37,2.836597711
12.334475,5,46,18,41,8,-68,-13,7,2.836597711
12.354305,30,26,12,-18,-77,-18,7,-12,2.836597711
12.354328,-73,-85,-19,-6,-40,-7,7,-21,2.836597711
12.355681,-39,-77,-12,-4,17,-12,-13,-42,2.836597711
12.355756,30,32,-6,-16,-7,-48,7,-15,2.836597711
12.367603,-17,34,6,-4,0,78,17,43,2.836597711
12.367650,-64,-67,15,21,0,-51,-3,-26,2.836597711
12.379011,-19,-1,1,-8,-83,-32,-27,-62,2.836597711
12.379023,-59,-39,-24,41,127,-26,1,16,2.836597711
12.391895,3,2,12,26,53,109,-12,-14,2.836597711
12.391919,58,56,3,-29,2,-93,-41,0,2.836597711
12.394055,-21,83,9,22,52,102,75,6,2.836597711
12.394066,12,-38,-3,-24,-97,19,-54,-3,2.836597711
12.413826,-8,-61,-11,-6,-26,-32,-7,-26,2.836597711
12.413870,31,46,-9,-9,-3,53,11,-3,2.836597711
12.415277,30,86,34,35,70,40,25,38,2.836597711
12.415286,-74,-114,-36,-25,-21,-61,-65,-61,2.836597711
12.427890,17,12,-25,-47,-47,-64,-12,-13,2.836597711
12.427902,42,22,1,22,-43,107,38,-11,2.836597711
12.438312,12,10,1,-20,-84,-15,-15,-2,2.836597711
12.438325,51,20,11,9,105,105,22,16,2.836597711
12.452134,-9,-5,-1,-53,-17,-49,2,-10,2.836597711
12.452342,-18,2,11,50,53,45,-17,84,2.836597711
12.455239,15,-128,-30,-41,-72,-93,-32,23,2.836597711
12.455252,28,58,30,-2,-28,-93,61,39,2.836597711
12.474065,99,89,29,34,40,116,35,24,2.836597711
12.476479,69,-107,-51,-47,-52,-25,-13,-67,2.836597711
12.476491,7,36,-8,19,83,21,-21,-21,2.836597711
12.476494,56,43,13,2,20,-50,-14,-3,2.836597711
12.487682,-58,38,21,19,-58,-18,28,-3,2.836597711
12.487700,-71,2,14,-5,-6,-2,28,-37,2.836597711
12.497642,17,-86,-35,-24,-13,1,-56,-15,2.836597711
12.497654,54,-25,0,-23,-38,-50,5,39,2.836597711
12.511319,44,79,6,6,0,-27,-16,3,2.836597711
12.511337,-15,-79,-13,42,105,102,-44,-8,2.836597711
12.512785,61,15,7,-3,-63,9,74,98,2.836597711
12.512803,-102,82,13,-9,-59,-35,0,-18,2.836597711
12.534403,-11,62,14,19,2,90,41,13,2.785455772
12.534501,-46,-64,-17,-8,8,-45,-62,-65,2.785455772
12.537799,43,-25,-1,-22,60,20,-20,-8,2.785455772
12.537812,-9,50,-1,27,41,-41,0,6,2.785455772
12.547930,-77,-8,-4,3,-50,22,7,-15,2.785455772
12.547962,1,-13,-1,-28,-12,-20,41,-6,2.785455772
12.557459,-29,41,17,40,34,24,-9,-30,2.785455772
12.557468,-43,-95,-14,-27,-59,5,3,11,2.785455772
12.571853,54,7,-23,-3,-42,-40,-42,-26,2.785455772
12.571864,104,25,16,0,-48,-32,26,24,2.785455772
12.572845,-128,-87,-25,-49,-61,-60,-23,-10,2.785455772
12.572855,53,88,16,49,17,96,56,-8,2.785455772
12.594236,87,-29,-18,10,118,-20,-69,75,2.785455772
12.594261,-38,13,-20,3,40,11,6,-58,2.785455772
12.596480,23,23,14,-10,-27,43,20,1,2.785455772
12.596490,74,24,-1,-35,-42,67,28,-18,2.785455772
12.608214,-12,-46,27,85,103,-3,-21,-3,2.785455772
12.608239,84,127,-2,-19,-83,-88,-10,24,2.785455772
12.618806,-20,33,-14,-11,60,-11,-30,-34,2.785455772
12.618819,69,2,-4,14,121,122,15,67,2.785455772
12.631859,-11,66,8,-27,-46,-40,-23,-69,2.785455772
12.631878,-68,-113,8,-35,-66,-29,19,-9,2.785455772
12.634035,75,-5,-14,18,-7,-12,0,-46,2.785455772
12.634053,40,24,7,-10,-21,4,-30,24,2.785455772
12.654044,-46,-17,-5,-18,-56,-34,54,-5,2.785455772
12.654063,4,104,12,11,82,21,-42,58,2.785455772
12.655734,-64,-84,-20,16,-64,14,-14,-44,2.785455772
12.655748,-14,-2,-15,-53,-21,32,4,-78,2.785455772
12.677203,18,-60,8,29,-9,-66,-9,25,2.785455772
12.677236,31,122,31,39,-59,28,-35,-6,2.785455772
12.679908,-88,-95,-35,8,105,49,10,-44,2.785455772
12.679921,-71,20,-6,11,-8,-25,-32,38,2.785455772
12.691518,33,69,10,-27,-70,-30,13,-8,2.785455772
12.691541,-60,-109,-46,-66,-106,38,27,-10,2.785455772
12.693818,9,119,29,48,70,-62,24,4,2.785455772
12.693836,0,54,11,24,-41,-10,-9,-3,2.785455772
12.714092,-27,-32,-19,-13,66,58,33,-3,2.785455772
12.714149,-19,27,14,-13,-13,-78,-3,29,2.785455772
12.715466,24,32,3,1,5,9,-12,16,2.785455772
12.715481,24,-128,-17,-18,26,-32,7,31,2.785455772
12.737008,-4,-58,-9,-19,-29,-14,-14,43,2.785455772
12.737054,-45,-29,7,35,79,2,21,-5,2.785455772
12.739180,-35,-3,2,1,30,55,11,-55,2.785455772
12.739193,24,74,7,14,-13,23,4,-4,2.785455772
12.751436,-51,59,11,6,-43,-12,-6,-62,2.785455772
12.751455,-1,-44,-11,-7,66,44,27,8,2.785455772
12.753192,95,70,5,-13,-22,82,-19,92,2.785455772
12.753210,-81,-114,-27,-29,-45,-110,-35,-59,2.785455772
12.773998,18,29,-14,-17,-84,11,-27,-66,2.785455772
12.774020,-91,78,21,6,36,53,48,12,2.785455772
12.775362,64,31,12,-1,-48,-42,11,33,2.785455772
12.775381,-94,-43,0,-50,-70,-30,-5,-85,2.785455772
12.796583,42,-115,-21,16,127,48,-17,90,2.771313774
12.796613,98,41,10,-38,-96,-71,-52,-15,2.771313774
12.798547,-6,-12,23,62,56,-62,60,34,2.771313774
12.798557,-31,81,-4,0,-1,37,-11,25,2.771313774
12.810739,-10,-112,-12,59,102,82,0,-50,2.771313774
12.810756,-16,77,9,-10,-128,-12,-10,24,2.771313774
12.817714,75,-82,-4,-19,-92,-13,-4,32,2.771313774
12.817732,-35,57,-11,11,36,-33,-10,-11,2.771313774
12.834622,81,117,13,-3,-34,-37,19,15,2.771313774
12.834632,56,-12,-6,-8,37,19,3,10,2.771313774
12.835406,-37,117,2,-34,-128,-8,-10,-27,2.771313774
12.835473,10,-87,-11,25,91,-21,-45,31,2.771313774
12.856441,8,-19,-13,-31,-32,23,6,1,2.771313774
12.856459,69,-16,8,29,101,-24,-13,-23,2.771313774
12.858265,-104,-23,-12,-25,17,9,6,-21,2.771313774
12.858282,15,21,16,6,-99,-14,5,-60,2.771313774
12.870965,-24,-3,-6,-24,68,-64,44,-41,2.771313774
12.870984,127,75,7,-43,-82,88,-20,-3,2.771313774
12.877959,-105,-96,6,73,127,-28,18,4,2.771313774
12.877990,50,62,-24,1,-20,-9,15,-32,2.771313774
12.895712,-17,10,-2,-4,-80,-15,-3,-7,2.771313774
12.895721,-5,54,-9,-5,-1,-46,67,-21,2.771313774
12.895724,29,29,14,-33,-48,39,-60,58,2.771313774
12.895726,-32,-72,20,20,45,34,11,0,2.771313774
12.916689,49,71,-12,-14,-80,4,18,23,2.771313774
12.916720,-60,27,-4,4,4,-7,-7,34,2.771313774
12.919142,-10,-25,-5,-12,-38,0,-15,7,2.771313774
12.919155,-12,-55,-14,0,81,-16,13,19,2.771313774
12.931101,37,114,6,-22,-34,20,-5,-57,2.771313774
12.931128,-80,-4,-8,17,-7,-49,-21,-71,2.771313774
12.945220,2,69,2,-25,-108,34,2,-46,2.771313774
12.945279,90,16,15,1,87,123,44,8,2.771313774
12.953972,-128,-128,-14,34,71,-127,-40,-38,2.771313774
12.954051,54,14,-1,6,-18,50,34,17,2.771313774
12.956069,16,-22,-2,3,51,-60,-11,-11,2.771313774
12.956081,-6,15,5,-2,0,-11,29,-29,2.771313774
12.976648,-3,11,-8,-35,-17,93,57,28,2.771313774
12.976664,48,-56,-3,26,31,31,24,32,2.771313774
12.977844,50,100,6,-27,-45,-28,-7,31,2.771313774
12.977861,12,2,2,10,5,4,-9,53,2.771313774
12.990828,72,95,10,3,-42,6,-10,-48,2.771313774
12.990842,-92,-106,-26,-17,0,-35,-41,79,2.771313774
12.997884,19,-48,-5,-6,12,27,47,-91,2.771313774
12.997909,-34,-26,-4,-7,-22,-24,-57,3,2.771313774
13.014414,39,24,-3,-24,-123,-36,-10,12,2.771313774
13.014445,46,84,31,-26,-8,74,-59,-45,2.771313774
13.016813,-38,-11,-26,69,112,6,23,-21,2.771313774
13.016826,-84,-103,-16,35,-39,43,-53,4,2.771313774
13.036474,15,-63,-10,-17,-22,-13,-34,8,2.771313774
13.036533,20,92,10,8,-10,-16,43,-4,2.771313774
13.037939,127,78,16,11,89,36,-27,34,2.771313774
13.037956,47,90,5,-32,-97,-42,13,0,2.771313774
13.052204,26,75,10,43,104,55,16,29,2.815533433
13.052217,28,-45,-19,-11,16,-21,-10,4,2.815533433
13.057801,-26,-35,13,-7,-16,17,-7,-43,2.815533433
13.057819,75,65,9,5,-30,-63,17,1,2.815533433
13.073961,-17,-120,-5,-6,-45,-13,-68,51,2.815533433
13.073986,-45,-46,-4,-2,-37,-40,41,36,2.815533433
13.075657,-24,62,20,3,-16,-17,9,47,2.815533433
13.075671,37,-31,-27,-33,-32,21,-23,-54,2.815533433
13.097144,57,100,13,-4,-33,-59,3,3,2.815533433
13.097184,-41,-23,-19,67,13,-12,-34,-63,2.815533433
13.099119,-17,-28,-17,-35,-91,-115,-68,30,2.815533433
13.099127,10,4,8,28,113,32,80,50,2.815533433
13.111082,-8,45,20,20,-1,87,21,29,2.815533433
13.111124,42,-53,7,14,-52,-85,17,75,2.815533433
13.118521,-36,-15,1,-44,-103,38,32,-16,2.815533433
13.118553,100,22,-30,-15,-61,-116,-65,-29,2.815533433
13.134071,-17,50,9,-7,31,9,-6,-75,2.815533433
13.134116,32,-39,-8,-17,-12,-11,2,-17,2.815533433
13.135669,87,81,22,25,64,22,25,41,2.815533433
13.135774,-100,-55,7,-8,3,17,4,14,2.815533433
13.156475,-8,-49,5,-6,58,-7,-1,-51,2.815533433
13.156492,-20,-1,-6,16,-43,-14,-21,-41,2.815533433
13.158228,8,75,-17,-59,-78,-12,-2,-13,2.815533433
13.158247,-31,85,17,104,75,-24,40,16,2.815533433
13.170471,-45,-33,-5,-37,5,-61,1,10,2.815533433
13.170506,-39,-78,10,49,14,19,17,-3,2.815533433
13.179290,1,-59,-32,15,79,43,20,-17,2.815533433
13.179298,19,78,24,-12,16,2,7,10,2.815533433
13.195030,-1,-30,-14,-5,-58,61,10,17,2.815533433
13.195042,-43,105,22,-14,70,-46,-3,13,2.815533433
13.195283,21,-96,-32,-2,-14,-32,-19,57,2.815533433
13.195291,-4,-13,7,-10,20,15,19,64,2.815533433
13.215843,19,10,0,11,-26,-34,-4,-14,2.815533433
13.215874,12,33,-4,-50,-62,20,11,-38,2.815533433
13.231400,0,-84,-16,11,-20,-71,-8,-29,2.815533433
13.231424,-25,101,-2,-57,-64,87,27,-30,2.815533433
13.233744,-39,-12,8,5,-10,-16,21,49,2.815533433
13.233761,-3,0,-8,24,-17,-6,-34,30,2.815533433
13.240139,63,12,31,31,-49,-36,3,13,2.815533433
13.240151,-57,-74,-21,-14,-57,38,-79,-49,2.815533433
13.255739,19,-128,-16,0,-89,26,78,9,2.815533433
13.255750,31,12,-17,-32,84,24,-27,-19,2.815533433
13.255754,-1,127,15,10,-17,-19,4,-9,2.815533433
13.255756,30,-48,6,18,-7,-19,-29,28,2.815533433
13.276907,-22,77,11,-4,-22,5,-6,-43,2.815533433
13.276937,-45,-29,-5,-9,0,-6,26,27,2.815533433
13.278860,9,-89,-30,-22,-18,4,-35,35,2.815533433
13.278877,7,-10,9,-19,-52,-20,1,-18,2.815533433
13.290112,-12,43,1,49,123,4,3,-43,2.815533433
13.290136,45,47,14,10,90,112,4,53,2.815533433
13.300827,-94,-32,7,9,60,-50,69,-37,2.794771105
13.300844,33,34,-1,-44,-29,-36,-31,-6,2.794771105
13.314016,3,-121,1,1,-76,-94,-46,-4,2.794771105
13.314032,-33,53,-3,66,-9,-8,60,-19,2.794771105
13.316111,-48,95,23,-6,-93,95,35,-4,2.794771105
13.316122,75,15,-15,3,46,23,-18,6,2.794771105
13.336935,-22,30,-5,-29,-1,-23,-10,25,2.794771105
13.336968,37,12,-6,-37,13,-10,-28,-18,2.794771105
13.339431,27,13,-4,2,20,-21,-17,-99,2.794771105
13.339446,-92,-40,27,5,-77,-54,56,89,2.794771105
13.350172,115,99,5,38,127,127,-5,29,2.794771105
13.350225,-28,-69,-22,-17,-103,-62,-3,9,2.794771105
13.362132,41,-16,-7,-14,-31,4,14,12,2.794771105
13.362144,-32,-24,23,4,57,-11,-30,-71,2.794771105
13.373848,-8,-2,7,36,55,59,-41,38,2.794771105
13.373865,24,56,11,-35,2,-45,-34,-19,2.794771105
13.376252,-94,-114,-38,27,64,32,20,-43,2.794771105
13.376265,-34,64,4,-8,0,-35,48,-14,2.794771105
13.396303,-40,-67,-25,-17,-72,-26,-5,2,2.794771105
13.396316,37,19,15,-9,37,50,40,25,2.794771105
13.397848,-30,-73,-17,-38,3,34,-1,18,2.794771105
13.397884,23,40,-14,-7,-63,-70,-68,-23,2.794771105
13.410378,-19,-25,-5,-5,-22,-19,-26,58,2.794771105
13.410391,-59,-21,13,8,-61,-21,18,74,2.794771105
13.420746,-11,-16,3,-2,25,24,-3,-3,2.794771105
13.420760,18,-82,-25,-14,32,54,7,-25,2.794771105
13.434844,31,-25,13,-8,-124,-24,18,3,2.794771105
13.434869,11,-23,-2,-14,86,-98,-2,-60,2.794771105
13.437898,-60,47,24,-8,-39,55,-18,55,2.794771105
13.437917,1,-22,12,96,127,75,-9,18,2.794771105
13.457659,-25,68,5,-2,-93,-53,-7,-59,2.794771105
13.457672,54,-49,-6,-33,-99,-57,-9,-9,2.794771105
13.457891,19,10,9,38,-24,-6,19,30,2.794771105
13.457898,8,62,13,1,19,-118,54,-1,2.794771105
13.470288,65,-85,-14,-16,-39,55,-6,16,2.794771105
13.470314,-98,-59,-34,-14,-59,13,-31,-89,2.794771105
13.479459,3,-34,-13,-38,-103,-74,-61,44,2.794771105
13.479474,17,21,4,-1,-8,36,0,-21,2.794771105
13.493646,-36,42,23,30,99,3,30,24,2.794771105
13.493701,127,102,20,0,24,31,16,-4,2.794771105
13.500371,-16,82,1,-34,-46,-30,-54,-41,2.794771105
13.500398,-1,-84,-41,-20,74,-1,23,-5,2.794771105
13.517054,-25,80,2,-20,117,17,12,-23,2.794771105
13.517086,53,52,32,52,-1,-9,3,21,2.794771105
13.520327,4,-2,-15,43,87,96,9,-67,2.794771105
13.520344,-71,84,13,45,-22,114,44,36,2.794771105
13.530168,40,16,23,-18,-67,-128,2,11,2.794771105
13.530221,-5,-62,-18,-3,46,127,54,-17,2.794771105
13.540418,48,-35,5,5,48,-26,14,-10,2.794771105
13.540429,53,24,-1,-13,-30,-31,5,24,2.794771105
13.554544,-39,62,5,-19,-49,-8,-52,0,2.787046635
13.554568,-15,-27,-25,-3,-54,-17,-44,-45,2.787046635
13.555527,4,-3,4,8,-35,-48,-12,7,2.787046635
13.555553,15,-41,-13,-45,-68,8,-11,-15,2.787046635
13.576722,52,-17,-11,-30,-75,38,-12,24,2.787046635
13.576740,-14,15,-10,-19,8,85,-25,-35,2.787046635
13.578757,-4,-16,5,-12,31,-95,-9,-11,2.787046635
13.578767,87,13,19,66,81,68,19,8,2.787046635
13.601835,-37,-15,-14,-3,3,-2,31,-24,2.787046635
13.601848,-15,54,-4,5,-12,-21,-17,18,2.787046635
13.601851,60,-36,8,-11,-66,-28,12,-38,2.787046635
13.601853,-116,30,-23,-49,-100,-70,-8,-43,2.787046635
13.614043,-4,-30,-28,-3,48,-7,0,-28,2.787046635
13.614068,-110,-115,-13,-10,3,-29,-43,-68,2.787046635
13.615559,81,120,10,-1,-3,-20,-17,24,2.787046635
13.615572,-45,5,15,0,7,11,11,20,2.787046635
13.636559,-40,-48,-33,-18,-120,-11,-27,-31,2.787046635
13.638344,-37,-2,-3,-5,-17,-30,9,16,2.787046635
13.638366,16,22,11,-17,-44,49,-3,-2,2.787046635
13.638369,15,-61,-5,3,75,60,3,43,2.787046635
13.658996,48,25,20,48,127,-29,-19,18,2.787046635
13.659020,-32,25,9,-46,-98,-64,20,6,2.787046635
13.660557,-35,27,11,51,78,44,66,1,2.787046635
13.660577,-18,-88,-11,-34,-104,20,-107,-18,2.787046635
13.673988,37,-1,-37,-24,-24,-49,-9,-21,2.787046635
13.674014,36,49,6,2,-44,22,39,41,2.787046635
13.675409,23,-2,0,11,1,32,6,3,2.787046635
13.675422,127,127,39,15,-41,-70,-7,43,2.787046635
13.696299,-94,-83,3,1,73,40,22,-3,2.787046635
13.696313,25,-86,-29,-18,-27,-14,-4,-51,2.787046635
13.697819,43,48,-5,13,84,62,-49,11,2.787046635
13.697853,51,10,-5,-44,-128,39,65,50,2.787046635
13.718989,-45,-14,18,29,91,-77,-15,11,2.787046635
13.719012,32,-12,11,45,127,-67,-9,12,2.787046635
13.721262,-58,-32,-15,-25,-26,69,26,-28,2.787046635
13.721276,-15,90,1,19,61,-2,45,-14,2.787046635
13.734283,-24,-77,-18,-6,16,62,-42,5,2.787046635
13.734327,42,50,8,-15,-24,-56,-24,36,2.787046635
13.736798,-28,27,6,-1,16,-45,-6,29,2.787046635
13.736819,-15,71,19,22,-74,-16,-30,-12,2.787046635
13.756425,-36,-23,-12,-17,-66,-3,-23,-79,2.787046635
13.756442,60,74,-20,-6,-74,-4,-48,-22,2.787046635
13.758721,-9,-56,-13,-61,-79,-35,8,16,2.787046635
13.758739,38,7,16,73,80,90,31,10,2.787046635
13.779478,-70,-73,-6,52,91,-44,-46,68,2.787046635
13.780915,9,73,0,-28,-20,-49,55,-44,2.787046635
13.781011,-21,18,-23,-62,-53,-53,-77,-56,2.787046635
13.781143,-4,43,-1,-7,-83,23,28,-18,2.787046635
13.793479,89,70,10,3,-4,90,10,1,2.787046635
13.793497,31,60,39,97,113,2,56,80,2.787046635
13.800339,57,-107,-65,43,113,47,-9,-9,2.787046635
13.800364,-56,30,0,-29,-66,-112,-22,-23,2.787046635
13.816904,12,127,13,-27,-92,5,24,15,2.840090397
13.816935,16,29,6,-19,-81,32,-1,-14,2.840090397
13.819112,7,82,10,-6,-15,-36,6,9,2.840090397
13.819125,-40,-118,-14,-13,27,-14,-17,30,2.840090397
13.838962,122,41,-1,-6,-9,1,39,13,2.840090397
13.838980,-75,-107,-1,-45,-68,75,-25,52,2.840090397
13.840639,7,-15,-7,-6,-1,-109,-38,-14,2.840090397
13.840659,-19,-32,-24,21,24,76,-21,-96,2.840090397
13.853314,20,64,14,-15,-52,-85,-57,-10,2.840090397
13.853332,-49,-61,-5,48,29,82,62,-85,2.840090397
13.860045,-5,-78,4,18,16,-27,2,71,2.840090397
13.860964,93,36,-11,-48,-46,-50,14,37,2.840090397
13.876731,77,-25,-2,-20,-28,1,35,-14,2.840090397
13.876754,-63,-103,-28,-26,-42,-2,-58,-43,2.840090397
13.879679,23,68,16,13,-22,19,16,15,2.840090397
13.879690,-17,-54,-5,5,62,-13,28,-16,2.840090397
13.898809,77,106,22,8,-68,11,8,19,2.840090397
13.898852,2,1,-7,0,-37,-5,-13,45,2.840090397
13.900284,-54,108,32,34,8,35,23,-50,2.840090397
13.900294,9,-83,-12,-9,-85,-68,-31,-10,2.840090397
13.913124,72,101,20,51,75,-21,104,18,2.840090397
13.913139,-79,-111,-47,-1,123,84,-61,-50,2.840090397
13.920130,-35,22,17,60,99,-38,17,1,2.840090397
13.920160,27,83,-4,-11,-24,9,-10,8,2.840090397
13.936721,-26,28,5,2,-104,11,27,-9,2.840090397
13.936747,8,103,17,-14,109,-24,-6,69,2.840090397
13.939399,-34,-38,-21,-47,-128,-78,3,-31,2.840090397
13.939412,-47,-87,-9,24,112,81,-95,-1,2.840090397
13.960873,-82,-117,-14,-11,-21,14,-14,-72,2.840090397
13.960973,77,28,21,-9,-107,-30,19,34,2.840090397
13.960976,10,-34,13,22,62,58,5,-6,2.840090397
13.960978,-17,103,21,-15,-14,-92,51,-44,2.840090397
13.973351,-47,-48,-42,-27,-39,73,-62,-61,2.840090397
13.973368,55,88,13,11,53,-69,85,28,2.840090397
13.980573,37,106,4,4,27,-38,41,-41,2.840090397
13.980598,81,16,25,-7,41,46,51,35,2.840090397
13.996608,-73,-61,3,63,124,-46,-43,-24,2.840090397
13.996639,-91,-119,-47,-65,-62,5,-27,-38,2.840090397
13.998431,18,46,25,73,79,50,-7,84,2.840090397
13.998440,10,10,-9,-11,-67,-26,-5,-38,2.840090397
14.019359,-36,39,14,-13,-81,-8,-3,-51,2.840090397
14.019391,33,-7,3,3,13,71,43,68,2.840090397
14.021592,-10,13,-4,-43,-21,7,-12,-42,2.840090397
14.021606,-128,-86,-21,-61,-104,-80,-66,-1,2.840090397
14.033799,54,14,-18,26,-75,57,61,-8,2.840090397
14.033888,51,61,15,34,-36,-3,-14,-53,2.840090397
14.040087,-56,-98,0,5,26,-27,13,-23,2.840090397
14.040105,-64,-43,-13,-19,37,87,-51,38,2.840090397
14.056865,-10,4,0,-7,12,30,-24,7,2.840090397
14.056882,41,42,12,6,-92,-65,-39,81,2.840090397
14.058368,-79,-43,-33,-60,-74,51,-22,-55,2.840090397
14.058457,68,25,18,30,40,-59,-11,-7,2.840090397
14.079082,52,47,16,-13,67,46,25,54,2.830495650
14.079106,-6,8,-17,13,10,30,-23,-54,2.830495650
14.081048,76,7,20,-18,-128,-12,6,6,2.830495650
14.081065,-25,-84,-14,15,98,14,20,-36,2.830495650
14.093208,-9,74,6,22,29,-94,3,-30,2.830495650
14.093226,3,23,19,-6,-55,88,19,-25,2.830495650
14.101860,2,2,-13,15,58,67,-9,10,2.830495650
14.101872,-52,-4,-3,-25,-18,-46,84,26,2.830495650
14.118074,80,-76,-13,-10,29,-20,-102,102,2.830495650
14.118085,33,106,7,-45,-53,-52,33,31,2.830495650
14.118088,50,-49,0,41,-8,66,4,18,2.830495650
14.118090,-45,13,7,4,77,-7,-23,18,2.830495650
14.138922,-94,-33,-27,-14,-98,-13,19,-40,2.830495650
14.138941,68,50,-1,13,-11,-22,-22,-7,2.830495650
14.140503,49,72,-1,-41,-75,3,-7,30,2.830495650
14.140518,127,112,24,15,-46,4,24,3,2.830495650
14.153034,-56,33,6,-13,17,-3,14,-21,2.830495650
14.153066,-26,-128,-2,-4,3,33,-30,30,2.830495650
14.163258,-9,42,4,-4,-45,-68,-2,37,2.830495650
14.163269,-9,-61,-21,-7,-30,-48,47,-41,2.830495650
14.176963,64,11,2,-16,73,83,78,26,2.830495650
14.177000,-28,46,9,60,100,-39,-17,-30,2.830495650
14.179445,7,-68,9,-5,-12,-18,22,40,2.830495650
14.179463,-46,-1,8,49,6,76,-5,-11,2.830495650
14.199184,23,24,-18,-58,-36,-30,-8,28,2.830495650
14.199209,-35,65,-10,6,12,-13,-10,-37,2.830495650
14.200479,-72,-102,-7,-8,49,-12,1,-45,2.830495650
14.200569,33,-15,-3,12,-12,-22,7,32,2.830495650
14.212652,-73,-65,17,-14,-28,-7,6,-11,2.830495650
14.212667,87,-90,-23,-15,-45,26,-24,-22,2.830495650
14.222471,-12,43,-5,-7,33,-17,-15,34,2.830495650
14.222482,8,20,-10,-30,-128,13,-17,-79,2.830495650
14.236895,-3,93,18,69,121,11,-24,-33,2.830495650
14.236933,35,43,-2,-11,-44,-49,56,-12,2.830495650
14.239076,-18,13,18,53,50,12,7,44,2.830495650
14.239090,31,22,-9,-19,12,106,-93,-46,2.830495650
14.258817,23,17,1,13,68,12,44,3,2.830495650
14.258831,18,76,13,7,48,3,16,-1,2.830495650
14.260435,-83,43,-4,4,-31,17,-22,-6,2.830495650
14.260481,-41,39,12,-9,-37,-23,56,8,2.830495650
14.274449,2,-83,-16,-20,-107,-35,-76,11,2.830495650
14.274467,11,-35,4,0,1,-16,-69,7,2.830495650
14.282861,40,27,-2,-20,20,-27,-20,-8,2.830495650
14.282877,70,60,-4,-7,-110,-17,6,3,2.830495650
14.296585,78,117,18,29,48,22,14,22,2.830495650
14.298373,-108,-128,-21,-12,-48,-68,0,-32,2.830495650
14.298393,103,77,-17,-48,-10,54,5,-29,2.830495650
14.298399,-13,-31,-7,29,72,41,-22,-76,2.830495650
14.321649,32,23,8,-26,7,61,90,44,2.835727916
14.321669,4,29,19,2,-29,-43,-19,-4,2.835727916
14.321675,13,20,6,13,13,32,37,-4,2.835727916
14.321680,9,-13,2,-3,62,-27,-27,26,2.835727916
14.341555,-14,50,11,1,68,-34,-50,14,2.835727916
14.341579,-52,23,-17,-13,106,45,-12,0,2.835727916
14.344253,-109,-109,-33,4,-87,-27,-26,-34,2.835727916
14.344265,31,96,14,-21,-86,-48,18,36,2.835727916
14.356590,-56,-4,-18,-9,-120,29,-19,-23,2.835727916
14.356609,32,-50,13,21,78,59,22,16,2.835727916
14.357938,43,99,4,-33,-83,-23,-37,-24,2.835727916
14.357958,-82,-114,-25,16,57,-7,-20,-6,2.835727916
14.378121,39,2,5,-10,-21,-51,-17,-8,2.835727916
14.380085,-75,32,4,-13,-80,-27,24,60,2.835727916
14.388073,50,37,4,-24,-37,-75,-43,-49,2.835727916
14.388087,-23,-82,-39,4,75,72,32,18,2.835727916
14.392889,-16,-22,11,5,-113,-88,-4,-69,2.835727916
14.392920,-40,42,-13,44,-63,12,37,8,2.835727916
14.403237,-23,-83,8,1,126,-30,4,-8,2.835727916
14.403253,-5,-2,12,5,21,-36,-7,23,2.835727916
14.416357,28,-119,-25,-16,-20,17,-38,-17,2.835727916
14.416368,-3,22,10,-2,-3,18,11,-30,2.835727916
14.417801,71,18,0,-12,-50,9,-5,23,2.835727916
14.417810,35,23,6,5,-2,-33,-18,-30,2.835727916
14.438936,-45,-59,-6,2,16,78,26,54,2.835727916
14.438962,35,-13,7,-17,10,-41,32,-53,2.835727916
14.440754,11,17,4,-17,-88,20,-40,1,2.835727916
14.440768,45,44,-11,-10,22,54,4,102,2.835727916
14.452691,-34,-38,-2,-5,52,13,-58,40,2.835727916
14.452717,18,37,11,37,109,74,50,-36,2.835727916
14.462748,-3,82,31,78,127,-34,50,31,2.835727916
14.462758,64,-64,24,5,28,-45,18,29,2.835727916
14.478623,8,-59,-47,-48,-116,-23,18,-54,2.835727916
14.478635,77,16,8,-39,-65,-78,-110,-2,2.835727916
14.478639,32,-48,-16,-4,15,62,43,51,2.835727916
14.478641,-35,69,20,10,-13,-39,-2,-3,2.835727916
14.498973,10,60,18,11,12,2,43,10,2.835727916
14.500493,-92,-77,-15,-7,-9,12,1,-33,2.835727916
14.500505,31,18,-1,-5,-42,-25,-7,-29,2.835727916
14.500508,17,15,-5,10,17,-2,-24,61,2.835727916
14.512885,-6,17,-3,-54,-89,-37,2,-7,2.835727916
14.512915,1,21,3,31,34,0,-6,-5,2.835727916
14.522934,81,76,7,32,55,90,-5,79,2.835727916
14.522946,-74,-32,-1,-38,-48,-18,5,-41,2.835727916
14.536858,-36,46,-9,18,18,-26,-4,-18,2.835727916
14.536993,51,59,17,0,-65,-19,-8,29,2.835727916
14.539240,-84,-100,-15,-71,-103,-84,37,-24,2.835727916
14.539255,16,86,1,29,95,8,30,-21,2.835727916
14.558980,96,-29,15,-13,-73,-74,5,13,2.835727916
14.558998,-6,-23,-12,-26,53,-1,17,5,2.835727916
14.561450,-52,25,1,5,-114,-25,-8,-66,2.835727916
14.561462,28,2,-5,-35,-75,23,-14,46,2.835727916
14.581769,-53,-13,11,25,40,53,0,61,2.883976560
14.581793,64,10,-18,-1,5,-2,7,0,2.883976560
14.583804,13,-61,-6,1,41,19,15,-29,2.883976560
14.583814,-12,-39,-34,-4,-18,-29,-19,-70,2.883976560
14.595996,54,70,0,20,-20,28,-17,108,2.883976560
14.596021,70,10,13,4,39,59,-6,12,2.883976560
14.602579,-115,-99,-13,-42,-62,-95,-17,30,2.883976560
14.602601,58,110,-5,65,80,78,-10,-41,2.883976560
14.618872,-54,57,5,-16,-92,-29,54,-44,2.883976560
14.618885,13,-9,-17,12,-22,-14,-2,12,2.883976560
14.620589,30,32,3,7,63,98,36,-2,2.883976560
14.620607,-44,-28,39,29,64,-31,-85,-2,2.883976560
14.641517,79,-51,-29,-34,-61,-64,21,8,2.883976560
14.641535,-84,26,12,19,86,-3,-45,-23,2.883976560
14.643038,70,56,17,16,20,89,44,20,2.883976560
14.643054,21,-79,-29,-31,-108,-44,-15,-59,2.883976560
14.656336,25,76,4,1,30,39,7,-3,2.883976560
14.656353,-9,20,-7,-26,-79,-24,-18,-60,2.883976560
14.657973,127,127,49,31,31,-40,-19,-2,2.883976560
14.657994,50,-73,-49,-33,-82,-9,0,-79,2.883976560
14.680874,0,-108,-6,6,88,79,-21,-43,2.883976560
14.680886,59,25,2,10,-60,-14,42,106,2.883976560
14.680890,-10,32,-1,16,-29,52,9,-28,2.883976560
14.680892,11,51,19,-39,-97,-26,54,26,2.883976560
14.701501,-4,45,4,74,66,23,-26,-12,2.883976560
14.701525,-70,19,2,-51,7,45,-83,-5,2.883976560
14.703696,2,-51,-14,7,-7,-60,45,26,2.883976560
14.703711,17,23,-4,-13,52,-45,-2,26,2.883976560
14.715897,-128,-19,-5,-6,-18,6,45,-29,2.883976560
14.715929,22,49,1,25,0,-35,-19,8,2.883976560
14.722603,8,97,-8,-8,-59,-20,-30,-9,2.883976560
14.722621,-54,28,0,-2,-12,-11,-1,39,2.883976560
14.738915,50,-64,0,-28,83,63,-3,-68,2.883976560
14.738933,-10,-36,-2,-10,7,11,20,43,2.883976560
14.740624,-47,-39,-7,14,31,19,5,37,2.883976560
14.740718,-48,7,3,-7,-93,-73,35,21,2.883976560
14.769686,98,34,9,3,127,113,-47,2,2.883976560
14.769731,-105,-19,-27,-37,-111,-76,21,-22,2.883976560
14.772030,45,3,-9,3,127,42,-59,-22,2.883976560
14.772044,21,66,46,-12,-34,-10,-19,-1,2.883976560
14.775846,48,127,5,-24,-102,-32,-3,52,2.883976560
14.775869,-3,-128,-35,31,111,5,-2,1,2.883976560
14.783085,-74,-77,-16,-3,36,2,-52,-21,2.883976560
14.783109,-9,67,-2,9,-5,47,64,24,2.883976560
14.799409,2,34,-6,-25,-93,-103,-11,-71,2.883976560
14.800695,16,-15,25,-14,-70,15,36,-16,2.883976560
14.800707,-4,90,3,12,2,-3,-9,-29,2.883976560
14.800709,-34,-126,-27,1,5,48,-103,50,2.883976560
14.821887,22,89,29,12,15,-38,38,15,2.883976560
14.821898,-34,49,-5,-20,-107,24,20,-64,2.883976560
14.822846,47,12,14,15,-2,-61,50,93,2.883976560
14.822860,73,-55,-41,7,-7,65,30,-80,2.883976560
14.843922,-4,53,-9,44,-34,34,-52,64,2.794270861
14.843953,118,119,24,-3,-71,-4,-10,23,2.794270861
14.846012,3,-45,48,-28,-66,94,24,26,2.794270861
14.846025,20,-22,-25,-9,5,-116,52,-88,2.794270861
14.859243,20,-2,-3,66,119,71,-58,1,2.794270861
14.859276,45,60,-10,-12,-37,-28,-49,18,2.794270861
14.861522,9,80,17,-19,-35,-15,7,80,2.794270861
14.861534,4,-31,16,19,-12,-7,16,45,2.794270861
14.888901,-61,-103,-14,-29,-28,-42,8,-28,2.794270861
14.888960,-50,-55,-2,14,71,18,12,57,2.794270861
14.890313,-61,17,-10,-8,14,10,-49,-42,2.794270861
14.890322,0,-9,8,-16,-2,25,-10,-11,2.794270861
14.896660,-30,-27,-3,-39,-103,-60,-23,41,2.794270861
14.896693,79,-24,10,62,117,75,57,34,2.794270861
14.902781,-1,-99,-36,-43,-112,-18,64,17,2.794270861
14.902814,-50,110,8,50,1,36,5,27,2.794270861
14.919004,-41,44,53,52,81,-3,16,40,2.794270861
14.919030,19,-15,-16,-24,3,1,-27,-82,2.794270861
14.920580,31,62,-20,21,83,37,-24,-46,2.794270861
14.920601,67,60,28,1,41,45,-30,-27,2.794270861
14.941678,-52,-29,-26,-16,-77,90,107,-37,2.794270861
14.941711,49,70,16,-39,-82,-71,-26,-18,2.794270861
14.943538,13,-28,-5,28,76,-8,-56,-37,2.794270861
14.943565,56,22,0,-12,12,-56,68,20,2.794270861
14.955798,-25,-59,-19,-13,46,-34,-32,-82,2.794270861
14.955816,6,-19,-4,39,73,34,4,16,2.794270861
14.962703,83,82,16,-26,-73,-70,-1,-40,2.794270861
14.962727,-33,73,-43,-11,-39,20,-5,-36,2.794270861
14.978911,81,90,4,-5,-66,-57,30,81,2.794270861
14.978924,-15,85,1,-13,87,10,-8,4,2.794270861
14.980391,127,127,34,7,-12,18,-33,98,2.794270861
14.980409,-27,-14,-2,33,107,-36,11,-44,2.794270861
15.001630,-48,-95,-26,-44,-86,3,58,-46,2.794270861
15.001658,29,74,31,30,2,-35,-32,9,2.794270861
15.003118,-114,-65,-13,-6,-43,54,-48,-85,2.794270861
15.003133,-17,-28,10,-1,41,10,-6,65,2.794270861
15.016578,18,1,-3,-49,-38,0,-3,44,2.794270861
15.016622,67,7,12,29,80,-38,59,-9,2.794270861
15.022447,-43,-36,-20,-16,-47,23,0,-4,2.794270861
15.022464,-18,-19,-13,-8,-13,-26,-34,13,2.794270861
15.040129,-17,52,17,27,36,-65,32,-32,2.794270861
15.040173,23,34,-8,-59,-81,33,28,-91,2.794270861
15.040439,-80,-57,-9,-18,93,62,-11,-1,2.794270861
15.040449,11,53,-4,54,115,96,41,-63,2.794270861
15.061324,-1,63,16,-7,-53,-86,6,9,2.794270861
15.061340,11,-99,-30,0,40,20,-101,10,2.794270861
15.062943,-51,-12,-17,-11,-97,-52,10,-22,2.794270861
15.063018,37,59,34,12,76,44,-77,23,2.794270861
15.075027,-2,-53,5,0,-29,-59,16,-91,2.794270861
15.075047,2,-34,-17,-12,-78,4,14,26,2.794270861
15.086337,-40,3,-8,12,59,-32,-8,-7,2.794270861
15.086358,90,72,25,-27,-67,6,-11,40,2.794270861
15.099036,-65,-6,1,27,46,16,-21,34,2.878915547
15.099059,-68,-127,-10,-32,-45,-29,0,67,2.878915547
15.101481,99,18,-17,-22,72,-24,-4,-12,2.878915547
15.101499,8,31,-9,2,-23,57,1,3,2.878915547
15.121445,13,55,22,-1,108,-20,42,-42,2.878915547
15.121463,39,-23,14,35,22,56,40,10,2.878915547
15.122841,0,-72,-28,7,-48,14,-13,-23,2.878915547
15.122858,-115,-9,8,-43,-50,20,-12,-43,2.878915547
15.135217,113,-76,-11,0,79,-29,19,-19,2.878915547
15.135237,-95,37,9,4,5,-3,20,71,2.878915547
15.144312,53,30,-5,-3,-68,-26,32,10,2.878915547
15.144323,-92,-25,0,15,-21,-16,-2,-64,2.878915547
15.158179,-100,-91,-49,-22,-69,-18,-61,-41,2.878915547
15.158204,-8,41,4,-9,-26,12,10,-59,2.878915547
15.169453,71,80,14,-12,-69,-15,33,15,2.878915547
15.169477,-1,-108,5,56,-4,11,16,56,2.878915547
15.182438,19,96,4,5,33,-59,-61,68,2.878915547
15.182456,-44,-33,-11,22,107,100,-65,-29,2.878915547
15.182922,-36,-63,12,-41,-92,-104,62,-3,2.878915547
15.182937,57,34,1,14,79,-100,-38,56,2.878915547
15.195583,27,42,2,-4,-35,84,28,-14,2.878915547
15.195595,-16,-46,-9,6,-55,-1,30,-32,2.878915547
15.205634,-24,2,4,9,47,-4,-14,43,2.878915547
15.205647,79,19,1,-38,-85,-24,-29,-73,2.878915547
15.219096,-64,-97,-11,-1,19,30,-25,11,2.878915547
15.219121,-63,52,3,0,-30,10,42,42,2.878915547
15.221317,-12,12,0,15,-47,13,-13,-8,2.878915547
15.221337,50,4,2,-1,-6,-14,27,-17,2.878915547
15.241363,-52,47,-8,-10,-11,14,-6,-18,2.878915547
15.241378,21,-102,-28,-45,-72,-57,-32,-12,2.878915547
15.242853,29,0,-12,51,127,63,-48,-81,2.878915547
15.242870,16,95,41,44,65,24,67,35,2.878915547
15.256499,127,64,3,-60,-128,73,11,47,2.878915547
15.256511,-63,25,-4,-12,62,32,-39,-65,2.878915547
15.264916,16,8,-3,30,-7,1,-17,24,2.878915547
15.264924,-32,-34,-16,-27,-128,-36,-2,-23,2.878915547
15.279068,7,-46,2,-22,-4,107,-27,-20,2.878915547
15.279092,58,-25,0,45,72,-7,-11,7,2.878915547
15.280772,31,72,47,18,39,7,52,35,2.878915547
15.280783,-37,-17,-67,-54,-28,-16,-43,-60,2.878915547
15.304471,-2,-34,-3,16,-89,-36,29,-56,2.878915547
15.304490,23,127,15,-12,-52,-44,-35,78,2.878915547
15.304497,-23,-120,-15,3,14,-61,6,-2,2.878915547
15.304502,72,93,35,-1,64,-31,21,62,2.878915547
15.315278,12,57,-4,15,116,82,-56,-32,2.878915547
15.315295,11,76,-4,32,-92,9,5,-43,2.878915547
15.325842,17,38,10,34,78,83,72,24,2.878915547
15.325860,-43,-24,-6,23,28,-2,-42,-1,2.878915547
15.338890,-2,23,15,-13,-33,-67,-40,-32,2.878915547
15.338959,73,107,31,21,97,58,121,-60,2.878915547
15.341611,18,-71,-32,-35,53,-7,-45,75,2.878915547
15.341619,-76,-25,-25,-43,-109,-78,-19,-27,2.878915547
15.362005,-10,6,-2,-1,15,-22,45,19,2.945064764
15.362037,-33,-7,4,1,-105,-13,3,-22,2.945064764
15.364598,-9,40,12,-16,-68,-23,-23,7,2.945064764
15.364608,28,-69,-31,4,71,24,8,-16,2.945064764
15.375484,33,127,19,12,-8,-3,-7,44,2.945064764
15.375510,-14,37,-12,-23,33,-35,21,0,2.945064764
15.386257,21,26,4,-19,-68,2,-17,-22,2.945064764
15.386274,-19,-3,10,-16,42,-66,-20,-12,2.945064764
15.398788,-42,-80,-11,80,2,99,53,70,2.945064764
15.398831,120,9,8,-20,32,-29,-64,62,2.945064764
15.400294,-79,48,6,16,20,72,37,3,2.945064764
15.400329,4,3,-25,-35,-128,18,-31,-19,2.945064764
15.421429,75,-55,-26,-30,-46,-32,1,-32,2.945064764
15.421453,1,9,22,-27,-87,24,-1,13,2.945064764
15.423298,-58,1,-10,41,80,-79,-55,-85,2.945064764
15.423310,-14,112,24,-1,-60,35,14,37,2.945064764
15.435368,6,-69,17,13,-15,-12,-31,-13,2.945064764
15.435398,-97,-121,-39,-25,-63,-16,31,-49,2.945064764
15.445493,-86,-54,-5,-25,-94,-83,-44,-24,2.945064764
15.445504,-23,24,16,1,-16,88,26,18,2.945064764
15.460895,-36,62,-30,10,75,-128,40,-51,2.945064764
15.460952,-19,74,17,-72,54,96,30,-27,2.945064764
15.460955,15,58,3,41,127,-90,-16,76,2.945064764
15.460957,-36,-42,4,45,-8,-12,81,-22,2.945064764
15.481632,80,-35,-1,-10,13,64,-17,73,2.945064764
15.481662,-7,-128,-34,-2,-75,-18,-29,-44,2.945064764
15.483737,29,19,-11,-60,-128,4,42,-20,2.945064764
15.483748,-62,-102,-26,-44,-57,-41,-76,-52,2.945064764
15.512021,33,33,6,18,95,-4,-19,-85,2.945064764
15.512056,17,44,13,23,0,-25,16,21,2.945064764
15.514005,127,97,47,0,-15,22,28,88,2.945064764
15.514016,-16,-76,-59,7,11,-6,-35,-37,2.945064764
15.519928,-44,58,-1,-12,-18,-54,-30,60,2.945064764
15.519973,37,67,-1,-25,-87,-82,21,39,2.945064764
15.522260,34,73,9,53,-69,6,75,-76,2.945064764
15.522276,3,-4,10,-22,34,127,-27,27,2.945064764
15.541619,-67,-59,1,-2,-13,-55,104,-26,2.945064764
15.541713,57,84,-9,42,118,-49,-51,15,2.945064764
15.543107,-28,9,-12,-22,-9,47,1,-15,2.945064764
15.543133,46,70,23,8,-9,-10,36,103,2.945064764
15.564398,-83,-60,-1,9,79,54,-59,-13,2.945064764
15.564429,0,-51,10,8,-11,2,0,-26,2.945064764
15.567000,74,-57,-23,-40,10,27,-19,-70,2.945064764
15.567009,83,113,40,14,-20,8,3,11,2.945064764
15.579085,-21,-24,-34,15,39,-30,-29,-72,2.945064764
15.579109,34,-9,-2,-7,-70,68,64,-31,2.945064764
15.581305,60,40,3,16,49,-105,-42,44,2.945064764
15.581315,-6,-80,-24,-25,16,116,25,25,2.945064764
15.602482,60,50,21,-22,-13,-26,-10,11,3.016045161
15.602496,23,11,-14,-4,-37,77,5,45,3.016045161
15.603056,-65,47,-15,19,54,14,18,6,3.016045161
15.603072,52,81,31,-8,-60,-8,58,46,3.016045161
15.623933,75,-53,-9,-21,-73,-14,-20,-39,3.016045161
15.623956,-18,-64,-24,8,65,-5,-42,-17,3.016045161
15.625650,35,41,0,-13,-108,48,15,-7,3.016045161
15.625668,-29,1,3,14,109,-46,-48,-8,3.016045161
15.639028,-58,44,16,-25,-6,32,4,-49,3.016045161
15.639045,52,54,8,22,-63,-71,-25,-41,3.016045161
15.640804,-21,43,27,21,55,49,-34,-20,3.016045161
15.640816,127,33,0,47,119,24,-1,-17,3.016045161
15.663180,-49,26,-15,6,68,127,86,12,3.016045161
15.663191,14,26,4,-10,-72,-44,-37,38,3.016045161
15.663194,0,-73,-13,-37,-62,-59,-69,-23,3.016045161
15.663196,-64,38,17,35,71,-2,15,-37,3.016045161
15.684225,33,16,8,-14,-72,-5,-25,35,3.016045161
15.684254,80,127,38,33,68,4,47,61,3.016045161
15.686598,-70,-128,-59,-47,-26,37,-67,-22,3.016045161
15.686617,20,46,-19,12,-44,-82,-21,-18,3.016045161
15.698596,80,127,28,22,12,-35,25,92,3.016045161
15.698622,3,-73,-16,-22,95,25,-36,-34,3.016045161
15.705123,-10,-24,9,16,-85,31,52,15,3.016045161
15.705179,-36,30,1,-16,-79,-124,-12,34,3.016045161
15.721375,104,127,19,33,-37,2,47,57,3.016045161
15.721393,-128,-4,41,-35,-49,21,0,13,3.016045161
15.723092,63,-30,-33,34,127,79,9,-34,3.016045161
15.723109,29,64,12,-15,-15,-27,-9,-1,3.016045161
15.744038,-77,-59,-9,-8,-99,-16,-16,-58,3.016045161
15.744055,11,34,9,23,77,-28,13,36,3.016045161
15.745250,60,40,-11,10,75,-74,-7,72,3.016045161
15.745259,14,-19,9,-5,-86,20,52,-15,3.016045161
15.758175,11,-15,2,-29,-25,-52,-84,58,3.016045161
15.758196,-24,-36,-13,30,12,73,-25,-21,3.016045161
15.765326,-34,-65,-3,-61,-36,-23,42,-12,3.016045161
15.765358,-75,-89,-11,40,84,122,5,-29,3.016045161
15.782271,15,6,0,-23,-91,-1,38,2,3.016045161
15.782294,-34,-71,-30,15,-8,-82,-30,-69,3.016045161
15.784748,-12,39,25,31,44,53,65,81,3.016045161
15.784758,-19,-41,0,-34,-90,-65,1,-2,3.016045161
15.805288,71,98,11,10,92,74,17,7,3.016045161
15.805302,-31,-34,-44,-3,-72,-27,-37,-34,3.016045161
15.805389,75,36,2,-22,-4,-19,-9,27,3.016045161
15.805423,-49,55,1,-3,-40,-31,2,-15,3.016045161
15.819633,74,-6,3,22,36,-2,-8,35,3.016045161
15.819647,-33,96,24,-18,-59,9,59,23,3.016045161
15.825493,-15,84,-15,-4,-77,-41,-70,-34,3.016045161
15.825526,-69,-128,-38,-33,8,-53,18,-32,3.016045161
15.842018,-74,40,-12,-23,-19,83,-41,-63,3.016045161
15.842062,25,21,3,-16,12,15,80,0,3.016045161
15.844680,39,18,7,1,-128,77,25,38,3.016045161
15.844690,6,43,20,33,90,103,-60,5,3.016045161
15.864200,-81,29,-2,50,66,-41,85,-24,3.011006677
15.864243,-30,-67,-10,-25,59,-30,-63,-16,3.011006677
15.867459,-20,-83,-16,-21,9,5,4,-46,3.011006677
15.867470,106,17,10,-26,19,-25,-5,22,3.011006677
15.878334,16,-31,-3,-12,-65,10,-34,25,3.011006677
15.878351,-30,14,10,15,46,6,14,17,3.011006677
15.885371,-5,51,18,8,29,-38,4,4,3.011006677
15.887824,35,-11,-1,-14,13,6,-15,-12,3.011006677
15.901952,53,36,-28,-21,-39,-54,-3,31,3.011006677
15.901995,-38,45,4,7,32,-12,-50,30,3.011006677
15.903189,-12,-20,3,24,39,-57,-28,-4,3.011006677
15.903220,82,29,17,-40,-72,-49,31,96,3.011006677
15.923936,-8,0,14,37,18,11,-11,-32,3.011006677
15.923955,127,83,10,-49,-50,19,7,-14,3.011006677
15.926161,-128,-88,-15,16,-4,11,8,-8,3.011006677
15.926174,32,29,-6,84,90,70,22,-12,3.011006677
15.938290,-21,-10,-2,3,95,-22,17,13,3.011006677
15.938315,29,-70,6,1,-108,42,-15,-4,3.011006677
15.945199,26,20,9,-43,-1,-76,-26,-46,3.011006677
15.945218,85,64,-1,-34,-117,26,-2,-10,3.011006677
15.961596,-65,-21,-11,-8,-28,30,-22,-11,3.011006677
15.961651,11,-51,-9,11,9,-1,11,-19,3.011006677
15.962834,57,70,-37,-16,-13,-5,7,22,3.011006677
15.962870,91,39,-1,16,6,-27,-1,-24,3.011006677
15.983971,48,32,18,2,22,-16,-4,-41,3.011006677
15.983987,10,54,11,2,33,-23,-44,38,3.011006677
15.986435,-17,-94,-3,-12,-103,-11,-5,-15,3.011006677
15.986447,-45,-33,-15,-27,0,-9,29,-4,3.011006677
15.998306,-1,0,23,49,1,-42,14,-6,3.011006677
15.998335,0,-35,-15,-17,-9,-12,11,24,3.011006677
16.006446,-93,-21,13,18,113,105,17,-33,3.011006677
16.006491,38,-56,-12,40,43,-58,-28,-44,3.011006677
16.029038,10,26,-12,-23,102,118,-41,-9,3.011006677
16.029061,35,-33,-23,-30,-86,-121,36,-8,3.011006677
16.030713,53,127,25,25,127,110,37,-20,3.011006677
16.030721,3,-27,3,6,67,32,-32,-72,3.011006677
16.044001,-15,-90,3,-23,-98,-92,-39,22,3.011006677
16.044067,40,-86,-53,11,64,16,34,37,3.011006677
16.045932,-20,116,25,-8,-64,19,32,-73,3.011006677
16.045945,29,70,9,-3,-110,-41,-16,24,3.011006677
16.057681,5,43,1,16,9,5,3,-19,3.011006677
16.057712,-65,31,16,-12,-15,32,-4,5,3.011006677
16.068575,-13,-71,-10,15,72,-37,-22,-25,3.011006677
16.068590,-59,-14,6,-14,-74,24,14,46,3.011006677
16.081747,17,-25,-13,-12,-35,-35,-28,9,3.011006677
16.081771,-5,-10,12,52,76,14,11,-28,3.011006677
16.083704,7,-19,-4,-47,-74,-44,20,34,3.011006677
16.083715,34,112,13,-21,9,87,-77,8,3.011006677
16.104091,-67,-89,-56,7,90,96,50,11,3.011006677
16.104180,35,57,7,45,25,-39,-7,18,3.011006677
16.106037,24,53,7,-17,-10,-59,-27,38,3.011006677
16.106050,-65,-10,2,-18,45,32,76,8,3.011006677
16.117647,-2,76,32,-21,-8,-8,-5,4,2.956457683
16.117685,26,-14,-41,-27,-5,23,-23,81,2.956457683
16.129124,50,-2,-7,19,39,-34,-7,48,2.956457683
16.129136,-123,21,4,-25,-73,-42,-37,17,2.956457683
16.140699,39,1,7,-8,25,-14,-35,-9,2.956457683
16.143059,-40,45,13,8,-34,13,47,-39,2.956457683
16.143072,53,26,18,23,-95,14,-37,63,2.956457683
16.143074,8,-96,-31,1,-29,-112,5,-33,2.956457683
16.163248,86,4,-18,22,0,71,30,-21,2.956457683
16.163260,-28,91,29,-11,63,80,-25,19,2.956457683
16.163781,-91,-72,-7,41,6,-30,38,-51,2.956457683
16.163816,21,20,3,8,-7,65,6,0,2.956457683
16.186018,-70,92,17,-7,-28,-66,-5,16,2.956457683
16.186044,50,-118,-37,-60,-128,-68,-7,21,2.956457683
16.188158,-61,80,-9,-16,37,42,-5,-54,2.956457683
16.188175,-89,73,15,40,123,49,-28,5,2.956457683
16.201160,-15,-75,-25,-22,-46,-81,2,-34,2.956457683
16.201173,34,85,26,20,-32,27,22,3,2.956457683
16.201628,-5,16,-2,-17,-28,-7,-6,-1,2.956457683
16.201644,29,-49,0,-22,-81,3,35,46,2.956457683
16.223620,-12,-81,-8,-21,-36,101,-20,10,2.956457683
16.223631,1,8,4,-8,-17,-68,29,-26,2.956457683
16.223887,22,-69,-12,29,121,27,-31,12,2.956457683
16.223941,6,-2,1,-23,-53,31,63,-18,2.956457683
16.246042,-2,-1,3,-16,25,-55,-65,-20,2.956457683
16.246073,-48,-20,5,-8,-28,26,-10,1,2.956457683
16.248835,-94,68,17,21,-8,-34,13,-26,2.956457683
16.248844,2,-105,-45,-35,-29,22,17,-74,2.956457683
16.261311,29,35,3,-9,69,-55,-7,33,2.956457683
16.261335,-51,6,4,-7,-8,-38,-35,-27,2.956457683
16.263483,-53,36,5,6,10,19,2,-32,2.956457683
16.263500,-1,-48,-7,14,30,-30,-8,38,2.956457683
16.285216,7,15,-8,-22,-91,-18,-1,-30,2.956457683
16.285229,47,85,11,5,110,71,25,17,2.956457683
16.285231,36,-84,3,3,-69,-21,-52,-20,2.956457683
16.285234,76,43,8,-3,57,-80,-9,13,2.956457683
16.305706,-73,-15,3,35,-18,-34,2,60,2.956457683
16.305724,-50,43,-11,19,118,72,44,-20,2.956457683
16.307548,63,16,-13,-107,-89,-38,-15,-13,2.956457683
16.307560,-9,48,16,91,127,83,-2,-1,2.956457683
16.320845,13,15,15,-23,-79,-37,40,-23,2.956457683
16.320863,66,-32,0,20,55,-34,-34,-17,2.956457683
16.322873,-32,-44,-5,8,31,-35,44,17,2.956457683
16.322897,60,75,16,-5,-12,-32,48,8,2.956457683
16.343864,-46,-10,-11,-11,-62,4,-3,103,2.956457683
16.343903,44,-60,-17,9,-44,-10,-27,-61,2.956457683
16.346230,85,50,-9,-7,1,28,43,24,2.956457683
16.346240,3,53,12,-21,-27,-26,-26,68,2.956457683
16.366107,64,-79,12,31,29,34,3,-51,2.956457683
16.366133,20,-16,-26,-52,-98,-50,-21,-83,2.956457683
16.366391,24,45,3,-9,30,28,-19,15,2.956457683
16.366455,83,68,18,53,95,-45,77,-37,2.956457683
16.381249,69,-48,-15,43,-44,42,-41,-36,2.950062686
16.381281,19,28,-9,-31,-64,0,23,13,2.950062686
16.383431,123,119,67,16,-123,-55,-17,28,2.950062686
16.383440,-80,-125,-91,-15,69,94,-96,-90,2.950062686
16.403355,-21,9,-27,-48,-59,-16,69,-57,2.950062686
16.403381,81,90,46,28,83,22,-7,-6,2.950062686
16.405029,56,40,-12,21,56,26,-15,63,2.950062686
16.405039,-54,76,19,-19,-122,14,-18,36,2.950062686
16.425781,1,-31,0,33,89,-11,-40,72,2.950062686
16.425798,-128,0,-18,5,-24,17,-31,-57,2.950062686
16.426504,1,3,9,-22,-59,-6,22,-21,2.950062686
16.426521,30,-27,9,-10,-33,-32,0,15,2.950062686
16.440712,-51,9,-7,-6,24,44,-4,15,2.950062686
16.440732,23,15,6,-18,-43,-35,-31,15,2.950062686
16.441560,-102,-71,-40,-74,12,-61,-9,-70,2.950062686
16.441578,-77,-84,-5,53,-99,-71,-15,-14,2.950062686
16.463430,13,43,0,15,-71,87,53,-15,2.950062686
16.463462,20,-32,21,34,94,5,31,48,2.950062686
16.465481,-62,-32,-20,-21,-58,3,24,-26,2.950062686
16.465488,36,7,-3,-39,-33,-60,-54,19,2.950062686
16.485719,-19,127,38,11,67,32,-9,-36,2.950062686
16.485744,-32,-128,-59,2,43,-61,7,-24,2.950062686
16.486562,-46,88,-13,20,-21,55,-40,26,2.950062686
16.486583,72,117,40,-9,-9,-3,31,55,2.950062686
16.500776,-78,-65,-42,-37,-58,-56,-29,-47,2.950062686
16.500799,7,-30,4,37,40,36,-1,53,2.950062686
16.501338,94,23,3,13,67,28,1,5,2.950062686
16.501348,41,64,-2,-38,-90,-18,9,-38,2.950062686
16.523116,-20,15,24,26,54,-20,-19,1,2.950062686
16.523133,-19,39,13,27,51,26,7,-14,2.950062686
16.524861,-24,-103,-35,-45,-46,-14,-19,12,2.950062686
16.524872,-70,-87,20,84,127,3,74,12,2.950062686
16.546482,116,-7,-13,-26,71,89,-31,9,2.950062686
16.546521,-9,20,4,-15,-66,-21,3,28,2.950062686
16.553230,-37,-81,12,32,-8,-51,35,-34,2.950062686
16.553252,64,84,25,-11,-87,15,0,-30,2.950062686
16.561766,3,-46,-43,-17,-7,33,-34,17,2.950062686
16.561776,-41,106,16,27,56,-41,11,-17,2.950062686
16.561779,25,93,15,11,0,53,6,11,2.950062686
16.561782,-36,-10,-25,-38,26,16,-29,-16,2.950062686
16.583706,60,35,13,-21,-113,-45,7,-17,2.950062686
16.583735,26,14,18,-37,-85,-12,-59,40,2.950062686
16.586563,16,-54,-2,93,127,-45,-8,-21,2.950062686
16.586578,-55,-86,-25,-18,19,60,-17,-10,2.950062686
16.605758,33,52,20,4,27,-73,55,1,2.950062686
16.605775,-14,17,-6,-40,-65,-31,-13,-53,2.950062686
16.608104,-14,-23,-4,3,-74,-45,-60,73,2.950062686
16.608116,-29,20,14,-30,17,72,35,45,2.950062686
16.620901,-73,-5,-16,-10,73,2,-4,-49,2.950062686
16.620921,-59,-68,-6,25,7,8,-12,-16,2.950062686
16.623092,74,29,1,-7,-9,10,17,8,2.950062686
16.623107,47,113,8,-8,-44,-24,4,-34,2.950062686
16.643396,-65,-69,3,-29,-1,-19,26,28,2.952694592
16.643417,0,8,0,20,-40,1,2,11,2.952694592
16.643782,-39,43,16,-2,81,22,8,-4,2.952694592
16.643795,-27,-95,-30,-47,-45,41,1,-28,2.952694592
16.666141,71,127,50,96,28,-55,6,18,2.952694592
16.666165,-69,-53,-5,2,-13,84,0,17,2.952694592
16.668584,35,-76,-20,4,60,36,51,31,2.952694592
16.668599,-8,33,-6,-25,51,-104,-90,28,2.952694592
16.681099,7,3,-2,-21,-42,-9,72,-18,2.952694592
16.681123,39,33,12,1,-105,-25,3,46,2.952694592
16.683326,-19,3,-11,-23,-14,-8,46,-24,2.952694592
16.683342,26,90,29,25,79,53,-4,86,2.952694592
16.703387,30,-50,-25,-10,5,-17,-51,-57,2.952694592
16.703405,-56,18,-2,-26,-8,5,36,21,2.952694592
16.704031,1,-3,0,-3,5,8,-59,-50,2.952694592
16.704044,63,-6,0,27,-13,-17,19,-8,2.952694592
16.725723,-14,32,18,-30,-30,0,-48,36,2.952694592
16.725748,-26,-43,4,-12,-32,-30,20,37,2.952694592
16.726897,16,-40,0,13,90,-5,-49,-37,2.952694592
16.726908,-58,-9,5,51,-68,50,54,6,2.952694592
16.740859,37,59,1,-62,-95,-68,-12,21,2.952694592
16.740883,-65,2,-16,51,110,47,32,-64,2.952694592
16.742657,-59,-64,-19,-27,-33,4,5,-10,2.952694592
16.742667,92,56,-3,8,33,-10,2,-100,2.952694592
16.765560,-43,-61,-1,2,5,40,20,18,2.952694592
16.765572,94,127,19,-26,-40,-6,-32,16,2.952694592
16.765574,-84,-64,-22,-4,-106,5,30,-35,2.952694592
16.765577,85,-38,-29,-8,101,-3,-11,-13,2.952694592
16.786328,-47,27,7,-9,-107,-2,2,7,2.952694592
16.786373,14,-16,-7,-24,7,-23,12,35,2.952694592
16.788605,-7,51,28,39,-3,94,-7,63,2.952694592
16.788617,-33,-42,-7,-29,-105,-52,5,-29,2.952694592
16.800794,-14,14,-17,-33,22,-57,-47,-25,2.952694592
16.803052,36,-58,1,56,53,87,-4,57,2.952694592
16.803068,56,87,6,1,38,10,19,-45,2.952694592
16.803071,17,8,2,1,-95,-64,-36,53,2.952694592
16.823258,-45,-81,-4,-18,20,127,14,-28,2.952694592
16.823275,10,19,-1,18,27,-46,28,-59,2.952694592
16.825254,27,31,-4,-21,22,-16,-39,22,2.952694592
16.825272,29,-7,12,23,-15,-17,12,44,2.952694592
16.845817,-56,52,-3,4,-34,19,23,-26,2.952694592
16.845837,-4,7,2,-35,-117,31,11,-54,2.952694592
16.846343,-14,-8,-12,45,107,14,-34,26,2.952694592
16.846358,15,33,6,-69,-20,-8,25,-6,2.952694592
16.860940,-56,-45,-9,-2,101,-4,21,-19,2.952694592
16.860965,79,99,34,86,26,2,-31,-5,2.952694592
16.863461,0,-15,-10,8,-14,49,-3,-33,2.952694592
16.863471,-30,29,-5,-11,-46,9,-23,-6,2.952694592
16.883495,84,-6,-4,-6,-84,-86,-5,102,2.878843435
16.883528,22,23,-10,-44,11,-7,-28,-5,2.878843435
16.886410,-24,42,17,-19,-43,53,61,-49,2.878843435
16.886425,15,87,14,18,83,4,-29,-25,2.878843435
16.906237,-31,-98,-21,3,-50,-45,-20,33,2.878843435
16.906269,6,30,-6,-17,-15,-42,-22,-27,2.878843435
16.906828,5,-35,5,-3,-34,-37,15,9,2.878843435
16.906838,-92,-128,-33,-39,91,88,-9,-34,2.878843435
16.921068,102,1,10,49,87,-83,45,40,2.878843435
16.921121,-31,-58,-15,-19,2,-58,20,19,2.878843435
16.923169,33,103,9,-10,-102,56,-13,5,2.878843435
16.923186,-12,15,11,-30,-24,-76,38,-28,2.878843435
16.943729,36,40,5,99,127,118,6,-59,2.878843435
16.943762,-6,-127,-14,-32,-92,-13,-46,52,2.878843435
16.945927,75,36,-6,-24,-71,-56,7,20,2.878843435
16.945938,-9,62,1,14,-82,-35,22,-16,2.878843435
16.966697,62,94,9,-17,-47,-9,-26,0,2.878843435
16.966707,-2,44,3,5,64,38,11,-8,2.878843435
16.966755,-43,-38,7,-24,-79,-19,-23,-53,2.878843435
16.966757,65,-104,-16,10,-99,-20,16,-2,2.878843435
16.981837,-44,-89,-28,-17,7,-49,0,-2,2.878843435
16.981853,103,53,-12,2,-75,36,-56,-16,2.878843435
16.981859,-42,-20,-3,9,-7,-64,-47,26,2.878843435
16.981864,-29,63,26,16,2,78,83,-4,2.878843435
17.003167,-36,69,15,45,54,63,-17,-48,2.878843435
17.003189,23,32,-7,-34,22,-85,-4,-81,2.878843435
17.005164,-26,-69,-23,28,113,36,15,69,2.878843435
17.005178,-25,20,-24,-33,-23,-42,-42,9,2.878843435
17.025926,2,84,13,-24,-49,42,12,-31,2.878843435
17.025952,-39,-46,-1,-10,58,13,38,-44,2.878843435
17.028305,21,28,11,-5,-36,-54,-34,3,2.878843435
17.028316,-91,-8,11,23,52,-16,-21,-59,2.878843435
17.040215,17,-84,-17,-30,-96,13,-1,46,2.878843435
17.040289,-11,38,12,19,92,33,-16,-16,2.878843435
17.048636,-22,-19,10,-14,-17,-104,25,-18,2.878843435
17.048659,40,30,-17,-4,-31,30,27,82,2.878843435
17.063378,-4,76,19,12,4,-3,-90,-13,2.878843435
17.063405,5,-63,15,22,47,14,89,74,2.878843435
17.064159,-56,-128,-67,-60,-55,-28,-35,-77,2.878843435
17.064185,69,45,-1,-39,-22,53,-15,11,2.878843435
17.085875,-46,61,0,41,78,-116,-43,-29,2.878843435
17.085894,54,115,40,39,23,124,85,109,2.878843435
17.088191,-16,-18,-14,-20,3,22,5,-43,2.878843435
17.088204,48,-20,-7,9,125,54,-19,56,2.878843435
17.109352,19,6,7,37,-13,-47,7,7,2.878843435
17.109380,-14,-23,-5,-4,27,-26,-35,-30,2.878843435
17.109817,13,41,16,16,-57,-20,40,33,2.878843435
17.109888,-106,-45,-5,-28,-111,9,-10,-74,2.878843435
17.123331,-73,-57,-5,-12,36,-21,24,-18,2.878843435
17.123357,40,-29,-18,-10,-61,-29,-20,-4,2.878843435
17.124073,47,76,7,-34,-65,59,-29,62,2.878843435
17.124095,53,-55,5,66,125,-100,-30,-30,2.878843435
17.145786,115,13,7,-15,23,79,74,41,2.909452886
17.145807,-128,-128,-49,8,-21,-43,-45,-71,2.909452886
17.147141,31,67,-1,-26,-78,56,-9,-20,2.909452886
17.147158,-45,29,39,75,92,23,65,38,2.909452886
17.160177,-48,-46,-21,-48,-112,57,-62,20,2.909452886
17.160200,-64,-5,1,-5,-88,84,44,-48,2.909452886
17.168379,52,21,1,38,127,87,40,20,2.909452886
17.168402,-32,-61,-3,2,23,-64,-64,-25,2.909452886
17.183394,40,-45,-3,-35,-69,18,15,-58,2.909452886
17.183418,9,-18,2,6,-42,-79,-55,34,2.909452886
17.184617,2,9,7,-9,-3,-39,-10,-4,2.909452886
17.184636,25,18,-8,-7,-47,6,-3,-12,2.909452886
17.205685,-7,31,0,3,37,7,22,-23,2.909452886
17.205710,-7,97,6,-36,-38,-22,1,-22,2.909452886
17.206454,121,-80,-16,-7,28,-36,-15,-55,2.909452886
17.206538,-78,-96,-33,-34,11,-28,-30,-20,2.909452886
17.220358,83,82,18,51,74,24,49,-32,2.909452886
17.220478,57,117,37,19,127,45,46,22,2.909452886
17.228268,-41,19,0,48,-60,-84,5,15,2.909452886
17.229924,-57,-50,-35,-11,-53,86,-2,-61,2.909452886
17.243817,38,29,18,9,4,-36,-19,31,2.909452886
17.243842,-28,63,-18,-62,-106,10,40,-39,2.909452886
17.245631,-61,-56,-3,42,39,-73,-50,-44,2.909452886
17.245646,30,46,3,-16,14,79,29,58,2.909452886
17.267175,-49,17,-3,-6,-54,-13,-6,-8,2.909452886
17.267185,40,49,13,3,-71,-1,-36,-20,2.909452886
17.267187,39,-17,6,-20,70,7,54,40,2.909452886
17.267190,-42,-9,-12,-4,-15,-2,-12,-52,2.909452886
17.289048,-7,-22,-1,2,-6,13,12,22,2.909452886
17.289078,12,-11,-5,-30,-3,-26,-23,-1,2.909452886
17.290977,-30,-28,14,24,-29,-15,22,4,2.909452886
17.290990,-40,11,-3,-11,-74,4,-48,0,2.909452886
17.303801,59,-74,-4,65,123,49,23,88,2.909452886
17.303821,5,-117,5,-14,-107,33,39,6,2.909452886
17.306026,-5,127,18,-4,50,72,43,9,2.909452886
17.306040,127,7,8,25,116,105,-48,72,2.909452886
17.326172,-105,-13,3,-30,-1,-48,74,-21,2.909452886
17.326198,53,-53,14,36,22,-19,46,83,2.909452886
17.327997,6,-35,-8,9,40,3,-20,-6,2.909452886
17.328008,48,75,5,-51,-128,-87,53,-36,2.909452886
17.349113,-80,-25,-27,-30,-26,38,-106,-67,2.909452886
17.349140,41,-48,10,3,63,-73,-22,46,2.909452886
17.351070,-20,4,-23,-25,-75,113,14,-34,2.909452886
17.351081,-32,29,-3,-30,-101,-63,-16,12,2.909452886
17.363552,37,50,18,44,61,-73,-7,-12,2.909452886
17.363582,-1,115,5,8,-30,27,9,2,2.909452886
17.364089,-30,-70,-26,-54,-123,-29,-5,40,2.909452886
17.364105,91,12,-17,56,127,-16,-24,-5,2.909452886
17.386210,102,126,31,-53,-128,-13,39,13,2.909452886
17.388132,26,-114,-49,92,127,-4,-113,-2,2.909452886
17.388144,25,90,25,7,26,-48,-17,-8,2.909452886
17.388147,21,81,23,37,-33,42,22,20,2.909452886
17.409138,-57,-95,-49,-60,47,-128,-20,-40,2.916393192
17.409156,24,65,8,-15,-57,68,-5,-7,2.916393192
17.409770,40,15,8,-17,-23,-22,16,-7,2.916393192
17.409807,-16,41,8,-4,41,-40,-12,16,2.916393192
17.423150,43,5,11,19,7,42,-12,58,2.916393192
17.423164,-52,-59,-8,-33,-39,-14,5,-18,2.916393192
17.423807,14,11,1,-33,-49,-6,-10,70,2.916393192
17.423817,-3,-2,5,44,77,39,20,-17,2.916393192
17.446376,-41,29,13,0,-128,-68,-25,-53,2.916393192
17.446419,-37,-124,-44,-11,66,72,-64,-38,2.916393192
17.449014,1,56,12,29,20,31,33,-5,2.916393192
17.449024,-13,-30,-15,-20,34,90,-25,-5,2.916393192
17.470696,88,14,-7,3,-30,3,26,61,2.916393192
17.470756,10,-18,17,7,51,-23,23,-36,2.916393192
17.470759,-61,111,18,-5,46,1,-43,-33,2.916393192
17.470761,63,-50,-5,-17,-57,-48,22,7,2.916393192
17.483581,51,-85,-4,1,-23,34,-27,-83,2.916393192
17.483609,10,-24,-10,-21,-37,-29,22,21,2.916393192
17.486188,-17,-19,17,28,105,36,17,-38,2.916393192
17.486200,14,-116,-28,-9,-52,-25,-7,18,2.916393192
17.505733,-14,127,11,23,64,22,-7,5,2.916393192
17.505750,-70,-45,-4,-85,-84,-78,49,-59,2.916393192
17.506457,4,19,1,97,104,91,56,-25,2.916393192
17.506471,-65,-29,13,-14,-44,-119,-8,8,2.916393192
17.529376,0,-38,-12,-29,-25,127,44,-12,2.916393192
17.529400,-25,58,2,17,6,-33,61,27,2.916393192
17.531547,55,1,-2,-25,38,0,4,33,2.916393192
17.531558,-27,35,9,9,-58,-33,-31,-31,2.916393192
17.543276,5,-19,-10,2,-78,26,-31,-9,2.916393192
17.543351,-22,111,15,25,106,3,52,18,2.916393192
17.544708,9,-62,-14,-27,-101,-22,-32,37,2.916393192
17.544719,-32,57,-1,6,34,-5,34,-25,2.916393192
17.565888,-30,-80,1,-19,-18,-12,-19,20,2.916393192
17.565993,-9,110,23,0,-54,23,-15,-17,2.916393192
17.566386,80,-62,-51,-26,42,-49,-12,-65,2.916393192
17.566424,5,19,1,7,49,44,48,104,2.916393192
17.588946,54,86,9,16,-76,-38,-34,-5,2.916393192
17.588963,22,73,-6,33,115,-46,-5,3,2.916393192
17.590400,-75,-64,-4,6,38,31,18,15,2.916393192
17.590414,-42,-23,-2,-20,-53,-79,-21,-52,2.916393192
17.603229,78,50,1,-82,7,85,22,26,2.916393192
17.605831,21,101,32,88,49,91,-42,53,2.916393192
17.605843,-43,-86,-8,16,-121,-25,-50,-21,2.916393192
17.605846,92,16,-8,8,-68,-55,12,0,2.916393192
17.626092,-105,-27,-2,-12,-6,-39,14,-3,2.916393192
17.626121,4,-11,-19,-69,-73,-10,-39,-10,2.916393192
17.626756,73,58,17,-3,21,9,26,10,2.916393192
17.626881,-18,107,39,35,50,25,-53,23,2.916393192
17.648978,-108,-109,-46,-28,3,-27,2,2,2.885071684
17.648996,42,-37,-10,-11,-23,-25,-41,-1,2.885071684
17.650867,-52,62,11,-38,-98,16,0,-24,2.885071684
17.650877,-87,-112,-3,49,95,-54,-28,-61,2.885071684
17.664185,-6,-16,-14,12,85,105,39,-14,2.885071684
17.664216,8,-74,-6,-2,-57,-30,-9,-2,2.885071684
17.666756,-40,9,-12,-67,-128,-115,-45,-23,2.885071684
17.666767,53,64,31,54,91,127,103,33,2.885071684
17.685595,6,-45,7,31,23,-79,36,-20,2.885071684
17.685614,45,17,-4,-14,-51,2,-27,-30,2.885071684
17.686427,49,-16,-15,-31,23,54,44,-9,2.885071684
17.686445,-52,24,-2,22,-19,28,-85,-42,2.885071684
17.708912,-81,96,21,50,50,-11,34,-25,2.885071684
17.708931,118,-7,11,-12,-101,-21,7,60,2.885071684
17.710604,-23,17,11,1,30,35,-12,0,2.885071684
17.710619,-15,-69,-13,-38,-39,-18,-1,-24,2.885071684
17.731658,-47,71,22,13,17,5,-24,-11,2.885071684
17.731673,35,-24,-18,-8,6,-36,-22,0,2.885071684
17.732074,-36,-21,-17,-13,57,28,-16,15,2.885071684
17.732090,69,-41,-7,17,20,10,38,15,2.885071684
17.745623,27,111,11,-30,-25,-11,-36,-4,2.885071684
17.745638,-12,45,-2,-49,69,38,1,11,2.885071684
17.746282,11,-86,-8,81,89,-9,49,-1,2.885071684
17.746291,45,58,6,-18,14,60,65,39,2.885071684
17.769445,33,-55,-21,-47,-89,-81,-12,18,2.885071684
17.769471,-2,-40,-17,27,119,52,-53,-64,2.885071684
17.771949,-18,75,25,18,-63,-69,59,109,2.885071684
17.771970,-37,-76,-33,-50,-53,-31,-95,-39,2.885071684
17.783630,32,-1,6,-2,-51,7,33,-25,2.885071684
17.783662,-104,-81,-27,-35,-88,31,69,13,2.885071684
17.785967,-1,-49,-3,0,-20,-25,-23,-26,2.885071684
17.785980,112,50,17,0,-7,-23,3,-20,2.885071684
17.805837,-26,-81,2,14,52,5,-11,17,2.885071684
17.805855,-85,-68,-24,-18,-88,-30,-12,-59,2.885071684
17.807954,58,27,7,46,101,66,-4,-17,2.885071684
17.807967,-46,31,6,-76,-116,-43,19,20,2.885071684
17.829229,64,48,1,60,31,-16,-28,-6,2.885071684
17.829259,-88,-52,-5,-17,-10,32,-20,-24,2.885071684
17.831837,1,56,-7,49,-67,40,15,32,2.885071684
17.831847,0,-35,-10,-15,-38,-59,-63,-3,2.885071684
17.842675,24,47,11,-4,5,22,-41,15,2.885071684
17.842691,21,1,20,24,28,-11,70,40,2.885071684
17.851369,38,96,13,-43,-58,-7,-10,29,2.885071684
17.851396,-38,-40,-47,-23,-3,-30,-20,-64,2.885071684
17.866101,32,42,-5,-2,23,3,-2,15,2.885071684
17.866133,44,18,31,48,81,-5,7,51,2.885071684
17.868742,127,17,26,-60,-111,10,-34,12,2.885071684
17.868755,-8,-5,-12,24,107,11,40,53,2.885071684
17.888882,41,50,-7,33,-12,15,23,-8,2.885071684
17.888895,84,-20,2,-31,-65,-24,2,-5,2.885071684
17.889670,-78,93,23,-28,54,-44,-3,-13,2.885071684
17.889682,-33,-101,-12,91,55,60,-15,8,2.885071684
17.904432,58,-31,10,-18,20,5,92,40,2.885071684
17.904445,75,63,1,-15,-21,-109,-53,-45,2.885071684
17.904448,10,45,2,30,70,86,27,-42,2.885071684
17.904450,10,62,3,-64,-106,-7,19,2,2.876689238
17.925825,-52,49,7,26,47,-31,-38,-12,2.876689238
17.925844,73,-40,-1,19,-71,4,10,-35,2.876689238
17.926948,-56,-61,-13,-8,15,-52,-15,3,2.876689238
17.926959,42,39,10,-8,34,17,-5,78,2.876689238
17.951287,-16,-23,9,-2,-36,22,8,-63,2.876689238
17.951300,21,127,25,0,24,-20,2,58,2.876689238
17.951302,-125,-128,-69,16,25,-15,-63,-104,2.876689238
17.951304,29,3,-7,-58,-74,41,19,1,2.876689238
17.963567,32,57,-7,-4,20,-72,-33,15,2.876689238
17.963691,-90,14,2,39,50,102,-28,-28,2.876689238
17.966023,18,-20,8,-10,96,23,10,-3,2.876689238
17.966041,64,112,23,12,-99,2,32,-23,2.876689238
17.986229,-57,-21,1,-22,127,34,-34,-2,2.876689238
17.986272,-64,45,-31,-4,18,81,83,-56,2.876689238
17.988963,52,98,16,15,-73,-82,-35,-13,2.876689238
17.988978,41,-44,2,-24,16,26,23,2,2.876689238
18.009476,-40,13,-3,-23,-71,-48,-69,42,2.876689238
18.009493,-97,-107,-12,10,-21,-4,38,19,2.876689238
18.011429,38,20,12,-10,-80,-15,6,50,2.876689238
18.011441,-34,-99,-14,-4,35,13,4,-63,2.876689238
18.022599,-47,-1,-9,-6,-37,-5,-14,-63,2.876689238
18.024854,65,10,1,14,41,-5,-22,7,2.876689238
18.030859,7,31,-14,-18,-5,34,1,-7,2.876689238
18.030882,22,79,15,12,72,-97,13,-18,2.876689238
18.045782,-1,-60,-44,3,103,127,-34,-23,2.876689238
18.045828,-6,104,5,8,7,54,24,5,2.876689238
18.046416,9,-109,2,-6,-76,-82,11,16,2.876689238
18.046457,16,112,20,18,-26,108,51,28,2.876689238
18.069299,18,-63,-3,-22,-10,-15,31,-13,2.876689238
18.069319,-19,-4,-1,-6,-13,-70,-19,53,2.876689238
18.071779,48,23,11,13,0,12,-4,27,2.876689238
18.071793,-92,60,1,-13,-96,-57,-19,-8,2.876689238
18.083143,-53,-81,-8,-1,47,91,-22,101,2.876689238
18.083186,-121,-107,-58,-17,-43,-59,-72,-102,2.876689238
18.090656,-29,113,-10,-17,6,-29,21,-56,2.876689238
18.090673,30,69,4,-6,-6,36,-36,2,2.876689238
18.106046,21,-44,8,45,-27,-6,43,-3,2.876689238
18.106070,80,38,16,3,67,17,15,11,2.876689238
18.106482,-36,-25,4,7,-42,-16,-12,10,2.876689238
18.106497,53,87,6,-62,-65,-118,17,-7,2.876689238
18.129841,19,53,-4,33,0,95,-55,-49,2.876689238
18.129885,32,-10,14,22,-54,50,-41,0,2.876689238
18.129893,-14,-69,-37,5,37,87,58,16,2.876689238
18.129901,49,36,2,43,-33,45,-49,-9,2.876689238
18.143033,47,-13,2,-18,-113,24,87,103,2.876689238
18.143057,-22,-4,8,-13,-31,-56,-13,-9,2.876689238
18.151071,-29,30,14,-14,-17,-5,-14,25,2.876689238
18.151102,-37,-84,-3,7,25,21,3,42,2.876689238
18.166352,-2,57,7,-3,-9,-64,-13,19,2.859852238
18.166396,-101,-66,-8,-19,-23,10,1,-73,2.859852238
18.168672,-30,112,17,2,0,-66,5,-51,2.859852238
18.168685,-22,-128,-40,-33,48,-27,22,7,2.859852238
18.188932,18,-3,-21,-25,-7,-17,-43,-57,2.859852238
18.188950,28,107,11,-10,-45,85,62,34,2.859852238
18.191151,70,32,23,43,118,41,29,23,2.859852238
18.191169,-53,39,16,97,28,41,41,-16,2.859852238
18.202752,42,82,11,-13,-124,85,-11,-21,2.859852238
18.202784,30,-50,-4,-7,-66,-104,4,26,2.859852238
18.210855,-11,-46,-13,-29,-37,19,-20,-8,2.859852238
18.210878,-14,-24,-3,-22,15,48,-10,-63,2.859852238
18.226125,-7,-28,2,2,35,-50,11,-42,2.859852238
18.226150,127,127,30,-16,20,-52,18,31,2.859852238
18.228280,-55,-117,-27,5,49,-5,10,47,2.859852238
18.228290,-89,-42,-14,-58,14,54,-83,-48,2.859852238
18.249536,-108,-96,-31,24,-65,-128,72,-56,2.859852238
18.249571,46,-45,-14,10,6,34,-40,19,2.859852238
18.249840,51,49,21,13,2,-36,3,-21,2.859852238
18.249865,44,95,10,12,18,1,-17,26,2.859852238
18.262418,-5,45,17,-16,24,-11,10,20,2.859852238
18.262428,-37,8,0,-9,-26,11,7,-7,2.859852238
18.270884,48,12,5,-56,-65,-77,-7,25,2.859852238
18.270902,-5,-40,5,96,91,48,-11,-37,2.859852238
18.286236,15,47,11,8,5,46,-26,6,2.859852238
18.286282,-47,-60,-25,-52,-33,-76,18,42,2.859852238
18.288926,119,123,24,52,-110,80,-26,-97,2.859852238
18.288939,1,-49,-20,16,64,-52,54,-18,2.859852238
18.310097,37,-30,-15,-32,-86,-4,-12,34,2.859852238
18.310108,-22,25,8,31,-41,-7,-18,-30,2.859852238
18.315974,59,54,31,-28,-98,5,-8,19,2.859852238
18.316005,-10,26,-16,-26,15,-20,1,8,2.859852238
18.331678,-26,-39,-27,31,32,11,-14,-31,2.859852238
18.331707,70,-74,-15,-37,-4,6,-1,29,2.859852238
18.333453,91,101,41,14,1,31,5,35,2.859852238
18.333471,29,-33,-17,-15,9,-9,-3,-12,2.859852238
18.345880,49,-100,-5,0,-21,-40,13,11,2.859852238
18.345912,-2,48,-3,-25,-8,48,6,-42,2.859852238
18.347477,-96,-17,-28,60,45,11,-3,-1,2.859852238
18.347487,5,54,19,-9,-7,3,14,127,2.859852238
18.371363,21,76,4,-35,-36,-75,-52,-23,2.859852238
18.371374,-25,-8,-1,2,-87,27,27,36,2.859852238
18.371377,23,-72,-21,7,37,56,0,30,2.859852238
18.371379,-42,-8,6,-47,-80,-33,24,-18,2.859852238
18.391662,-18,13,14,21,-31,-18,17,1,2.859852238
18.391686,-7,49,2,-11,58,31,-17,-39,2.859852238
18.392499,-22,-36,-21,-58,-38,-43,-26,-92,2.859852238
18.392518,-101,62,14,18,-38,-29,-33,-18,2.859852238
18.405760,81,5,2,-4,40,-16,39,-12,2.859852238
18.405826,-5,25,8,-6,-70,38,-45,-9,2.859852238
18.406392,-113,-47,-12,52,107,41,28,63,2.859852238
18.406439,100,-111,-9,18,-87,17,25,-61,2.859852238
18.429063,43,117,31,-6,94,-66,33,118,2.946254530
18.429080,-44,-27,23,21,116,-56,-50,-42,2.946254530
18.430895,-85,69,-5,25,34,84,22,-30,2.946254530
18.430907,25,-25,1,-24,22,59,-8,37,2.946254530
18.451726,0,92,-5,-85,-108,9,28,-11,2.946254530
18.451748,54,-13,11,123,106,-51,0,17,2.946254530
18.452078,11,1,1,-8,-27,-7,-14,25,2.946254530
18.452088,-43,-47,-6,1,-38,-56,-38,-56,2.946254530
18.465639,-12,-73,-1,-22,-104,-7,-8,-33,2.946254530
18.465698,27,58,-8,-35,-3,19,25,-66,2.946254530
18.466368,6,-6,4,3,-5,15,10,48,2.946254530
18.466407,53,127,13,-10,-30,-15,-4,38,2.946254530
18.496312,-84,38,-9,-6,14,19,-31,-40,2.946254530
18.496324,-59,-83,-31,-15,23,21,12,40,2.946254530
18.497110,14,36,-3,-11,-94,-79,-40,53,2.946254530
18.497191,53,122,29,40,86,49,52,27,2.946254530
18.511508,-10,48,11,-6,-68,14,-28,-9,2.946254530
18.511523,-17,-7,3,36,98,13,55,-19,2.946254530
18.512010,9,-48,-26,-36,-81,50,32,-37,2.946254530
18.512033,-79,-31,-18,-39,-62,-59,-51,22,2.946254530
18.525799,81,23,8,21,25,10,-8,1,2.946254530
18.525819,21,-25,33,-7,-71,46,2,71,2.946254530
18.526639,-65,-35,-49,-33,24,-56,-50,-70,2.946254530
18.526657,39,40,8,14,0,15,24,-43,2.946254530
18.549250,-16,-28,-19,-55,49,-55,-4,66,2.946254530
18.549318,42,32,25,74,48,66,-29,-52,2.946254530
18.551675,-8,33,30,69,115,-39,116,12,2.946254530
18.551689,-13,-128,-20,-23,-57,58,-62,-14,2.946254530
18.572462,28,18,16,41,93,6,57,32,2.946254530
18.572474,43,4,0,-61,-122,1,96,20,2.946254530
18.572477,74,62,22,38,79,77,32,-6,2.946254530
18.572479,-85,-100,-37,-15,-41,-34,-10,-55,2.946254530
18.588216,64,43,-11,-5,-65,-33,10,-28,2.946254530
18.588228,-37,71,-1,-18,11,7,-78,-1,2.946254530
18.588231,-85,-111,-10,-16,-23,-11,-13,34,2.946254530
18.588233,-9,-19,11,-11,-8,-9,22,42,2.946254530
18.616499,-26,56,23,27,-20,21,-8,-51,2.946254530
18.616517,67,28,-22,-12,-39,-49,-24,21,2.946254530
18.618410,-3,84,8,-46,-50,0,-50,-75,2.946254530
18.618423,43,-3,-8,-21,34,-51,13,14,2.946254530
18.631932,-35,-25,6,68,52,91,0,-2,2.946254530
18.631976,-25,-14,-10,11,31,-52,-3,-6,2.946254530
18.634694,23,-27,2,-47,-128,-92,-48,-22,2.946254530
18.634711,14,76,-13,-31,67,100,94,53,2.946254530
18.646338,-33,-107,5,63,75,39,-10,4,2.946254530
18.646382,-22,1,3,-34,-100,-95,-24,-28,2.946254530
18.648561,39,41,18,42,89,90,7,53,2.946254530
18.648573,77,-63,-22,-34,34,-63,-4,-8,2.946254530
18.669000,43,49,-9,-4,-24,26,-15,74,2.946254530
18.669026,-120,-84,-22,-5,24,-14,23,17,2.946254530
18.669772,15,8,-12,-38,-76,-14,-19,28,2.946254530
18.669793,39,127,37,33,-13,0,-17,28,2.946254530
18.691396,-32,2,-17,-26,4,3,0,-29,2.852695613
18.691416,6,-43,-8,-25,-87,-3,-18,-18,2.852695613
18.692747,17,23,-2,16,46,-23,9,20,2.852695613
18.692768,66,78,37,75,6,69,-9,16,2.852695613
18.705702,-83,-97,-28,-41,31,-58,-44,-63,2.852695613
18.705720,-61,127,11,7,-3,98,118,21,2.852695613
18.707565,-14,-72,1,-31,-43,31,-50,-31,2.852695613
18.707576,38,127,7,-70,-86,-94,-48,12,2.852695613
18.729573,27,-111,4,72,57,54,30,26,2.852695613
18.729587,51,73,17,9,-37,-6,-15,10,2.852695613
18.729589,-37,2,-10,-29,-69,-15,2,-46,2.852695613
18.729592,-81,-60,-54,-49,-42,-39,-30,0,2.852695613
18.751666,42,80,-3,-61,-128,-80,-11,-38,2.852695613
18.751701,-21,97,21,4,31,9,0,14,2.852695613
18.754088,3,-15,-30,12,6,-25,1,15,2.852695613
18.754101,-13,54,12,13,-15,-12,-10,-15,2.852695613
18.765608,-47,22,-4,-7,-2,19,9,30,2.852695613
18.765636,127,90,35,51,127,32,9,36,2.852695613
18.773241,-17,-90,-14,-89,-128,-78,-14,-68,2.852695613
18.773258,-48,-47,-8,5,87,77,-47,-35,2.852695613
18.789049,-21,-89,8,59,-33,69,87,43,2.852695613
18.789067,42,-52,-28,-29,-117,-68,-24,8,2.852695613
18.790396,-32,-7,17,35,-62,16,-69,17,2.852695613
18.790413,-36,-65,-11,3,-91,19,81,-31,2.852695613
18.812821,4,81,18,-33,74,18,-28,-17,2.852695613
18.812853,-7,24,-8,-3,11,6,-3,-36,2.852695613
18.812860,-31,98,-5,-14,-53,-51,4,5,2.852695613
18.812867,-8,-52,-3,36,89,2,2,6,2.852695613
18.825884,100,35,11,-3,-27,3,-20,36,2.852695613
18.825908,61,25,-23,-13,14,-24,-29,61,2.852695613
18.826615,-29,-69,-5,20,45,24,22,-17,2.852695613
18.826631,12,66,39,-10,-90,-22,3,-35,2.852695613
18.849463,-108,-125,-58,-39,77,-19,-19,-114,2.852695613
18.849498,43,24,6,25,15,-1,-21,-15,2.852695613
18.851744,63,81,21,-47,-17,56,37,19,2.852695613
18.851759,1,16,2,22,18,-94,-67,-34,2.852695613
18.871509,7,4,0,44,67,18,72,-7,2.852695613
18.871526,-55,-22,-10,-36,12,41,-53,-29,2.852695613
18.872035,-39,-60,-3,61,1,-2,31,-4,2.852695613
18.872076,-40,-38,-14,-49,-33,-12,-14,-12,2.852695613
18.885590,-10,55,5,-39,-100,-6,10,-68,2.852695613
18.885604,-36,-75,-3,14,36,-22,-3,1,2.852695613
18.886586,26,28,-3,-6,0,-17,38,-30,2.852695613
18.886605,1,-28,7,12,0,-2,2,42,2.852695613
18.909343,51,48,8,7,-30,-35,-18,28,2.852695613
18.909375,29,-28,5,3,-49,79,24,17,2.852695613
18.911711,-1,32,1,2,98,-97,-44,-61,2.852695613
18.911727,6,37,-7,-9,-113,73,45,-15,2.852695613
18.931685,26,-4,-21,-22,-6,-86,-54,-2,2.817182882
18.931696,42,73,24,31,11,52,-18,40,2.817182882
18.932038,-14,-77,15,41,16,61,47,-2,2.817182882
18.932074,92,24,0,-14,-15,-2,30,56,2.817182882
18.945135,10,23,-4,-35,-100,11,-41,-41,2.817182882
18.945146,0,46,-18,-38,-88,-82,27,-10,2.817182882
18.953318,60,32,10,1,-24,52,-13,-5,2.817182882
18.953337,-17,29,5,25,14,-43,-49,-5,2.817182882
18.969578,-59,-92,-9,-22,7,12,-12,-11,2.817182882
18.969622,9,21,-12,24,115,1,-12,-53,2.817182882
18.969753,102,-5,-10,3,-44,50,21,79,2.817182882
18.972020,58,50,55,20,-50,-25,25,78,2.817182882
18.992769,-26,-30,-54,-78,21,-34,-30,-11,2.817182882
18.992781,-57,6,-6,28,106,-40,-8,-35,2.817182882
18.992784,-6,84,-1,10,-63,-36,29,18,2.817182882
18.992786,43,76,21,-24,68,73,-54,-2,2.817182882
19.005096,15,21,16,53,58,-4,46,20,2.817182882
19.005114,-37,-112,-5,25,-39,127,65,0,2.817182882
19.013481,-49,-16,-15,-11,105,-119,-40,-70,2.817182882
19.013513,-64,-106,-22,-10,-26,-38,-15,-20,2.817182882
19.029120,23,85,36,17,49,39,-17,86,2.817182882
19.029152,19,-19,-20,-23,-61,60,15,-9,2.817182882
19.030779,-23,-81,-15,-18,-63,1,-21,37,2.817182882
19.030792,-11,-31,-8,-12,9,-32,38,72,2.817182882
19.052289,63,-50,-4,-2,-78,-17,-51,36,2.817182882
19.052366,75,48,6,10,17,-76,-55,-22,2.817182882
19.054633,18,98,17,-8,-17,19,-14,4,2.817182882
19.054646,25,-34,-38,11,28,29,43,-52,2.817182882
19.065707,60,6,9,-36,-20,37,46,21,2.817182882
19.065750,-28,49,16,67,62,-85,-75,7,2.817182882
19.073288,-25,-71,-9,-53,-29,-81,15,59,2.817182882
19.073314,-17,-36,-2,69,-64,48,-42,-20,2.817182882
19.088928,-22,50,-4,17,78,127,71,3,2.817182882
19.088944,-53,-60,5,-22,-128,-128,38,10,2.817182882
19.089575,33,-16,-47,-30,-23,34,-58,-26,2.817182882
19.089629,48,84,7,-3,17,3,10,11,2.817182882
19.111599,-43,-88,3,3,-7,40,29,10,2.817182882
19.111622,-16,6,6,-31,-31,-28,3,-24,2.817182882
19.113097,-10,20,-1,16,12,34,-1,3,2.817182882
19.113109,-71,-13,1,-9,54,1,23,-81,2.817182882
19.125632,40,52,8,6,-57,6,-6,-14,2.817182882
19.125677,-128,-37,-16,-33,39,-4,12,-43,2.817182882
19.134080,21,10,22,9,-8,38,47,52,2.817182882
19.134099,-17,-17,-19,-21,121,59,-48,-26,2.817182882
19.149308,-4,21,29,51,37,-73,35,-12,2.817182882
19.149325,79,-49,-15,-53,-24,-41,-33,34,2.817182882
19.150347,-33,95,10,-8,-24,54,25,-42,2.817182882
19.150356,-83,-127,-1,2,-62,97,-58,-14,2.817182882
19.171663,-55,-30,-35,-27,-41,-84,16,-18,2.817182882
19.171681,19,11,6,-50,-24,25,45,16,2.817182882
19.173496,46,59,8,89,124,9,8,-10,2.817182882
19.173508,106,114,15,-19,-116,-95,54,63,2.817182882
19.185760,20,-33,11,39,57,112,-64,-62,2.851447256
19.185794,-55,32,-13,-17,-82,-65,-7,39,2.851447256
19.195759,89,-1,5,-9,-2,-36,-35,4,2.851447256
19.195770,-10,-7,-2,8,-19,-21,49,56,2.851447256
19.209557,89,23,5,-8,-27,-82,-43,-45,2.851447256
19.211585,-45,-12,-6,17,-3,30,-7,32,2.851447256
19.211595,-112,45,22,-3,52,71,10,-13,2.851447256
19.211597,91,54,-16,26,63,-77,-24,-14,2.851447256
19.231682,-65,78,18,-39,-103,-21,-60,3,2.851447256
19.231708,36,-113,-31,8,-31,-1,-5,-41,2.851447256
19.232837,34,80,15,14,-102,-31,49,77,2.851447256
19.232856,8,56,5,57,104,-55,4,-25,2.851447256
19.245659,-46,13,-3,17,98,87,21,21,2.851447256
19.245689,50,111,27,-2,-83,-51,29,-5,2.851447256
19.260413,-25,-35,-20,-16,15,26,-36,-38,2.851447256
19.260444,-25,-27,10,-1,10,75,27,60,2.851447256
19.269158,69,-12,-7,-20,-104,-101,-19,0,2.851447256
19.269190,13,90,10,3,-17,21,-35,-12,2.851447256
19.271691,50,29,-4,-16,33,-50,-13,-21,2.851447256
19.271714,-24,-119,-12,-13,-53,103,-40,7,2.851447256
19.291348,-30,-5,3,-2,58,56,38,-5,2.851447256
19.291365,32,66,6,-5,-27,-10,37,-32,2.851447256
19.292932,-33,-25,-6,28,-10,-50,-9,-36,2.851447256
19.292956,82,120,16,-10,-110,-13,-37,-27,2.851447256
19.314016,9,-36,-3,7,41,-5,22,21,2.851447256
19.314034,-25,-98,-22,-7,24,36,-32,-84,2.851447256
19.315843,-24,-26,-1,-2,-41,87,95,-11,2.851447256
19.315854,-17,59,5,4,-21,-80,-28,45,2.851447256
19.329590,-78,-73,-7,-18,-100,-47,-9,-12,2.851447256
19.329615,-10,11,-3,-6,39,58,-1,13,2.851447256
19.331411,-42,-29,7,-3,-48,10,-49,-11,2.851447256
19.331427,-51,-66,-20,-29,64,13,28,-64,2.851447256
19.353252,-39,87,8,7,-27,-1,-16,63,2.851447256
19.353270,-3,-76,-9,-17,-9,-43,7,30,2.851447256
19.353277,-2,24,-5,19,-26,69,-33,10,2.851447256
19.353282,-36,-73,-9,-18,-84,-44,15,-45,2.851447256
19.373996,26,59,-6,-63,-92,55,-7,61,2.851447256
19.374021,-109,-49,41,119,112,41,14,25,2.851447256
19.375629,45,-91,-27,-39,6,-65,18,-26,2.851447256
19.375643,23,40,14,-3,-65,42,22,-45,2.851447256
19.388221,-51,40,3,-6,-70,107,-7,-14,2.851447256
19.388240,88,2,-17,-7,-36,-78,-8,38,2.851447256
19.395652,66,60,-1,-26,47,-23,-45,-42,2.851447256
19.395688,-95,-104,5,27,17,-46,15,-19,2.851447256
19.411719,57,6,-5,16,59,-25,3,-26,2.851447256
19.411751,23,64,10,-16,8,46,-20,53,2.851447256
19.414184,-12,19,2,19,78,-23,2,-29,2.851447256
19.414195,79,2,-4,-51,-83,-33,-12,-11,2.851447256
19.434219,22,68,13,62,32,-34,4,36,2.851447256
19.434247,-48,5,-7,-30,-94,80,3,-56,2.851447256
19.436977,-23,-127,-34,-18,127,-27,-36,-15,2.851447256
19.436989,-34,17,-7,-9,-68,48,14,11,2.851447256
19.448681,9,10,-6,-18,-20,-109,45,-9,2.852533370
19.448695,85,117,35,15,-83,102,6,60,2.852533370
19.455190,63,-47,-10,18,-79,-20,-55,23,2.852533370
19.455206,-10,70,-15,-45,-39,-50,23,-24,2.852533370
19.471753,-1,12,-4,53,90,-79,6,-40,2.852533370
19.471830,40,70,8,-11,81,58,39,-33,2.852533370
19.473029,-19,110,11,-26,-11,-106,-59,57,2.852533370
19.473042,-29,-115,-50,-6,39,2,6,-15,2.852533370
19.501837,-8,-2,-8,-3,-52,-12,4,-27,2.852533370
19.501869,-83,-2,-12,-28,-16,-43,-14,-96,2.852533370
19.503977,10,32,1,-5,-29,66,34,-3,2.852533370
19.503991,29,88,19,28,127,23,-11,27,2.852533370
19.508634,-11,-48,-2,-34,-113,-69,-30,-17,2.852533370
19.508653,22,-10,-6,-1,53,34,35,-8,2.852533370
19.523924,-64,31,9,-7,10,67,5,-20,2.852533370
19.523941,40,12,17,73,-8,0,-13,10,2.852533370
19.531613,77,46,29,37,17,53,17,6,2.852533370
19.531636,28,-72,-44,-16,12,21,-20,-11,2.852533370
19.533908,44,61,12,-3,53,-63,-30,-26,2.852533370
19.533923,-9,51,9,-6,37,84,26,0,2.852533370
19.553858,73,62,15,41,104,56,-37,53,2.852533370
19.553909,-63,-47,-18,-11,-115,-93,-18,6,2.852533370
19.555325,-22,47,7,-13,-46,10,19,-60,2.852533370
19.555341,2,104,34,19,42,-22,-35,8,2.852533370
19.569696,-55,-87,-63,-27,-22,-8,-17,-31,2.852533370
19.569709,-36,36,-1,-7,29,-46,2,18,2.852533370
19.575298,-93,-18,12,26,21,20,37,-44,2.852533370
19.575332,-42,-28,12,-13,-50,-22,20,79,2.852533370
19.591843,97,90,-6,-55,-65,-32,-79,-32,2.852533370
19.591877,60,3,-7,-15,31,-71,58,-23,2.852533370
19.594568,79,78,15,105,87,31,34,74,2.852533370
19.594580,19,-76,-18,-7,-105,34,4,-16,2.852533370
19.615221,-91,3,9,-13,29,-31,37,4,2.852533370
19.615234,0,-25,-16,-71,-93,-89,-90,-7,2.852533370
19.615386,39,31,17,64,41,81,-68,12,2.852533370
19.615394,-30,-60,-11,-9,16,-58,37,-1,2.852533370
19.628749,-10,38,3,-13,-111,-38,5,-84,2.852533370
19.628760,87,6,-18,-41,62,30,11,-54,2.852533370
19.635212,-86,-18,-3,-3,34,74,-21,23,2.852533370
19.635233,-31,52,-14,0,48,-8,0,-18,2.852533370
19.651805,-59,-114,-12,-13,-42,26,18,-22,2.852533370
19.651836,45,47,19,21,-26,11,30,32,2.852533370
19.654505,-14,-99,-4,-42,-60,-53,-3,19,2.852533370
19.654519,-92,15,7,14,58,40,-15,27,2.852533370
19.675962,127,124,4,5,-52,-21,11,21,2.852533370
19.675975,-93,-80,-23,-30,17,-28,-7,20,2.852533370
19.675979,12,-29,-5,-10,-18,49,-21,21,2.852533370
19.675981,49,64,-2,26,-7,-24,83,-31,2.852533370
19.688379,74,52,45,19,29,69,6,66,2.852533370
19.688418,-48,27,1,37,-7,-73,13,-16,2.852533370
19.695264,122,-22,-31,-54,-112,-76,2,-16,2.852533370
19.695283,57,49,5,-44,-89,4,-31,-1,2.852533370
19.711581,-25,-25,6,53,127,5,27,17,2.885378140
19.712765,10,60,24,15,-34,127,-7,61,2.885378140
19.712979,-24,-23,-3,-42,-73,-49,33,-14,2.885378140
19.713048,3,-34,-9,0,-51,-11,-31,10,2.885378140
19.734361,-24,-27,0,66,51,-7,-16,93,2.885378140
19.734392,-26,-44,3,21,4,28,5,-13,2.885378140
19.736814,19,-3,-7,-36,-13,-21,29,20,2.885378140
19.736836,32,50,15,-15,10,-14,-23,-18,2.885378140
19.748751,-61,-90,-25,-45,-110,14,-6,-32,2.885378140
19.748782,26,27,10,17,3,-27,-3,9,2.885378140
19.755058,2,61,4,-10,7,18,-3,-42,2.885378140
19.755075,-35,-51,-23,4,28,49,2,-24,2.885378140
19.771445,-13,19,12,24,25,-40,-19,13,2.885378140
19.771457,-78,-63,-19,-5,-22,81,-11,-47,2.885378140
19.772945,12,-72,-10,8,-49,-49,64,-85,2.885378140
19.772964,89,75,4,-35,-10,-5,-36,33,2.885378140
19.793725,-44,-61,-32,-31,-1,0,-8,-28,2.885378140
19.793743,-4,17,7,0,-110,33,5,25,2.885378140
19.800024,42,125,26,33,122,48,5,90,2.885378140
19.800048,50,-104,-19,0,-55,-49,-17,-51,2.885378140
19.807744,-73,-36,-16,-33,-35,4,13,0,2.885378140
19.807769,99,35,14,9,19,-50,-28,11,2.885378140
19.817189,45,79,24,11,-3,1,20,69,2.885378140
19.817199,-76,-113,-9,-46,-52,-29,-11,15,2.885378140
19.832639,127,5,-31,11,-51,21,-29,-40,2.885378140
19.832650,8,63,7,19,127,56,9,-16,2.885378140
19.832797,-18,61,-3,-6,-76,-121,-1,18,2.885378140
19.832805,34,127,37,-16,-85,-97,-12,-6,2.885378140
19.854190,-92,-55,-16,8,72,106,25,-19,2.885378140
19.854216,-43,-43,-3,37,70,-127,56,7,2.885378140
19.856199,20,-13,18,22,-78,111,41,20,2.885378140
19.856223,-66,-46,3,24,-38,-42,64,10,2.885378140
19.868073,-71,0,1,-59,-30,-11,-19,-31,2.885378140
19.868103,6,-22,-27,-32,-82,-20,-47,-33,2.885378140
19.882769,-103,3,-12,3,65,40,-57,95,2.885378140
19.882800,-28,67,0,11,4,26,28,-4,2.885378140
19.891556,-8,-18,14,9,-6,3,39,34,2.885378140
19.891573,7,49,20,-4,-16,18,-35,11,2.885378140
19.894045,20,51,-4,3,-7,-128,-11,-117,2.885378140
19.894056,-30,-117,-36,-14,19,101,-41,-61,2.885378140
19.914065,57,33,24,20,-49,-38,38,51,2.885378140
19.914086,48,87,36,77,81,8,14,2,2.885378140
19.915284,-30,-123,-50,-46,-44,8,-2,-78,2.885378140
19.915299,-13,13,-26,-21,115,-97,-17,-33,2.885378140
19.927532,77,50,10,13,-50,102,-35,-40,2.885378140
19.927550,44,9,-3,-32,-90,1,56,42,2.885378140
19.938520,-31,-42,-4,14,62,-85,7,-14,2.885378140
19.938538,32,48,10,8,44,79,-39,21,2.885378140
19.951815,-61,0,-9,-10,102,34,5,-43,2.885378140
19.951848,-24,37,11,37,34,59,-32,21,2.885378140
19.954209,58,32,6,-31,-96,-19,20,-17,2.859762107
19.954221,10,-14,-5,0,-44,-56,-7,22,2.859762107
19.973917,-26,51,6,6,-13,-94,-30,1,2.859762107
19.973979,108,67,-4,-43,-37,26,-9,39,2.859762107
19.975437,-59,-113,-24,18,14,9,15,-46,2.859762107
19.975452,37,51,-1,13,68,39,-13,-10,2.859762107
19.988859,92,85,25,-5,-101,-32,1,30,2.859762107
19.988871,55,95,15,-1,-74,-88,-31,-66,2.859762107
19.997695,-53,-98,-12,19,-9,106,43,18,2.859762107
19.997712,-79,-90,-13,8,-25,-23,37,-17,2.859762107
20.011389,-18,5,-14,-60,26,51,10,105,2.859762107
20.011407,15,37,12,55,88,55,-11,4,2.859762107
20.012853,-35,51,15,-16,-42,-98,0,12,2.859762107
20.012889,43,74,50,41,127,-10,7,-20,2.859762107
