timestamp,emg1,emg2,emg3,emg4,emg5,emg6,emg7,emg8,label
2.017576,-1,5,-6,-1,-3,-5,-24,-4,1
2.018087,21,28,-10,-1,3,2,20,61,1
2.020014,-14,-28,22,1,-1,2,20,-7,1
2.020018,11,2,-10,-5,-3,-3,-39,-9,1
2.039870,-8,0,-2,-1,-1,1,-3,-13,1
2.039888,-9,-7,-2,1,0,-9,-26,-34,1
2.041301,8,18,-16,-3,0,2,14,5,1
2.041322,-6,-35,-4,-2,-2,1,29,20,1
2.054124,-6,-2,17,0,0,-2,-27,-5,1
2.054140,0,-9,7,2,-1,-2,0,-12,1
2.061189,-6,11,-20,-6,-4,-8,-6,-7,1
2.061210,-9,-7,10,4,1,2,14,-10,1
2.077563,2,6,-8,-3,-3,-1,-19,4,1
2.077584,-7,-5,5,-1,-1,-6,-11,-9,1
2.079414,5,7,-1,-1,3,10,86,1,1
2.079419,0,23,-12,-5,-2,-4,-31,-5,1
2.099870,-1,-19,10,3,0,2,22,7,1
2.099941,3,3,4,-1,-1,2,-2,3,1
2.101486,2,10,-1,0,-2,-5,-25,2,1
2.101502,-1,-4,-7,1,2,0,2,5,1
2.114986,-1,-7,0,-1,0,1,3,-1,1
2.114990,-2,6,3,-4,-3,0,-17,-39,1
2.121103,16,30,12,1,2,3,-12,82,1
2.121127,-5,-28,-6,3,1,-1,10,3,1
2.137430,4,-7,-8,1,0,0,-18,-7,1
2.137455,-5,-6,-11,-6,-4,-3,15,-19,1
2.138860,-4,-4,-2,-1,-1,-2,-7,-34,1
2.138896,-2,10,-7,-7,-5,-4,3,-8,1
2.160157,-1,0,-5,0,-3,0,3,15,1
2.160161,-8,9,17,0,-3,0,8,0,1
2.161206,-1,-1,1,2,-1,-1,6,-18,1
2.161245,-4,-13,-8,0,-1,-5,-1,-12,1
2.174326,-6,5,1,-5,-4,-2,-8,-18,1
2.174355,7,-6,-10,0,1,3,16,18,1
2.180824,-3,-12,-4,-5,-2,-2,-22,-15,1
2.180842,-1,2,2,-1,-4,-4,-12,-12,1
2.197485,-8,13,3,0,-1,-3,-3,-1,1
2.197506,1,35,-18,-2,2,0,1,3,1
2.199216,-2,-76,14,3,0,-3,-10,-2,1
2.199221,-9,36,5,1,-1,-1,-2,-35,1
2.219759,6,-22,-5,0,2,3,8,4,1
2.219777,-1,-12,-7,-1,-1,4,-20,2,1
2.221410,-5,5,-8,-2,-2,-6,-29,-10,1
2.221445,7,18,-5,-4,-2,-1,34,-2,1
2.234267,-5,-9,-3,-3,-1,1,15,2,1
2.234288,-5,-7,9,3,1,-1,-9,-1,1
2.241069,0,0,-13,-3,-3,-1,9,-11,1
2.241099,-4,7,5,1,0,-4,-37,11,1
2.257533,16,-7,-2,1,1,3,6,6,1
2.257546,-8,3,10,-2,-5,-4,14,-29,1
2.258711,5,1,-10,1,-1,-1,3,35,1
2.258725,-3,0,15,2,2,1,-8,5,1
2.280531,-6,9,-6,-4,-3,-2,-8,3,1
2.280567,1,15,-21,-2,2,2,21,3,1
2.282760,-9,-29,10,1,1,1,-19,-9,1
2.282765,11,-21,-10,-4,-4,0,-10,5,1
2.294380,-15,34,3,-4,-2,-3,1,-19,1
2.296231,3,-40,-5,2,1,-5,-19,-48,1
2.301190,-6,25,-6,-3,-2,1,42,-25,1
2.302573,-2,-10,-9,0,2,-1,-35,4,1
2.318515,1,-6,7,0,0,2,10,-5,1
2.318520,-1,20,-13,-5,-5,-7,-32,3,1
2.318886,2,-18,16,1,2,7,28,0,1
2.318894,-1,4,9,0,-1,1,10,0,1
2.339922,1,-4,1,0,-1,-4,-8,-4,1
2.339944,-7,6,-2,0,1,-3,-14,11,1
2.341986,7,20,-22,-3,-1,1,16,1,1
2.341990,-10,-32,8,-2,0,2,-4,11,1
2.354094,11,6,-5,-2,-1,-4,-14,9,1
2.354117,1,-24,6,1,1,2,14,14,1
2.361394,-4,24,-2,-4,-3,-9,-33,-38,1
2.361415,-4,0,2,-3,-2,0,16,1,1
2.377714,-3,1,-4,2,-1,0,13,0,1
2.377734,1,-15,1,-3,0,-4,-8,7,1
2.379901,-1,0,-3,1,1,-3,-12,-4,1
2.379909,8,19,-6,-2,-2,-3,-2,-1,1
2.400066,-12,-21,-2,-3,-1,4,-19,-26,1
2.400086,-7,25,12,3,0,-8,-9,-6,1
2.401489,-3,-33,1,2,1,3,0,20,1
2.401509,4,47,6,-2,-2,-3,1,10,1
2.413332,2,-47,8,2,-2,-2,14,3,1
2.413344,-13,-19,0,-3,0,3,5,1,1
2.423421,9,11,9,-1,0,-4,-28,-9,1
2.423427,2,-5,5,3,4,1,2,3,1
2.437436,0,27,-5,-1,-2,-1,-2,2,1
2.437543,6,-22,-5,-3,-3,-10,-16,-4,1
2.439399,-5,-9,4,-2,-1,11,48,14,1
2.439402,-4,12,-1,-3,-2,-5,-2,-4,1
2.459881,3,9,-1,4,3,0,-1,15,1
2.459885,-6,-7,4,-1,1,5,-33,2,1
2.461187,1,4,-15,-1,-2,-6,-16,0,1
2.461199,1,-23,-11,3,2,0,7,-2,1
2.475087,-6,13,3,-1,0,2,-1,-46,1
2.475091,10,7,-3,2,1,4,38,53,1
2.484672,-4,28,0,-3,-1,-5,-41,-7,1
2.484680,3,-36,15,2,-1,3,18,3,1
2.497371,-9,-15,5,-4,-2,-6,-8,-8,1
2.497393,3,14,9,1,0,1,6,-36,1
2.499247,-8,3,-10,0,0,-5,-12,2,1
2.499253,4,23,-12,-2,1,3,12,7,1
2.520923,-2,-10,17,-1,-3,-6,-26,10,1
2.521288,-2,-16,-1,-4,0,1,15,-9,1
2.521296,-9,11,1,-6,-4,-3,-24,-17,1
2.521340,7,1,-13,0,-3,-5,-2,-5,1
2.533541,1,-2,-12,-3,-2,-2,1,3,1
2.533564,-5,11,-2,-1,-1,1,-8,3,1
2.544196,5,-12,0,1,-1,-5,21,-2,1
2.544201,-12,-9,-8,-3,-1,-1,-29,-6,1
2.557295,12,7,7,4,3,3,5,19,1
2.557319,-8,9,13,-1,0,1,2,-1,1
2.558799,6,-11,-17,-2,-1,-3,12,-7,1
2.558825,-4,-11,9,-2,-3,1,2,30,1
2.579875,0,14,-15,-3,-3,-3,7,3,1
2.579897,13,30,4,0,-2,-8,-39,-8,1
2.582241,-20,-25,-1,-1,-1,5,36,-43,1
2.582249,-4,-18,-7,-1,-1,-5,-16,-20,1
2.593907,0,0,-7,-2,0,-1,5,-6,1
2.593935,3,-4,-4,-1,-1,1,17,13,1
2.603328,-12,0,-4,-2,1,-1,-19,3,1
2.603332,-1,14,1,0,-4,1,14,-6,1
2.617332,-3,-14,0,1,0,-4,8,12,1
2.617350,0,-16,-5,-1,-2,3,-5,-25,1
2.619066,4,5,6,1,-2,-1,5,31,1
2.619083,-3,33,-6,-6,-1,-2,-11,-7,1
2.640272,-1,-35,0,1,1,-2,-2,-2,1
2.640294,-4,2,-16,0,0,0,-13,1,1
2.641437,5,1,23,3,-1,1,25,1,1
2.641441,-1,0,-5,-3,-3,-1,9,8,1
2.653506,7,9,1,0,-3,-3,-7,2,1
2.653523,-4,-13,1,0,-1,-3,-2,4,1
2.663080,1,5,-10,-2,-1,-2,-14,9,1
2.663084,10,-11,-7,-1,0,-2,-1,1,1
2.678789,-4,-1,2,3,0,2,-3,6,1
2.678793,10,38,1,-3,-1,-2,-5,56,1
2.678795,3,-12,6,5,1,-1,7,8,1
2.678796,-1,-5,2,-2,-1,1,1,7,1
2.699936,-5,3,-9,-2,-1,-3,-21,-17,1
2.699951,0,-1,-6,-4,-2,-3,27,-18,1
2.701764,13,-2,0,-2,-2,4,-19,15,1
2.701767,-13,2,6,1,-1,-2,32,2,1
2.713734,0,25,-2,0,0,-1,-64,5,1
2.713746,2,-25,-18,-2,-3,0,33,-7,1
2.724385,-4,-15,13,-6,-1,0,0,-5,1
2.724390,-9,-16,7,8,3,-2,-8,-18,1
2.737362,12,15,-3,-3,-1,2,16,6,1
2.737384,0,-4,0,1,-1,-1,-7,-9,1
2.739651,2,-1,-11,-1,-2,-4,-17,0,1
2.739657,-5,10,-2,-2,-2,-2,-2,1,1
2.760005,-1,-5,-2,-2,0,-2,1,4,1
2.760032,-6,-14,-1,1,1,-5,-6,3,1
2.762284,10,9,-2,-3,3,12,23,7,1
2.762288,2,-9,14,0,0,-1,33,27,1
2.773527,-3,-6,0,-1,-2,0,-9,-7,1
2.773544,-8,-13,-4,-1,-2,0,1,-9,1
2.785457,-2,2,-3,2,-1,-7,-22,5,1
2.785464,3,-2,-11,-4,-1,1,-7,-8,1
2.797813,-3,-1,2,-2,-2,-1,17,-2,1
2.797840,0,1,5,1,0,-3,-8,-2,1
2.799980,-1,-3,-24,-3,-3,-10,9,17,1
2.799986,11,5,29,4,-1,10,17,24,1
2.820392,-15,6,4,1,1,-4,2,-7,1
2.820398,-4,-21,9,-3,-1,-2,8,-14,1
2.821175,0,-3,-2,1,0,-2,-24,-29,1
2.821182,3,-13,-14,-4,-2,-4,-13,-18,1
2.842415,-3,7,-3,-2,-2,1,3,12,1
2.842437,-4,4,3,-1,0,-2,6,1,1
2.843673,-3,6,5,0,-1,2,-6,6,1
2.843704,-1,3,-7,-2,-1,-5,-18,-2,1
2.857358,3,-1,3,1,1,2,5,-5,1
2.857380,-2,1,-2,0,1,2,-6,0,1
2.858634,-2,8,4,0,-2,-1,2,4,1
2.858646,-1,-1,-4,-1,-1,-1,-19,-15,1
2.882060,-2,-5,-2,-1,-1,-7,27,-2,1
2.882065,0,0,-19,-3,-3,-6,-79,1,1
2.882067,-9,-14,38,1,0,5,34,-11,1
2.882069,-1,26,9,0,-1,1,20,4,1
2.902531,-9,-38,-4,-2,-2,2,-1,1,1
2.902557,14,10,8,1,-3,-5,-9,6,1
2.904417,-3,-6,-18,-2,-1,-3,-5,-3,1
2.904421,0,-8,-10,-2,1,-3,-21,19,1
2.917725,1,13,4,0,-1,-3,7,2,1
2.917760,-9,-3,-4,0,1,4,25,-11,1
2.920459,3,-2,-5,0,-3,-5,-36,-31,1
2.920465,-8,0,-8,-2,-1,5,-14,-18,1
2.940298,5,28,-7,-5,-4,0,40,10,1
2.940320,-5,-53,-7,-1,-2,-1,9,-4,1
2.942985,-2,14,6,0,2,3,18,-10,1
2.942989,-9,15,13,1,-1,-7,-17,-7,1
2.962867,1,0,-6,-2,1,0,-24,-6,1
2.962885,0,11,-6,-1,0,0,9,-11,1
2.964710,1,5,0,-1,-2,-3,1,16,1
2.964714,4,-16,-13,-2,-2,-3,-6,-9,1
2.976463,0,-4,-6,-1,1,-2,-6,5,1
2.976480,2,15,10,1,0,0,17,6,1
2.983866,-10,-5,-13,-1,1,-4,-19,6,1
2.983893,21,-25,-7,-1,1,-7,-25,-1,1
3.000747,-17,5,-1,1,-1,12,95,6,1
3.000785,-3,17,-3,-2,1,-1,-44,-2,1
3.003389,-14,-18,28,0,-4,-6,-6,-55,1
3.003398,6,8,-8,-3,1,1,9,-2,1
3.022308,4,-8,3,0,-2,-1,-20,-10,1
3.022450,-1,-19,-5,-1,0,-1,1,5,1
3.024039,-4,19,-18,-2,0,3,16,0,1
3.024083,-2,-5,-4,0,-3,-4,5,75,1
3.036657,1,-5,4,-1,0,-5,-33,-5,1
3.036670,-3,26,-2,-2,-2,1,16,0,1
3.043529,8,-19,3,-3,0,-6,-27,11,1
3.045647,-3,-1,5,0,-2,-1,19,-17,1
3.060413,-2,7,0,-2,-2,0,-31,3,1
3.060433,5,-13,-1,-1,-3,-3,-3,-13,1
3.061913,-10,0,-10,-4,-2,-5,-5,10,1
3.061917,-15,5,11,0,-4,2,43,-18,1
3.082177,11,69,-3,1,3,0,-72,0,1
3.082189,-7,-63,-2,-4,-4,-4,22,-2,1
3.084089,6,-7,-13,-1,-3,-1,-12,6,1
3.084114,-1,2,-1,-2,-1,-1,-7,-13,1
3.098319,-2,2,0,-1,-1,-5,-1,-3,1
3.098325,4,19,4,0,-1,0,3,3,1
3.103464,8,3,-1,0,1,3,-2,17,1
3.103484,-6,21,-6,-2,2,3,3,-3,1
3.119902,7,-54,-7,2,-4,-4,11,32,1
3.119919,-10,10,7,0,2,2,-20,-9,1
3.121527,10,-4,0,-2,-1,1,22,6,1
3.121533,-2,14,6,2,3,-2,-19,-48,1
3.143053,0,-22,-5,-2,0,-3,-7,-5,1
3.143081,-3,20,20,2,0,0,15,15,1
3.145557,-2,15,-2,0,-1,0,-10,25,1
3.145563,0,-10,-4,-4,-1,-3,-16,-25,1
3.157211,-1,-20,-8,-3,0,-2,13,-9,1
3.157238,2,-8,-7,-1,-5,-2,-5,-1,1
3.163746,-8,10,6,0,2,0,39,-3,1
3.163831,-1,-14,-8,-1,-2,-2,-12,2,1
3.180262,4,2,3,-2,0,-4,-9,-6,1
3.182545,-1,1,-11,-2,0,2,13,4,1
3.182550,3,20,10,-1,-1,1,-3,2,1
3.182552,-5,-15,-11,-3,-1,-1,24,3,1
3.202256,-4,-4,4,0,1,-3,-1,-7,1
3.202274,7,0,16,1,-3,4,21,-2,1
3.204061,4,1,6,1,-1,-3,-18,-2,1
3.204065,0,0,-3,-1,0,0,-4,11,1
3.216999,3,2,-8,-1,1,0,2,-10,1
3.217067,-2,10,11,0,1,-1,4,-1,1
3.223456,-7,-17,-3,0,0,-3,-7,-11,1
3.223477,1,-2,-2,-1,-2,-1,-17,41,1
3.240130,-4,12,3,0,-2,-2,21,-19,1
3.240149,-3,-9,-14,-1,1,2,-28,-2,1
3.241566,3,-1,-10,-1,-2,-7,30,5,1
3.241636,-8,-7,12,-4,-1,6,3,-14,1
3.262760,-3,-4,8,-1,-2,-5,-20,-3,1
3.262781,1,2,0,-4,1,0,0,-9,1
3.265020,-16,-11,-9,-2,-1,-1,-6,-18,1
3.265026,11,-4,-4,1,-3,-4,-3,-10,1
3.276912,-6,-5,1,-2,-2,0,5,3,1
3.276934,-5,4,-4,0,1,-8,-13,-7,1
3.285273,4,1,5,0,-2,3,5,2,1
3.285280,-3,-8,-2,-2,-2,-3,9,-14,1
3.300540,-14,3,1,-4,-3,0,3,6,1
3.300548,4,31,6,1,-3,-6,-10,1,1
3.301340,-6,-25,-8,-1,0,2,-9,3,1
3.301360,-1,-5,-3,-2,-2,-2,-5,3,1
3.322602,4,-8,-6,-2,-2,-1,2,-6,1
3.322623,-5,36,-9,-1,-2,-6,-12,-7,1
3.323739,9,-48,18,4,5,0,-21,-8,1
3.323742,-3,-8,-6,-1,-8,4,21,21,1
3.336634,8,11,9,0,0,1,-2,-3,1
3.336658,-5,-20,-5,-2,-3,1,-7,-6,1
3.343739,0,34,-11,-2,-2,-4,-4,-2,1
3.343771,-1,-3,0,0,3,-5,-13,-6,1
3.360168,-2,-8,0,-1,0,1,-5,1,1
3.360206,-1,-8,-14,-2,-1,0,16,9,1
3.362614,5,6,-6,0,-2,-2,-5,-32,1
3.362618,1,9,13,4,1,-3,-10,-9,1
3.382417,-7,5,-4,-2,-2,-3,50,2,1
3.382428,1,-13,3,-4,1,4,-28,2,1
3.384090,2,5,-11,-3,-2,1,-14,3,1
3.384115,-1,-9,-2,-3,-3,2,24,-31,1
3.397024,5,-2,-7,-1,1,-1,-28,-2,1
3.397028,-2,29,9,0,-4,-1,30,-4,1
3.406025,-3,-41,-1,1,1,-1,-9,11,1
3.406031,5,14,-6,1,1,-1,-4,11,1
3.420001,-2,3,-4,-4,0,1,-16,4,1
3.420031,5,-17,-2,3,0,-4,2,4,1
3.421330,-9,13,7,1,-1,0,3,-2,1
3.421369,-6,28,9,-2,1,-5,-26,-1,1
3.442193,0,-53,-21,-3,-3,1,47,3,1
3.442199,10,35,-7,-4,1,2,-57,12,1
3.443645,-11,-40,9,1,-1,0,14,7,1
3.443658,-3,-7,-9,-3,-1,-1,-3,-4,1
3.456064,-4,3,1,2,2,2,-12,0,1
3.456085,3,-4,-15,-4,-2,-1,19,-5,1
3.465993,-1,11,-4,-2,-1,-4,-7,2,1
3.466004,-2,-4,0,0,0,-2,-15,-16,1
3.479771,0,7,2,0,-1,-2,-11,-4,1
3.479791,-8,-21,4,-1,0,-2,9,-8,1
3.481135,4,20,-1,0,-1,-3,5,2,1
3.481141,-2,-12,0,1,2,5,-25,1,1
3.502282,3,0,8,-2,-2,-2,1,-2,1
3.502301,-7,-10,5,3,1,0,33,-19,1
3.504211,-6,9,0,-1,-5,-4,-11,-22,1
3.504217,2,2,-12,-2,-1,-2,4,3,1
3.516417,0,-6,-7,-1,0,-2,-7,5,1
3.516591,2,1,16,6,1,0,-33,3,1
3.526765,3,37,-11,-4,0,3,20,11,1
3.526771,-8,-40,13,2,1,-1,1,2,1
3.539776,0,35,4,-1,-3,-4,-21,-4,1
3.539795,-2,-7,5,1,-2,-2,1,12,1
3.541429,6,-27,-14,-3,1,8,71,5,1
3.541479,1,-1,-14,-3,-1,0,-23,31,1
3.562511,-6,17,21,-1,-1,0,3,-9,1
3.564616,5,-10,-14,0,-1,-6,-20,-3,1
3.564619,-7,25,10,0,3,3,-16,-32,1
3.564621,5,7,-9,-4,-2,-3,18,24,1
3.576187,0,-5,-6,2,1,2,8,2,1
3.576216,0,-21,-1,1,-1,-1,8,2,1
3.585481,0,-7,0,0,0,-2,-20,-2,1
3.585485,-1,-7,-2,1,-1,-1,11,-13,1
3.599710,-1,6,-8,0,-2,-1,-15,-4,1
3.599757,-3,5,10,-3,0,-2,6,-5,1
3.601405,-5,-8,-6,-2,-2,-4,-12,-4,1
3.601421,-2,7,6,-3,-2,2,-6,-7,1
3.622866,-7,13,-1,0,-3,-2,37,-3,1
3.622903,-12,-33,-3,-2,-1,0,4,-6,1
3.624875,6,-6,-5,-2,0,-3,-14,14,1
3.624879,1,47,-3,-2,-1,-4,39,-2,1
3.635944,0,-61,-12,0,-1,1,-42,-8,1
3.635966,0,4,-10,-6,-4,-2,21,-6,1
3.644867,-15,13,14,1,-3,-2,-14,2,1
3.644872,-2,-5,-1,-1,1,-2,7,-6,1
3.659778,7,5,-3,0,0,-1,-16,37,1
3.659783,1,3,-5,-3,-2,4,14,88,1
3.661179,10,7,-3,2,-2,-4,-2,13,1
3.661195,-1,-19,3,0,-1,-1,-22,-3,1
3.682823,-4,3,10,-2,-2,-4,5,-13,1
3.684895,-4,-1,3,0,0,-2,-12,-25,1
3.684900,3,4,-5,-3,-2,-5,-16,8,1
3.684902,1,-3,-2,1,0,2,26,0,1
3.696310,-6,6,-4,-3,-1,-2,-16,-15,1
3.696333,4,-6,2,1,-2,-1,4,-6,1
3.706595,0,27,6,-3,0,1,5,-3,1
3.706600,-5,-26,-7,-1,0,-6,-21,-11,1
3.719888,3,-1,0,0,-1,-4,-15,1,1
3.719914,-3,0,-10,0,0,5,47,-24,1
3.721820,1,-1,-4,-2,-3,-4,-43,1,1
3.721825,-2,3,2,0,1,-1,-19,-6,1
3.742155,1,5,-9,-3,-5,-3,33,3,1
3.742176,-8,32,13,-3,-2,-5,-29,-51,1
3.743589,-1,-48,-7,2,-1,-5,-2,3,1
3.743614,-4,6,-5,-7,-2,5,22,-8,1
3.755900,-4,-24,-14,2,1,0,7,-14,1
3.755917,5,15,14,-3,0,-3,-9,-1,1
3.766863,-1,2,-3,0,1,4,8,4,1
3.766874,4,9,8,1,-1,-5,-9,4,1
3.779901,-8,9,8,0,1,1,-3,29,1
3.779922,-3,-17,-6,1,2,1,2,5,1
3.781337,1,-12,-13,-3,-1,-3,-8,1,1
3.781400,-1,44,11,1,1,2,12,19,1
3.802954,1,-29,9,-2,-2,1,9,-12,1
3.802963,-6,-18,-2,1,-2,-2,-8,1,1
3.803873,-1,20,-2,-3,0,-4,7,3,1
3.803881,-1,-36,-11,0,-5,2,-37,-17,1
3.824755,1,22,3,-1,0,-2,-5,-13,1
3.824778,2,4,-2,-1,0,0,-1,6,1
3.826477,0,-10,-1,-3,-4,-4,0,-3,1
3.826548,-13,7,-4,-1,-1,4,24,-1,1
3.839735,10,2,4,1,1,-3,-12,2,1
3.839760,-1,-12,-10,1,0,1,-3,-5,1
3.841326,2,11,6,-1,1,1,20,9,1
3.841339,2,-3,-2,-2,-2,-8,-36,0,1
3.864734,1,-2,4,2,0,3,8,1,1
3.864739,-5,14,16,0,-3,1,13,-14,1
3.864742,-2,0,0,-2,-1,3,-1,-10,1
3.864744,3,-5,2,-1,0,-1,6,-3,1
3.884887,-6,-8,-20,-3,-1,-7,-34,-10,1
3.884905,3,1,-9,-2,1,-2,-6,16,1
3.887039,7,2,-11,0,-1,-1,15,7,1
3.887043,-5,-16,29,4,2,7,-46,8,1
3.900480,4,10,6,-3,-3,-1,15,1,1
3.902947,-2,0,-2,-1,-1,-2,0,4,1
3.902953,3,36,-9,-3,1,3,1,77,1
3.902955,1,-73,-4,2,2,-15,-35,-7,1
3.922196,-10,3,15,-1,-3,13,58,-37,1
3.922212,-4,-5,3,-2,-4,-2,-10,5,1
3.923827,-1,1,1,-2,0,-3,-2,-25,1
3.923834,2,24,-18,-3,-5,-7,2,-1,1
3.945347,-1,-1,-1,0,2,-2,-15,3,1
3.945367,3,-13,-15,-4,-1,-2,-4,-1,1
3.946182,-2,-3,7,1,-2,1,1,-13,1
3.946194,-3,15,-3,-1,-2,-1,24,-2,1
3.959200,-4,-10,0,0,-1,-6,-32,-3,1
3.959212,8,9,-6,-1,3,11,55,11,1
3.966037,-7,-13,1,-1,0,-6,9,-3,1
3.966058,-2,-1,-6,-5,-3,2,6,-18,1
3.982995,-1,46,10,1,0,-4,-10,9,1
3.983027,2,-24,-12,2,-1,-7,-27,-4,1
3.985690,0,-48,11,2,-1,1,11,-3,1
3.985701,-6,15,-7,-1,0,-1,15,3,1
4.004871,10,-25,-35,-4,-6,-6,-20,6,1
4.004879,-5,6,28,-1,-3,-2,29,-3,1
4.006332,1,14,0,2,1,3,-11,-12,1
4.006411,-1,4,-1,-4,-4,-4,5,-7,1
4.019879,2,-2,-18,-3,-1,-7,-24,-4,1
4.019937,0,45,26,5,0,4,2,3,1
4.025816,-4,-39,16,-4,-2,10,2,-3,1
4.025836,-1,-5,-8,-3,-1,0,16,-7,1
4.042333,-10,-10,4,-1,-1,-2,1,-16,1
4.042356,-1,6,-17,-2,-1,-8,-28,-11,1
4.043753,-3,14,-7,-3,-2,-6,-3,-5,1
4.043764,7,6,3,2,1,1,-5,8,1
4.067502,-2,5,6,0,0,3,11,6,1
4.067510,-1,-16,-15,-4,1,-2,-14,2,1
4.067512,-4,13,5,1,0,-3,-17,-6,1
4.067514,0,-10,2,2,1,5,5,7,1
4.079745,3,2,-1,0,1,0,5,4,1
4.079781,-1,-7,-3,0,-1,3,-4,3,1
4.086039,-1,-8,-7,-3,-6,-7,-21,-10,1
4.086064,-2,12,-1,-1,-1,-1,12,-9,1
4.102470,-1,-2,2,0,3,3,8,12,1
4.102494,7,43,-8,-1,1,-1,-22,5,1
4.103806,-11,-70,3,2,-1,-2,43,2,1
4.103849,0,16,12,-1,1,-3,-77,1,1
4.125358,-9,-5,-2,-2,-3,2,11,-26,1
4.125378,-1,-17,-13,-1,-2,-6,-5,20,1
4.127385,1,23,-7,0,2,0,3,-3,1
4.127392,4,25,-15,-1,-1,-4,36,-35,1
4.139229,-3,-49,3,1,-1,-2,-37,-21,1
4.139257,2,19,5,-3,-3,-3,-7,-9,1
4.146040,-8,-13,-1,1,2,2,-7,3,1
4.146063,-4,-10,-5,-2,-1,1,12,1,1
4.162172,6,10,-13,-3,-3,-1,13,18,1
4.162185,-1,2,9,1,-2,-3,3,-4,1
4.163917,2,-1,-6,-1,0,-3,0,1,1
4.164032,2,4,-7,-2,0,4,10,8,1
4.184866,-2,-11,25,2,-1,2,-16,12,1
4.184893,2,-26,-3,-2,-1,1,-14,3,1
4.187121,-5,18,5,-3,-2,-3,-22,-17,1
4.187127,1,-10,-3,-3,-1,-3,6,4,1
4.199561,2,18,-2,1,1,3,20,16,1
4.199675,-5,-11,-1,-1,1,3,9,-5,1
4.205983,5,6,-7,-3,-3,-3,-12,6,1
4.206001,1,32,6,1,1,-1,-1,11,1
4.222448,0,-23,6,3,1,3,9,1,1
4.222452,-6,-11,3,-3,-3,-7,-4,-22,1
4.223589,2,15,-1,2,2,7,-15,40,1
4.223596,4,-2,-4,1,-2,-4,-8,1,1
4.244866,0,12,10,1,2,-4,2,-8,1
4.244887,3,14,-13,-6,-2,4,18,-31,1
4.246837,-4,-24,5,-3,-3,-5,16,-22,1
4.246840,-6,-16,-5,-2,-3,-2,-19,-12,1
4.259037,3,18,-10,0,-1,-1,-21,8,1
4.259060,-2,-8,-4,-2,-1,-3,14,-3,1
4.266253,5,23,1,-1,-1,1,7,-7,1
4.266280,5,17,-4,-3,-2,-2,4,14,1
4.285210,-19,-35,-6,0,-2,-5,1,-8,1
4.285216,2,-5,9,2,0,-1,-8,17,1
4.285218,-4,7,-5,-3,-2,-1,-13,-18,1
4.285220,-3,12,10,0,-2,1,35,2,1
4.304852,8,-18,-23,-3,0,0,3,12,1
4.304870,-7,-1,10,-2,-1,-3,29,5,1
4.306425,5,4,-4,2,2,-2,-48,-4,1
4.306440,-7,-14,1,1,1,3,26,0,1
4.318434,0,7,-4,-7,-5,-3,11,4,1
4.318450,2,-10,-8,1,1,3,13,17,1
4.329068,1,27,5,-3,-1,-4,-13,-43,1
4.329073,-5,-15,-7,-5,-3,-3,-5,21,1
4.342715,0,8,-5,1,0,-3,-4,-4,1
4.342743,0,10,6,1,1,3,-15,-4,1
4.344151,8,14,-6,-3,-1,-4,17,-8,1
4.344155,-19,-34,2,-2,0,1,-14,-59,1
4.364637,4,20,22,-1,-1,2,43,7,1
4.364649,-2,-17,-9,-4,-2,-3,-28,-3,1
4.366681,-1,-7,-7,1,1,1,9,10,1
4.366702,1,-3,5,2,0,-3,-2,2,1
4.378810,2,27,5,-1,-1,-2,-21,-2,1
4.378816,-4,1,0,1,0,-5,-24,3,1
4.388639,-5,-6,15,0,0,3,61,4,1
4.388646,5,2,-4,-2,1,-5,-28,9,1
4.402302,-7,-3,-12,-4,-5,-2,-8,-19,1
4.402319,0,0,0,-2,-1,-2,-13,11,1
4.404373,-4,-29,-11,3,0,-7,-8,6,1
4.404380,-5,33,19,-1,-1,4,-4,7,1
4.425819,-8,-15,9,-1,1,3,15,-19,1
4.425825,-2,-8,-10,-1,-3,-2,10,-5,1
4.426151,1,-3,-3,-1,-1,-1,-12,15,1
4.426157,1,-12,-11,1,0,-4,0,7,1
4.438438,11,5,-10,0,-1,-3,-15,68,1
4.438460,-5,6,15,-1,-2,2,10,-7,1
4.449187,2,-5,-10,2,-1,-1,-9,-1,1
4.449191,-6,-9,-1,-2,-1,-2,6,6,1
4.462511,-3,14,2,-3,0,-3,-15,-20,1
4.462532,5,-18,-10,-1,1,-1,-1,-9,1
4.464053,-11,7,2,0,-1,5,2,1,1
4.464056,5,-8,-3,-1,-3,-8,9,12,1
4.484822,1,11,-8,-1,-2,2,2,-17,1
4.484845,-14,-9,4,0,2,1,24,-4,1
4.486994,7,25,-6,-4,-2,-2,-40,-11,1
4.487002,1,-31,17,1,-3,1,7,-7,1
4.498827,3,6,-7,0,1,-5,-26,-18,1
4.498857,2,36,-16,0,-4,0,-4,21,1
4.509894,-8,-39,26,-1,-1,5,50,1,1
4.509902,7,9,-11,0,1,-1,-12,-3,1
4.522284,-8,-8,1,1,-1,0,7,6,1
4.522415,1,4,-6,-2,-1,-1,-14,-1,1
4.524566,-1,11,-4,-5,-2,-6,-13,4,1
4.524571,5,-5,-6,-1,-3,2,-2,4,1
4.544911,-4,0,9,0,-3,-3,1,-8,1
4.544932,-6,-14,-5,-1,0,2,-18,-72,1
4.546645,0,6,-1,-2,-2,1,11,19,1
4.546648,-2,8,6,-2,2,-2,12,-2,1
4.558345,-1,-6,0,1,1,-1,-52,4,1
4.558366,2,4,-15,-1,0,-5,-7,-3,1
4.567921,-3,-1,11,1,1,-6,-44,-40,1
4.567926,-8,-29,5,-3,-2,11,42,0,1
4.582114,-1,3,-3,-2,-3,-4,15,-7,1
4.582121,0,-5,4,-4,-2,-1,5,22,1
4.583989,2,-4,-17,-1,1,0,-16,-3,1
4.584015,1,9,-8,1,-1,-5,-16,4,1
4.604883,0,-5,1,-1,-3,0,8,-20,1
4.604908,3,-12,-4,-3,-2,1,1,4,1
4.606838,2,25,2,-2,-4,-11,-8,5,1
4.606846,-8,-2,9,2,3,10,7,-10,1
4.618666,3,-6,-7,-3,-1,0,26,8,1
4.618691,-2,3,10,-1,-1,-1,-5,7,1
4.629448,-2,-16,-17,-2,-1,-2,-7,5,1
4.629453,1,23,2,-2,-3,-8,-11,-4,1
4.644778,5,12,-32,-2,0,-11,-9,-1,1
4.644782,3,8,42,4,1,11,43,23,1
4.644784,-21,-26,4,-1,-3,0,13,27,1
4.644785,0,-7,-13,-1,0,-1,-19,-2,1
4.665057,-6,-6,5,0,1,2,10,-5,1
4.665078,5,11,-14,-1,-3,-7,-20,17,1
4.667635,2,3,-2,-2,0,2,14,-4,1
4.667640,-1,-4,1,0,0,-2,-1,-4,1
4.678809,5,9,-6,0,-1,-7,-26,15,1
4.678827,-8,-25,4,2,-1,2,30,-22,1
4.688539,6,4,11,0,0,3,2,-7,1
4.688546,-8,-5,-14,-4,-3,-7,-11,7,1
4.702246,3,-1,3,0,0,2,4,-1,1
4.702263,-2,-4,-6,-2,0,-4,-16,1,1
4.703986,4,2,0,-1,1,2,13,0,1
4.703997,-5,2,-5,-2,-2,-3,-7,-1,1
4.724675,-1,-6,9,-1,-3,-3,-2,-2,1
4.724690,11,60,-49,-2,0,-8,-81,11,1
4.726623,-16,-88,65,3,-4,3,23,-21,1
4.726645,4,3,-5,-3,-2,-4,-10,21,1
4.747680,-3,-13,4,1,-1,5,6,-9,1
4.747710,4,-6,-16,-2,-1,-10,-13,5,1
4.749990,8,32,-23,3,3,-1,-9,4,1
4.749997,0,-1,0,0,-2,2,-3,-4,1
4.762232,-4,-11,7,-1,-1,-4,4,0,1
4.762254,-2,-19,-14,-2,0,-6,-14,45,1
4.764760,-6,33,17,-1,-5,4,21,-1,1
4.764764,1,-11,7,0,1,0,8,-18,1
4.784820,14,17,-4,1,1,1,2,40,1
4.784834,-29,-20,2,0,-1,-1,1,-24,1
4.786313,6,1,-17,-4,0,0,-4,4,1
4.786326,1,-2,-11,0,-3,-4,-10,-3,1
4.807208,-3,0,2,-3,-3,-1,-11,-23,1
4.807229,12,60,-2,-1,0,-2,27,-3,1
4.808770,-10,-76,7,5,3,10,6,8,1
4.808776,0,11,0,-1,-1,0,5,-2,1
4.822357,-4,-8,2,-1,-1,0,4,-6,1
4.822374,-3,-12,6,-1,-2,0,13,-8,1
4.823939,5,37,-23,-4,-2,-4,-11,3,1
4.823946,-1,-2,-1,0,-2,-3,27,4,1
4.846497,-3,-11,-2,-2,0,2,-19,-12,1
4.846502,-2,-16,1,-2,-2,2,5,-8,1
4.846504,5,23,-5,2,2,-4,-17,-7,1
4.846506,-4,-15,-1,0,1,5,18,0,1
4.867282,-14,15,12,0,-2,-6,-1,-43,1
4.867301,2,-6,17,-1,-2,2,1,8,1
4.869830,6,-1,-9,0,-1,-3,6,-2,1
4.869836,-3,3,-4,0,1,-3,-19,1,1
4.882659,0,0,-5,0,0,-2,4,-5,1
4.882688,3,9,-27,-4,-1,-8,-26,-15,1
4.885134,-16,-8,47,-4,-4,10,17,3,1
4.885140,-2,-1,-6,-1,0,-4,-20,22,1
4.904859,3,2,-5,-4,-1,1,12,6,1
4.904888,-5,-26,8,-1,-1,-1,2,-6,1
4.907676,12,35,-20,0,0,-6,-13,6,1
4.907681,-3,1,-2,-1,-2,0,3,-6,1
4.927648,-2,-12,2,-3,-1,3,1,10,1
4.927670,0,5,13,1,1,1,3,6,1
4.928986,-4,0,-20,-2,-1,-5,-7,-4,1
4.929001,2,3,21,1,0,2,-4,-6,1
4.941593,2,0,-10,0,-2,-2,-2,7,1
4.941608,-6,-5,14,-2,-1,2,12,-12,1
4.948572,-1,2,-11,-1,0,0,-15,1,1
4.948589,-2,-16,-15,-5,-3,-1,10,-8,1
4.965379,3,-2,0,-1,3,1,1,11,1
4.965406,-7,15,32,2,-3,3,-1,-15,1
4.967550,7,-6,-11,-3,0,-3,-1,55,1
4.967556,-11,11,0,-1,0,-1,-5,1,1
4.987343,1,-10,-13,-2,-2,-5,-28,-2,1
4.987361,-4,10,-15,-3,-1,2,69,-7,1
4.988763,-2,-22,-1,-3,-2,-2,-45,-21,1
4.988775,6,-11,-3,0,0,-2,-7,-11,1
7.012167,-3,20,1,0,-1,-2,-4,-80,0
7.012393,7,4,-2,0,0,0,-2,6,0
7.012875,-20,-16,-4,0,-5,-4,-5,-17,0
7.012940,48,0,0,-5,-1,1,1,19,0
7.027269,-71,-17,-6,-13,-6,-1,-1,-3,0
7.027382,57,30,1,11,2,-2,-2,6,0
7.027385,-20,-9,-6,-9,-6,-1,2,4,0
7.027386,-48,-12,3,5,2,-1,-4,-8,0
7.048981,45,-22,-1,0,-2,-2,0,28,0
7.048998,-17,49,2,-4,-2,-2,1,5,0
7.050344,-2,-23,-2,1,-1,1,4,9,0
7.050353,13,1,-6,-11,-6,0,-1,-1,0
7.072357,-1,11,2,6,3,-1,0,8,0
7.072362,1,-5,3,-1,-1,0,-1,2,0
7.072977,6,12,-2,1,0,-3,-2,-8,0
7.072987,-10,-13,-2,-1,2,0,-4,-41,0
7.088206,23,4,-3,-14,-3,-2,2,12,0
7.088212,-9,10,1,13,2,0,-1,-8,0
7.094139,-10,10,-2,-1,-2,0,-1,3,0
7.094160,5,-4,2,-2,0,0,-1,3,0
7.109372,-23,1,-3,-4,-3,-3,-5,-16,0
7.109393,14,2,0,-4,0,0,-1,8,0
7.110364,-22,-12,-1,-6,-1,1,3,64,0
7.110367,32,27,-2,-1,0,-1,1,22,0
7.132852,-18,-34,2,9,2,-2,-7,2,0
7.132883,-17,38,0,-5,-1,1,3,7,0
7.135127,31,-14,2,1,-5,-2,-2,-15,0
7.135131,-8,-24,-7,-7,-1,-2,-1,-5,0
7.147075,15,8,-2,-2,-3,-1,2,13,0
7.149092,2,-4,2,1,-1,1,-1,-11,0
7.149099,6,7,-1,-5,2,0,-2,-5,0
7.149103,-4,-4,-4,-9,-2,0,1,5,0
7.169105,0,17,3,12,3,-2,-4,-19,0
7.169122,39,-41,-2,1,-2,-2,1,32,0
7.169847,-39,-16,-5,-2,1,0,0,-12,0
7.169860,-44,-31,-4,-3,-3,-2,-4,-1,0
7.192620,2,22,2,-2,-2,3,2,5,0
7.192642,9,-11,-3,-7,-4,-6,-6,-14,0
7.194683,38,-12,-3,3,1,-1,-2,-10,0
7.194690,15,25,1,1,1,0,0,10,0
7.206475,-2,-16,-2,-2,-2,2,-2,5,0
7.206492,-4,0,-2,-3,0,-2,-5,-29,0
7.207499,-5,7,0,-1,-1,-2,-1,-21,0
7.207502,15,-4,0,4,-1,-1,-4,-11,0
7.229709,-10,-3,-1,-1,-1,0,2,8,0
7.229713,-42,-5,-1,-4,1,1,3,-8,0
7.229715,6,-1,0,7,-1,-3,-4,-8,0
7.229717,1,-10,0,0,0,0,-3,4,0
7.252242,23,16,0,-5,-2,-2,0,-3,0
7.252258,-4,14,0,1,2,-1,2,-2,0
7.254095,-22,-56,-1,-2,-2,-1,-2,1,0
7.254099,5,-9,-3,6,0,-3,-2,2,0
7.266294,-4,36,-2,-2,-2,0,1,7,0
7.266322,27,-13,-5,-4,-7,-2,-1,-1,0
7.275727,-58,54,4,2,3,0,0,-3,0
7.275733,29,-37,-2,-5,-3,-1,0,4,0
7.292327,5,16,0,2,-1,-3,0,3,0
7.292332,-14,-20,0,-1,0,-1,-3,-5,0
7.292334,24,19,1,-4,-2,-1,-1,-4,0
7.292336,-21,7,4,4,1,-3,-2,-42,0
7.312670,0,2,0,0,0,0,-1,7,0
7.312691,5,-23,-6,-5,-2,-1,-1,4,0
7.314538,16,32,3,1,-2,0,-1,-2,0
7.314543,-36,-17,-3,-8,-3,-1,-1,-6,0
7.326217,45,24,2,6,3,-5,-2,-21,0
7.326245,-28,-4,-1,-3,-3,-3,-2,-4,0
7.334112,23,6,0,-9,-1,-2,0,-2,0
7.334131,-13,9,0,12,1,1,4,13,0
7.349535,-9,-14,-1,-18,-3,0,-1,-4,0
7.349563,28,4,3,10,0,0,2,-8,0
7.352006,5,0,-5,2,0,0,0,17,0
7.352010,-19,35,6,-4,-2,-1,-1,6,0
7.372334,6,8,-7,-5,-3,1,-2,7,0
7.372349,5,-9,0,-5,-1,0,-4,-18,0
7.373051,-9,-14,-3,-2,-2,-2,1,-14,0
7.373064,-4,-5,1,1,-1,0,1,5,0
7.385911,-11,-5,0,4,0,-1,0,14,0
7.385927,-12,-3,-1,-2,1,-1,-2,7,0
7.394419,30,12,4,4,2,-1,0,-4,0
7.394450,-31,-36,-2,-7,-2,1,0,11,0
7.409575,0,-31,-4,9,3,-3,1,-1,0
7.409603,0,18,-1,0,0,-1,0,7,0
7.411840,-2,-16,-2,-1,0,-3,-2,-4,0
7.411843,-6,6,0,-3,-3,-3,-3,-10,0
7.432208,22,5,-3,-5,-4,0,0,1,0
7.432220,-39,-11,-2,-3,-3,-1,-5,-41,0
7.433016,32,17,4,3,0,0,-3,10,0
7.433092,-20,-13,-3,4,-1,0,1,6,0
7.446936,-21,-28,1,6,1,-3,-1,-6,0
7.446941,6,15,-5,-6,-1,-1,1,-24,0
7.454111,-17,20,0,1,-2,0,-1,-8,0
7.454135,29,9,-4,-9,-5,-2,-1,2,0
7.469111,-8,-25,-1,2,2,-1,-1,0,0
7.471214,-9,-8,0,-1,-1,0,-3,-34,0
7.471218,-12,-17,-2,-3,0,0,1,-10,0
7.471220,42,24,-2,-3,2,1,0,13,0
7.492921,-24,-7,-1,-1,-2,-1,-4,-9,0
7.492928,-12,7,0,-4,-3,-1,-3,3,0
7.492929,-7,-20,-4,-2,-4,-2,-1,-7,0
7.492931,10,11,1,4,2,-3,-1,0,0
7.507957,9,0,0,-3,-2,0,-1,-4,0
7.507961,12,2,1,3,1,0,3,29,0
7.514379,-15,-9,-3,-3,-2,-1,-1,5,0
7.514400,12,-13,2,-1,-1,-1,1,5,0
7.529354,-7,36,-10,-5,1,-3,-3,-4,0
7.529456,12,-6,-2,-3,-2,-2,0,26,0
7.531206,-10,-5,-4,0,1,0,-3,-21,0
7.531211,38,-3,4,-2,0,-1,-2,17,0
7.553458,-37,14,-1,-8,-6,0,0,-8,0
7.553463,-2,1,0,10,1,-1,0,18,0
7.553465,-15,-19,-3,2,-2,-1,-2,-6,0
7.553466,6,9,-9,-14,-2,-1,0,-5,0
7.575106,20,-8,5,12,5,-1,-5,2,0
7.575122,3,2,0,0,-3,-1,0,-17,0
7.576915,-12,-9,1,0,-1,0,-4,7,0
7.576923,-11,-24,-6,0,-1,1,-1,-9,0
7.589129,37,22,2,-3,-1,1,-1,81,0
7.589196,-69,-37,-6,-8,-2,1,0,-3,0
7.589779,3,-4,-2,1,1,0,2,-25,0
7.589864,-15,10,3,0,-1,-3,-4,-17,0
7.612167,3,-5,-1,-2,-4,-3,1,-32,0
7.612188,39,4,6,3,1,1,-1,19,0
7.614504,-30,-15,-8,-7,-3,-2,-1,12,0
7.614509,5,15,-3,-2,-1,0,0,8,0
7.634686,-5,-19,2,-1,2,-1,1,-8,0
7.634703,-16,3,0,4,1,2,2,8,0
7.635563,13,7,2,-1,0,0,1,5,0
7.635579,1,33,-3,1,0,-2,0,-5,0
7.649607,1,-11,-2,-3,1,1,-1,-3,0
7.649627,4,-4,-8,-24,-2,-2,-2,3,0
7.650501,-5,3,4,20,-3,-2,-1,9,0
7.650544,8,8,4,6,1,-1,-1,-12,0
7.672350,-6,-6,1,0,-2,-2,-1,-5,0
7.672371,-9,-21,-4,-2,-3,-1,0,12,0
7.674635,27,25,1,-7,0,-2,-1,5,0
7.674639,-4,-16,-4,-6,-3,-1,-2,-4,0
7.695043,-45,-32,-5,3,1,0,1,-10,0
7.695059,13,25,2,3,-2,0,-1,20,0
7.695521,-4,-16,-5,-8,-2,-2,-3,3,0
7.695581,1,-19,2,2,-3,-1,-1,-2,0
7.709246,10,5,1,-2,1,1,8,27,0
7.709273,7,3,2,0,-2,-4,-2,-5,0
7.709967,-7,5,1,-2,0,0,2,1,0
7.709984,-8,3,-2,2,0,0,1,24,0
7.732343,11,-7,-3,-1,-4,-1,-2,-16,0
7.732366,-4,-3,-1,1,0,-1,-1,-9,0
7.734544,6,8,1,-2,1,1,-2,2,0
7.734550,-12,-10,0,0,2,-1,-2,-27,0
7.754761,25,22,1,-1,-2,-2,-2,-4,0
7.754783,-3,-20,-1,5,-4,0,0,-1,0
7.755394,-15,-6,-3,1,3,-2,-3,23,0
7.755409,5,7,-2,-3,-1,-2,-1,3,0
7.769045,-49,-33,-2,-3,0,0,-1,-6,0
7.769053,5,14,-2,-4,-1,-2,2,19,0
7.769755,-19,-5,3,-1,-3,0,1,-9,0
7.769767,10,9,-2,1,1,-2,0,5,0
7.792859,11,14,2,-1,-2,-2,-3,-5,0
7.792896,-12,-8,-6,-2,5,-1,2,-10,0
7.795476,12,-11,-2,0,-1,-2,0,-5,0
7.795480,-8,-1,0,-3,-4,-2,-2,-4,0
7.814836,8,1,-2,-3,-1,0,-1,-3,0
7.814842,5,-3,2,1,-2,-1,-5,-6,0
7.815288,10,11,-5,-4,-2,-1,0,-1,0
7.815293,-9,-13,-1,1,0,0,-1,8,0
7.829410,22,21,2,-3,-1,-3,-2,-32,0
7.829421,-4,-10,-4,-3,-2,-1,0,34,0
7.829800,7,-11,-4,-2,-2,-2,-2,-6,0
7.829830,-8,0,2,-2,0,0,-3,-15,0
7.852354,29,10,0,2,0,0,0,7,0
7.852371,-50,-35,-1,0,0,-3,-5,-38,0
7.854453,24,0,-6,-5,-4,0,1,25,0
7.854461,-7,-14,1,-1,2,-1,-2,8,0
7.877756,1,-10,-6,-4,0,-1,0,-9,0
7.877764,27,33,6,9,-3,0,1,-30,0
7.877766,-41,-19,-5,-3,-1,-1,-1,-9,0
7.877768,16,-1,6,14,0,-2,0,-5,0
7.889614,15,9,-3,1,1,-1,1,9,0
7.889634,9,14,-1,-1,0,0,-3,-6,0
7.892150,-4,-14,3,-3,0,-1,-3,-6,0
7.892157,-18,4,-2,-5,-4,1,1,2,0
7.912885,-9,-3,-1,-3,-5,-2,-3,-3,0
7.912998,26,5,0,3,1,0,0,11,0
7.914517,-7,19,-1,-3,1,2,6,27,0
7.914522,-16,-6,-1,2,2,-1,-1,0,0
7.935002,-4,-2,0,1,-1,-3,-2,1,0
7.937343,7,3,-2,-4,1,0,0,8,0
7.937353,1,-4,2,1,-1,0,-3,-7,0
7.937355,11,25,-3,-2,0,-1,-1,-4,0
7.949489,-39,-8,-3,-2,-1,0,3,16,0
7.951978,-3,-11,6,1,-2,-3,-8,-60,0
7.951982,16,1,-10,-2,0,-1,-3,-10,0
7.951984,7,2,3,-2,-1,-1,-4,5,0
7.972298,-7,5,-3,-3,-2,0,-2,-13,0
7.972322,-6,12,-1,-5,-2,0,-1,0,0
7.973173,9,0,5,3,0,-3,-3,-10,0
7.973192,-1,-14,-5,-18,-4,0,1,-8,0
7.995031,9,-11,4,16,4,0,-2,-3,0
7.995051,-9,-10,-5,-3,-3,-1,0,13,0
7.996809,-2,25,2,-4,-2,0,0,-42,0
7.996812,-2,-5,-5,-5,-3,0,-1,10,0
8.009026,-15,7,3,1,1,-1,-1,-10,0
8.009047,18,18,4,-3,0,-2,0,43,0
8.010364,-31,-28,-9,1,-4,-2,-6,-12,0
8.010370,-15,-13,-1,1,0,-3,-3,-15,0
8.033539,4,-3,-4,-10,-5,-2,-2,-20,0
8.033602,12,6,-3,0,3,0,1,13,0
8.033604,0,0,3,-2,-1,-2,0,-20,0
8.033607,-1,2,-4,3,-1,-1,1,39,0
8.054812,-1,-9,0,-3,-2,0,0,6,0
8.057188,-7,6,-7,-4,-4,-1,0,-4,0
8.057192,10,13,7,1,0,0,0,-1,0
8.057193,-16,-25,-8,1,-1,-1,-5,-11,0
8.080191,1,3,-1,-2,-3,-2,-1,0,0
8.080194,-5,-14,0,0,-1,0,0,-2,0
8.080197,3,7,-1,2,2,-1,-1,14,0
8.080199,6,-7,-6,-4,-3,-2,4,33,0
8.092360,1,2,13,6,2,1,1,-16,0
8.092388,-1,-5,-2,-1,0,-1,-4,-3,0
8.095041,10,7,-1,0,0,0,0,3,0
8.095046,-31,-10,1,0,-1,0,-1,-19,0
8.115275,3,-6,-4,-3,-1,-1,-3,-2,0
8.116491,-2,27,-1,-4,-1,-2,1,-20,0
8.116497,29,-29,2,1,1,-1,-1,11,0
8.116499,0,15,0,0,-2,-3,3,75,0
8.129077,-16,5,-14,-6,-4,-1,-2,7,0
8.129094,-12,-16,0,1,-2,-1,0,-12,0
8.129946,13,17,-4,-2,1,-1,-2,19,0
8.129964,16,0,6,0,1,-1,-1,-31,0
8.152456,2,13,1,-4,0,-1,-1,6,0
8.152482,8,7,-2,4,-1,1,-1,12,0
8.154432,-20,-2,0,0,-3,-1,-3,-3,0
8.154437,5,0,-5,-7,-4,-2,-2,-13,0
8.174623,1,-1,3,2,-3,-2,1,9,0
8.174635,1,-10,-5,-9,-4,-3,0,-5,0
8.175284,-4,1,-5,-18,-1,-1,1,1,0
8.175296,1,3,6,21,1,0,0,20,0
8.188421,4,-9,5,-1,1,1,-1,7,0
8.188455,-5,-7,-5,0,-1,-1,-2,39,0
8.196829,-6,27,0,-1,-2,0,1,-5,0
8.196850,12,10,-3,-5,-1,0,1,-20,0
8.212821,-12,-9,-3,-6,0,-1,-1,33,0
8.212849,-1,-15,0,1,1,-1,-2,-18,0
8.214490,-10,-8,-3,-1,1,-1,1,44,0
8.214496,2,3,-1,-1,0,-1,-4,-17,0
8.235604,21,27,-1,2,-3,0,1,-11,0
8.235612,-18,10,-3,-6,-1,-3,-5,-27,0
8.235614,6,3,3,8,-1,-1,-2,-12,0
8.235615,6,-3,0,-2,-2,1,-1,-17,0
8.251297,1,-6,-1,-1,1,0,0,3,0
8.251308,3,5,1,0,-2,-2,1,12,0
8.257002,-4,-8,-1,2,-2,-2,-1,-14,0
8.257025,-4,5,-2,-5,0,0,0,-2,0
8.272298,10,-15,-5,-7,-3,0,-1,-18,0
8.272320,-11,-28,-6,0,4,-2,-2,12,0
8.274463,-11,7,6,13,5,0,0,-4,0
8.274467,3,-7,4,4,-3,-2,-4,-22,0
8.297285,-14,38,-4,-3,-1,-2,-2,-6,0
8.297290,22,-33,-1,-1,-1,1,1,27,0
8.297292,15,-18,-4,-7,-4,-2,-3,-1,0
8.297294,-5,5,-2,-4,0,0,2,-4,0
8.308684,-14,-5,7,5,1,-1,-5,3,0
8.308705,29,19,-3,-1,-4,-1,-2,1,0
8.316767,-4,12,-1,-2,-3,-1,-1,-9,0
8.318847,3,-7,-3,0,0,0,-1,4,0
8.333158,-6,-7,-4,-6,-4,-2,-2,-11,0
8.333201,-6,9,4,0,-3,0,0,-18,0
8.333206,6,-26,-2,1,-3,-1,4,62,0
8.335332,-11,26,-3,-1,-2,0,0,-15,0
8.354695,-2,-3,-2,-9,1,-2,2,3,0
8.354714,-8,3,2,2,0,0,-1,-22,0
8.356282,0,3,-2,9,0,-1,-3,-21,0
8.356294,-8,-2,7,2,1,-3,-2,-3,0
8.368508,8,-11,-6,-11,-6,0,1,10,0
8.368529,-10,-9,-2,13,4,0,2,9,0
8.377261,-5,11,-2,-7,0,-2,-2,-22,0
8.377281,-5,-17,-4,-6,-2,-1,-5,-9,0
8.392292,19,-13,2,6,1,-1,0,26,0
8.392304,-38,31,0,-8,-4,-2,-2,-3,0
8.392865,41,16,-2,-4,-1,0,2,-9,0
8.392877,-20,-51,-7,-1,-4,-4,-5,-19,0
8.415025,-9,5,-3,1,0,-1,0,13,0
8.415053,-2,-3,-2,-3,0,-1,-1,0,0
8.417621,4,8,2,1,0,-1,-1,4,0
8.417627,18,18,-1,-3,0,0,2,15,0
8.428315,-3,-9,0,3,-3,-1,-2,-8,0
8.428337,7,-8,0,-4,-1,-2,-3,-37,0
8.436830,-30,-11,-2,1,-1,0,-4,-21,0
8.436851,12,-10,-1,0,-4,0,0,-13,0
8.452162,-2,11,3,11,4,-2,-1,-3,0
8.452173,-25,-16,-4,0,-4,0,-2,-10,0
8.452936,0,1,4,-3,-2,-2,-2,-6,0
8.452942,-3,12,-4,-4,-2,0,2,5,0
8.475031,-24,-19,-3,-5,0,-3,-4,-20,0
8.475052,36,8,8,7,-2,1,2,28,0
8.476840,-29,-8,0,-4,2,-3,-5,-1,0
8.476843,12,-4,1,2,1,1,-1,-5,0
8.488637,12,19,-7,0,-3,0,-2,-9,0
8.488659,8,-5,-5,-11,-1,0,0,-4,0
8.499073,-15,-8,1,-1,-4,-1,0,2,0
8.499077,15,19,3,1,1,-1,-2,15,0
8.514235,-23,-12,-4,0,0,-2,-4,-6,0
8.514240,-3,-21,-4,-6,0,1,-1,1,0
8.514242,-5,-1,-3,-4,-5,-3,-3,-22,0
8.514244,-10,-1,3,0,-1,0,-2,-38,0
8.534905,21,-4,-2,-1,-3,0,2,-5,0
8.534991,-9,8,3,-1,0,-2,2,42,0
8.535600,29,6,-2,-3,1,-1,0,9,0
8.535689,-30,-19,-5,3,0,-3,-3,-6,0
8.557744,5,0,1,-4,0,0,0,9,0
8.557763,-5,-10,-1,3,-2,-1,-2,-14,0
8.560337,4,30,-3,-4,-3,-2,-2,-15,0
8.560344,4,-3,0,-5,-2,-2,0,11,0
8.570962,8,3,0,-6,0,-2,-1,-14,0
8.570990,1,3,4,8,-1,-3,0,2,0
8.580915,13,-7,3,3,1,1,-1,10,0
8.580919,-16,-36,-8,-10,-3,-4,-7,-30,0
8.594620,-30,-19,0,5,-1,1,2,26,0
8.594632,19,8,-3,4,2,-1,0,-7,0
8.596361,-9,-14,4,-2,-2,-2,1,9,0
8.596474,15,24,-1,0,-1,-3,-2,-5,0
8.617270,-3,-21,1,1,1,-2,-4,-17,0
8.617296,-7,7,-1,-6,-1,-2,-1,35,0
8.619238,-7,-8,-4,1,0,0,0,-5,0
8.619244,7,12,0,-1,-1,0,-1,16,0
8.631103,11,10,1,-1,0,-1,1,-4,0
8.631125,-7,-2,0,2,0,-1,-1,-9,0
8.641889,-8,-3,-3,-1,1,-2,-2,-6,0
8.641894,4,6,1,1,0,1,2,11,0
8.657139,0,-5,-3,-1,0,0,-1,-3,0
8.657143,0,0,-2,-4,-1,-2,-2,-17,0
8.657145,13,-1,-1,9,-1,-1,-3,-2,0
8.657147,-16,1,2,0,0,0,1,1,0
8.677406,8,-7,-3,-14,-6,-2,-5,-43,0
8.677427,-41,23,-4,14,2,-1,-1,-2,0
8.679319,-14,-17,3,-4,-4,-1,0,-2,0
8.679322,4,16,-2,3,4,-1,1,11,0
8.690881,6,-20,3,-1,-1,0,1,-4,0
8.690899,13,13,4,-8,-5,-1,-1,13,0
8.702415,17,8,-8,1,5,0,2,61,0
8.702421,-17,15,-4,0,-2,-1,0,-15,0
8.715349,2,14,-3,-1,-1,-1,0,15,0
8.715376,1,-15,-3,-4,-3,1,-3,-7,0
8.717778,-10,0,4,1,-2,-1,2,-10,0
8.717785,8,-6,-3,-2,1,0,-1,6,0
8.737214,-3,11,4,8,1,0,0,6,0
8.737231,7,-7,-5,-10,-2,-2,-2,-9,0
8.739011,-11,3,-2,1,-1,0,-3,-43,0
8.739026,22,-1,6,4,2,-2,0,4,0
8.751028,-16,-8,1,3,-2,-3,-1,-5,0
8.751051,-6,14,-2,-4,-2,-3,-4,-13,0
8.761584,-2,-14,-4,-4,0,-1,-3,-4,0
8.761588,1,2,-2,-8,-3,-1,1,9,0
8.775530,16,-2,-2,5,1,2,-2,6,0
8.775557,-9,-12,0,-3,-1,-1,1,-7,0
8.777550,-7,-5,-4,-3,-1,0,-1,2,0
8.777554,23,4,0,2,-1,1,-1,1,0
8.797386,-1,22,-3,-1,0,-2,-1,2,0
8.797404,4,-16,-3,-2,1,-1,-1,0,0
8.798629,-9,1,5,-3,-2,-1,1,-2,0
8.798725,-5,-47,4,0,0,2,6,82,0
8.812562,25,6,-17,-9,-4,0,-7,-18,0
8.812567,17,4,0,10,6,-2,-2,-29,0
8.818498,-9,-8,-2,-5,-3,-3,-6,-1,0
8.820628,-4,7,1,-4,-1,-3,-4,-31,0
8.835035,-10,0,3,2,0,1,1,-20,0
8.835072,0,-6,-2,-6,-3,-1,1,10,0
8.836435,12,2,0,1,0,0,-2,-4,0
8.836455,14,12,-3,-1,-1,-2,-2,-13,0
8.858675,-41,-26,-2,-8,-2,-3,0,-7,0
8.858678,6,10,-2,1,0,-2,-4,-9,0
8.858682,9,-6,-4,-3,0,-1,-1,1,0
8.858683,-7,15,-1,0,-2,-2,-1,-8,0
8.873923,-20,-20,0,-1,1,-1,2,22,0
8.873927,6,-6,1,-2,-1,0,1,3,0
8.878977,-2,9,-1,-1,-3,-3,-1,4,0
8.878995,-6,-8,-4,0,0,-1,0,-5,0
8.894852,18,16,2,1,-2,-2,1,1,0
8.896259,-16,2,0,-4,0,0,0,3,0
8.896265,-9,-20,-1,-1,-1,1,0,-9,0
8.896267,20,41,0,4,4,0,4,21,0
8.917356,3,3,-3,-6,-6,-1,-3,-3,0
8.917373,-2,-8,-1,10,2,0,1,20,0
8.919415,-23,-6,-4,0,-1,0,0,14,0
8.919420,-9,-9,-2,-2,0,-2,-3,-18,0
8.932307,-4,1,2,4,1,0,-3,12,0
8.932345,13,10,-1,-5,-4,-3,0,-1,0
8.938540,9,9,1,-4,-3,-1,1,-21,0
8.938570,-18,-17,-2,0,-1,-3,-5,-8,0
8.954781,2,9,1,-4,-3,-5,-4,-10,0
8.954798,2,-7,0,-1,1,0,-1,-9,0
8.956412,8,9,4,3,-1,-1,2,25,0
8.956430,-12,-11,-1,-7,-5,-2,-5,-14,0
8.977847,-2,-12,-2,-4,-4,-2,0,2,0
8.977877,-24,16,6,7,2,-2,-3,18,0
8.979556,-2,-10,-9,-2,1,0,-2,0,0
8.979563,9,4,-1,-1,-1,0,0,-8,0
8.991582,-12,-17,-2,-2,-1,1,-2,-11,0
8.991602,-1,2,-1,-6,-3,-1,-1,-10,0
8.998430,-4,-17,-2,-1,-2,-1,-2,-12,0
8.999668,9,-2,-1,1,-4,-1,1,-1,0
9.014594,3,-5,1,4,1,-1,-3,6,0
9.014601,-14,1,6,1,-2,0,0,-4,0
9.016269,26,46,-11,-5,0,-2,-3,-3,0
9.016288,-2,-11,0,0,-4,-2,-7,-81,0
9.037446,1,9,0,3,0,1,1,22,0
9.037543,16,-5,1,-3,2,-1,0,-11,0
9.039511,-2,3,6,1,0,-1,0,-17,0
9.039518,-23,-7,-3,3,-4,-2,-2,-11,0
9.051256,13,9,-1,1,-4,-1,1,-3,0
9.051308,-2,-14,-4,1,-2,0,0,-2,0
9.062050,-12,-13,1,0,-1,-2,0,-2,0
9.062054,4,19,-4,-6,-2,-1,1,20,0
9.075280,-10,-9,2,-4,1,0,2,3,0
9.075306,8,-17,-5,-1,-2,-1,0,9,0
9.077932,5,9,1,-8,-6,-3,-5,2,0
9.077935,-7,-5,3,4,5,1,3,15,0
9.097639,2,13,-2,-1,-2,-2,0,-36,0
9.097710,-4,-7,-7,-5,-1,-1,-2,12,0
9.099165,-2,-7,0,1,-1,0,1,1,0
9.099168,3,-5,-2,-5,0,-1,0,6,0
9.110751,3,-1,2,2,1,0,-1,-6,0
9.110763,-6,-12,1,-1,0,1,3,-9,0
9.121112,17,24,-1,-1,-2,-2,-4,-8,0
9.121118,11,5,-5,-3,-2,-2,0,18,0
9.135152,-13,3,2,-1,2,0,2,9,0
9.136975,11,11,1,-8,-3,-2,-2,-4,0
9.136981,-20,-9,4,-1,1,1,3,5,0
9.136983,-8,-4,1,13,3,-1,-2,-6,0
9.157220,5,-9,-3,1,-3,-3,-4,9,0
9.157233,-2,-2,-3,-8,-6,-5,-3,-31,0
9.158629,-6,-28,-3,2,3,0,2,24,0
9.158642,9,-18,-2,-6,0,-1,3,50,0
9.172461,6,7,-1,-2,1,-2,-4,-2,0
9.172465,5,-1,-1,2,-1,0,-3,-11,0
9.180872,-7,6,-1,-2,-2,1,0,-4,0
9.180879,-4,1,-2,-2,-3,-1,-2,-10,0
9.194773,-6,9,-2,-1,-1,1,0,10,0
9.194793,9,-18,-3,-3,-2,-1,0,8,0
9.196291,-11,7,-4,4,-1,-3,-5,-17,0
9.196324,-13,-21,5,0,1,-1,-6,1,0
9.218509,-3,0,2,1,0,-2,-2,-31,0
9.218515,-2,25,-2,2,-1,0,1,2,0
9.218840,0,-12,-3,-4,-1,1,3,-4,0
9.218850,1,5,0,-4,-3,-1,-2,-9,0
9.231052,10,1,-1,0,-1,0,0,9,0
9.231075,-28,4,1,0,2,0,1,5,0
9.241090,18,3,-5,1,-1,-1,-2,0,0
9.241094,-10,26,-3,-7,-2,-1,-1,-12,0
9.254736,1,-9,-3,2,1,0,2,1,0
9.254751,6,-2,3,4,-1,-1,-3,5,0
9.256246,6,0,1,-3,-1,1,0,0,0
9.256333,-25,-14,1,1,3,0,-1,0,0
9.277679,11,30,-6,-1,0,-1,-2,2,0
9.277708,6,-10,0,0,-3,-1,-2,-2,0
9.280021,-5,-3,1,1,0,-1,-1,-3,0
9.280024,6,10,-2,-5,-1,-1,0,-7,0
9.291569,-5,-6,-1,-3,-5,-2,-1,4,0
9.291589,-4,-1,-2,0,1,-2,-3,-3,0
9.301802,5,0,4,-4,-3,-2,-1,-2,0
9.301808,2,-5,-1,8,1,0,2,3,0
9.314765,4,2,0,-3,-1,-2,1,6,0
9.314798,10,-14,-4,-2,-2,0,-3,0,0
9.316329,-18,-3,0,-1,-5,-3,1,35,0
9.316350,10,8,-4,1,-2,-2,-4,0,0
9.337220,-2,-20,-4,-3,-1,2,4,29,0
9.337245,7,16,5,4,0,-1,0,-23,0
9.339103,-19,-32,-7,-3,-2,0,-1,-16,0
9.339121,13,3,-1,-2,-3,-2,0,3,0
9.351272,-10,-5,-1,3,-1,-2,-1,-3,0
9.351304,9,12,-3,-4,-2,-1,-1,-16,0
9.361261,1,-4,6,-2,3,0,-1,-3,0
9.361266,-6,-5,0,-4,-2,0,-1,-8,0
9.375942,-1,-5,0,-4,-2,-1,-3,-12,0
9.375947,-11,-12,2,2,-2,1,4,13,0
9.376108,-17,2,-5,-1,-3,-2,-5,-7,0
9.376114,2,-1,0,-1,-1,0,0,7,0
9.397600,-5,0,0,-1,-1,-2,-1,-23,0
9.397621,17,7,-2,-6,-4,-1,1,21,0
9.399386,-36,-23,-3,2,1,-1,-1,-1,0
9.399392,0,-8,-6,-3,0,-2,-2,-12,0
9.411386,8,-1,2,-3,-2,0,-3,-1,0
9.411406,-18,-5,0,6,2,-3,-3,-6,0
9.420693,20,28,1,-1,-4,1,0,-11,0
9.420700,-7,-20,0,-4,-2,1,-1,0,0
9.435054,-6,-26,-3,1,1,-3,-1,15,0
9.435069,24,21,-1,-3,-1,-2,-1,1,0
9.437066,-1,22,-4,-6,0,0,-2,-3,0
9.437071,-2,-9,-3,2,-1,0,-1,1,0
9.457170,1,5,1,-2,-2,0,-1,-5,0
9.457191,-4,-3,-2,-1,-1,0,-1,2,0
9.458820,5,-22,1,-1,-1,-1,3,50,0
9.458839,-5,2,-3,-9,-2,-1,0,8,0
9.480143,-3,8,-2,-5,4,2,0,-3,0
9.480172,-5,-15,1,6,-2,-2,-2,4,0
9.481813,-11,-4,-4,1,3,-1,0,-20,0
9.481818,0,12,7,6,-3,-1,-4,-2,0
9.495099,4,1,0,1,4,-1,1,12,0
9.495127,-9,-3,-5,-4,-1,0,-1,-6,0
9.496605,8,-1,-1,-5,-3,-1,1,-7,0
9.496616,-2,1,-2,-1,-3,-1,2,-5,0
9.519018,22,-12,-1,0,-4,-1,-2,-5,0
9.519025,-49,-11,-4,-8,-3,-1,-1,-1,0
9.519027,27,19,2,4,-1,-1,-1,-5,0
9.519028,-39,-43,-6,-9,-4,-2,-1,0,0
9.539864,-2,-6,0,4,1,-2,-2,23,0
9.539933,10,-1,0,0,-1,-2,-2,4,0
9.541191,-9,3,1,-1,-2,-2,-6,-39,0
9.541220,30,-2,-5,-1,-1,-2,-2,-3,0
9.554879,-19,8,-2,0,-3,-1,-1,-15,0
9.554899,6,-8,1,1,1,-1,2,39,0
9.556343,-11,1,0,1,1,-2,-2,-6,0
9.556362,19,19,3,2,0,0,1,-2,0
9.577739,-19,-11,-5,-3,-4,0,-1,-2,0
9.577760,9,2,0,0,0,-3,-4,-65,0
9.580251,7,10,3,2,-2,1,0,5,0
9.580255,-29,-27,0,-2,1,1,-7,-2,0
9.600064,14,16,0,1,-2,-1,3,9,0
9.600085,-29,9,-3,-9,-4,-1,3,-5,0
9.601246,6,-21,-3,3,5,-1,1,3,0
9.601271,26,12,-1,1,0,-3,0,-6,0
9.614164,-2,-9,0,0,-2,0,-5,-18,0
9.614233,12,36,0,-2,-2,-1,-2,8,0
9.620827,-64,-29,-5,-5,-1,-4,0,2,0
9.620844,1,-2,-2,0,0,-1,-2,6,0
9.637276,-11,9,4,-2,-2,-2,-3,-2,0
9.637298,-5,-8,-2,-4,-1,1,2,9,0
9.639051,24,5,2,-2,-2,1,0,11,0
9.639055,-4,20,3,3,0,-1,2,-2,0
9.659785,-2,-14,-1,-3,-1,-2,-1,-1,0
9.659852,12,4,-2,0,1,1,-3,3,0
9.661477,-8,8,0,-1,-3,-3,-3,-13,0
9.661626,-12,-10,-2,-2,-3,-1,-3,1,0
9.674081,19,1,0,1,-1,0,4,6,0
9.674100,-20,-20,-3,-2,-1,0,-3,1,0
9.680922,-1,10,-3,-1,-2,-1,-1,0,0
9.680942,13,20,2,0,-1,0,1,6,0
9.697493,-24,-6,-4,-1,-1,-1,-1,-24,0
9.699260,5,-7,1,-2,0,0,0,8,0
9.699272,25,5,-6,3,5,1,3,40,0
9.699276,-13,4,2,-2,-2,-4,-1,2,0
9.720431,-3,-6,1,-1,-1,-1,-3,-6,0
9.720438,15,11,-4,-1,-2,-1,-5,6,0
9.721189,5,2,2,-5,-5,0,0,-8,0
9.721195,5,-14,-3,-4,-1,-1,0,-11,0
9.735684,5,15,-4,0,1,0,-1,5,0
9.735690,-6,-15,-2,-4,-2,-2,-3,-14,0
9.740906,15,9,2,4,-2,0,0,-1,0
9.740925,-5,-6,-1,3,4,-1,1,4,0
9.757387,15,16,1,3,-1,-3,-3,-1,0
9.757408,-15,-4,-1,-2,-1,-1,0,4,0
9.758747,-29,-55,-5,-2,-1,0,-2,-10,0
9.758769,1,19,-1,-2,-5,-1,1,5,0
9.780221,23,9,-1,-5,-1,-3,-1,1,0
9.780247,-12,-2,-1,5,1,-1,1,-6,0
9.782355,16,-1,-1,-4,-3,-3,-3,-2,0
9.782361,-28,-10,0,0,-1,-1,-2,-5,0
9.794624,21,-14,-3,-16,-2,1,6,72,0
9.794651,-15,3,4,14,0,0,-3,-3,0
9.801219,-20,13,1,-5,-2,-1,-1,-10,0
9.801277,15,-14,-5,3,1,0,-1,4,0
9.817314,-5,-6,-2,2,-3,-3,-4,-32,0
9.817481,21,-17,-3,-8,-4,-2,-5,-32,0
9.819151,6,18,2,1,-1,0,-1,4,0
9.819169,13,3,-1,-3,-1,-1,-1,-17,0
9.839811,-42,-12,-1,4,0,0,-2,-12,0
9.839835,6,10,3,-2,-2,-1,0,-4,0
9.841200,9,-1,-5,1,-1,-2,-4,-14,0
9.841240,0,-19,1,-5,-1,1,0,13,0
9.854146,-7,30,-6,-1,-3,-2,-3,-12,0
9.854167,-2,-13,1,0,0,1,5,-19,0
9.860792,1,2,2,-1,-1,0,-2,3,0
9.860813,-1,17,4,1,-3,0,1,1,0
9.877208,-1,-4,-2,0,3,-1,-2,5,0
9.877220,0,7,-5,-7,-3,-1,3,5,0
9.878610,7,-2,0,4,-2,-1,0,-3,0
9.878622,13,2,-4,2,-5,-1,-2,-5,0
9.899890,-22,-16,4,2,-2,-2,-4,-12,0
9.899915,12,-10,-2,-2,0,-3,-3,10,0
9.901767,-4,14,-1,3,2,0,-1,-4,0
9.901772,-8,2,-3,-7,-2,-1,0,3,0
9.914197,8,1,0,2,-1,1,1,4,0
9.914212,0,-2,-1,0,-3,-1,0,6,0
9.921797,8,3,-2,-5,-3,-2,0,2,0
9.921825,20,8,1,-1,2,-2,-1,-7,0
9.938575,-44,5,2,0,-4,-3,-6,-46,0
9.938580,-17,-31,-8,-5,-2,-1,-2,-23,0
9.938673,11,11,-2,-3,-1,-3,-5,-9,0
9.938679,0,-9,-1,-2,0,0,-2,-2,0
9.960107,-2,-33,-4,-2,-2,0,-1,-3,0
9.960135,0,1,0,3,2,-1,0,8,0
9.961490,-3,-1,1,-2,-2,-1,1,2,0
9.961493,-5,3,1,-1,-2,-1,0,-9,0
9.973396,10,9,1,-2,-2,-2,0,6,0
9.973415,-2,5,1,-1,-1,1,0,8,0
9.985035,4,-15,-3,0,-2,0,1,9,0
9.985043,-11,11,1,1,0,-1,-2,3,0
9.997843,6,0,-2,-3,-2,-1,2,8,0
9.997871,3,5,0,-4,-7,-2,0,9,0
10.000370,8,3,1,5,7,0,3,31,0
10.000377,-12,0,1,-7,0,-3,-2,-4,0
12.022312,49,6,4,-3,-4,-3,-7,8,1
12.022587,-25,40,-21,2,4,0,5,-2,1
12.024248,2,-12,8,2,1,9,-6,-2,1
12.024255,-17,-25,12,-4,-5,-13,-10,-3,1
12.044694,2,4,1,-6,-4,3,-2,-6,1
12.044762,22,-6,-11,-1,-3,-1,10,-2,1
12.046208,6,38,-10,1,0,-5,-16,1,1
12.046225,-11,-17,-19,3,0,3,-10,-7,1
12.058673,-6,3,8,2,3,0,5,2,1
12.058683,-9,-8,14,-1,-4,4,3,8,1
12.067758,8,-25,2,-9,-1,0,1,-9,1
12.067765,3,21,0,8,3,-2,2,-2,1
12.082639,0,3,17,7,1,3,-3,6,1
12.082670,-25,-27,-7,5,3,2,-10,-10,1
12.084583,1,-2,-2,-1,-4,-5,27,-1,1
12.084589,4,8,-10,-11,-5,-2,-4,7,1
12.104831,8,22,-2,5,12,-4,-5,2,1
12.104836,12,26,-37,-2,-1,-3,-57,0,1
12.106027,-5,-75,92,-5,-5,20,16,1,1
12.106053,9,27,15,13,-11,-33,6,-1,1
12.118348,-49,-29,-16,-8,-6,-6,-4,-20,1
12.118370,1,-36,0,-1,-5,-2,-1,-11,1
12.129344,3,16,-32,-1,2,-13,-3,4,1
12.129351,1,-5,1,-4,3,14,-6,7,1
12.142200,12,-13,4,-1,0,3,-5,7,1
12.142224,15,8,10,10,4,-1,16,-2,1
12.144524,-2,18,-17,-7,1,-3,-3,2,1
12.144533,-10,-13,11,1,1,6,-19,-7,1
12.165357,15,10,-18,4,8,-4,-23,8,1
12.165386,-18,-19,-1,-13,-12,11,90,-9,1
12.168076,4,11,33,0,-3,-6,2,-2,1
12.168083,-22,-2,4,-2,-4,1,27,-4,1
12.178734,15,4,-1,10,5,-1,-53,-2,1
12.178752,26,-11,5,5,-1,1,12,18,1
12.188345,-26,11,-39,-7,-2,-6,-16,-13,1
12.188354,-9,-43,1,4,-3,-2,9,-2,1
12.202325,-4,21,9,3,-3,5,2,3,1
12.202340,16,7,1,0,3,1,4,-2,1
12.203748,5,-3,-11,0,-2,-3,0,3,1
12.203803,6,1,-10,-8,2,6,-8,3,1
12.224822,-3,1,-10,-8,-4,1,-3,-6,1
12.224843,-2,-14,10,0,-2,0,13,1,1
12.226496,4,25,-31,1,0,-7,-32,0,1
12.226560,4,2,12,-6,3,11,-14,-16,1
12.238468,-14,-63,45,-6,-8,4,44,5,1
12.238499,-11,6,6,-6,-2,-4,-3,-5,1
12.247310,2,-1,9,9,3,-8,-23,2,1
12.247343,6,7,-20,2,1,-1,-3,0,1
12.263382,5,7,-17,-6,1,-1,3,-2,1
12.263388,2,-3,3,-7,-2,-3,8,1,1
12.263602,-1,-7,-14,-10,-1,0,-11,-7,1
12.263641,9,-1,5,4,1,0,21,9,1
12.284688,-9,33,-7,-8,-5,2,12,-11,1
12.284706,1,11,-8,5,1,0,6,-8,1
12.286723,2,-40,-15,-2,5,8,40,11,1
12.286728,-15,-25,27,0,-1,-2,-13,-2,1
12.299146,-11,-4,-6,-5,-4,-1,13,-4,1
12.299164,13,13,-17,-1,1,-2,-20,-3,1
12.309411,-14,48,4,8,-5,-4,-3,-5,1
12.309417,7,-35,-18,-5,-2,-1,-7,7,1
12.322548,-4,2,-6,7,0,-1,4,4,1
12.322587,7,-3,4,0,0,-1,-19,1,1
12.324622,1,1,-5,-1,-3,-1,7,-3,1
12.324631,-1,28,-1,-9,0,-1,-4,-6,1
12.345104,4,2,5,0,3,0,40,8,1
12.345118,-2,-1,-9,-3,-1,0,-17,-5,1
12.346402,-4,-2,18,3,-1,-6,0,-2,1
12.348074,-18,-58,21,12,-2,-5,-8,0,1
12.367353,10,13,9,-5,3,9,1,-5,1
12.367373,-5,-56,14,0,-3,-7,12,-6,1
12.369568,16,-8,4,-4,-5,-3,-25,0,1
12.369574,-9,18,-21,-10,-6,-5,4,-9,1
12.382810,4,8,-1,7,1,-3,-16,8,1
12.385165,-21,35,10,3,-2,0,-9,5,1
12.385176,6,-22,2,0,-2,0,-7,-1,1
12.385180,8,15,-13,-10,-1,-1,4,-2,1
12.404657,-11,-9,-6,3,-1,-2,-11,-5,1
12.404663,0,20,-3,-5,-4,0,-3,3,1
12.406194,-8,-6,-13,4,4,-2,16,0,1
12.406202,22,103,-30,-10,1,-2,17,9,1
12.427281,6,-64,5,3,-5,6,-24,-4,1
12.427303,-24,-30,32,8,-6,-6,22,-2,1
12.428617,-11,-7,-10,-9,-3,1,2,-10,1
12.428629,-7,6,-10,5,-2,-2,-8,-11,1
12.442261,16,44,-16,-7,1,-7,-5,2,1
12.442284,-1,-1,-13,-3,2,-1,-17,-4,1
12.444893,-1,5,0,0,-7,2,9,6,1
12.444905,5,4,1,-2,-1,-1,-11,6,1
12.465148,-2,1,2,1,-3,-2,12,1,1
12.465176,-1,8,9,-1,4,4,-19,3,1
12.467319,2,5,-11,-5,0,-2,10,4,1
12.467325,2,32,-30,-7,1,2,-6,-6,1
12.487716,-1,-61,56,-3,-5,-4,-2,4,1
12.487744,-10,33,-5,6,9,-11,-7,-4,1
12.488979,19,-40,31,15,5,20,-29,-6,1
12.488998,-28,-14,-12,-8,-9,-5,33,-1,1
12.501522,7,18,-33,-7,-8,-6,-20,-12,1
12.501538,4,-9,-15,-9,3,7,13,-8,1
12.515795,-13,28,-3,-5,1,-10,-20,-16,1
12.515812,3,-42,16,5,-2,1,-5,0,1
12.525599,1,7,-5,-2,0,-2,8,-2,1
12.525628,12,6,-14,-3,0,-5,-10,7,1
12.527400,-5,10,13,-1,0,1,0,1,1
12.527404,4,-56,54,-10,-1,3,-5,-2,1
12.547803,-6,12,-9,18,6,-3,4,2,1
12.547872,26,-7,-8,2,-5,-1,-22,1,1
12.548659,-45,-2,1,1,1,-6,1,4,1
12.548671,2,24,11,12,9,0,18,0,1
12.561526,8,-12,-12,-9,-9,0,46,2,1
12.561597,-47,-15,11,-7,-10,5,29,8,1
12.568513,34,14,-10,-9,-3,-7,-3,-13,1
12.570218,-6,-3,-6,3,6,-1,-17,-16,1
12.584947,2,14,-14,3,3,-3,-6,13,1
12.587152,3,5,0,2,3,2,2,1,1
12.587160,0,5,-7,-3,-4,-5,14,5,1
12.587162,-3,-14,-12,0,-1,-3,-14,10,1
12.608685,5,49,12,3,5,3,-8,-7,1
12.608692,-5,-28,10,-12,-9,2,0,0,1
12.608694,-1,-28,2,20,8,1,3,12,1
12.608696,-5,0,6,10,0,1,-14,-17,1
12.625216,-14,1,-25,-11,-1,-4,-6,-1,1
12.625222,4,-24,-1,2,-7,-9,-49,-5,1
12.628261,6,-1,2,-7,0,5,3,3,1
12.628273,-2,13,-24,-3,-5,-2,39,14,1
12.645084,-8,-33,18,-3,-5,-2,-14,-12,1
12.645113,10,-3,-27,-1,3,-3,-4,5,1
12.646693,-16,23,22,-4,1,1,46,2,1
12.646697,21,17,-3,0,0,-4,-66,-20,1
12.667435,0,-11,-13,-4,-3,0,5,6,1
12.669318,13,36,19,6,5,-2,7,-4,1
12.669325,-10,-53,-19,-8,-10,-2,-1,9,1
12.669327,-40,1,-2,4,2,2,-2,8,1
12.682285,22,77,4,17,2,-6,-7,-8,1
12.682313,-9,-74,-18,0,-1,2,-4,1,1
12.688398,-9,14,-17,-1,-2,1,3,4,1
12.688417,3,1,11,4,0,1,-6,-2,1
12.704861,15,-14,-16,-15,-4,-1,-11,-1,1
12.704881,-10,13,19,4,2,2,18,4,1
12.706272,-19,9,-9,0,2,-2,-14,-10,1
12.706293,34,-16,-8,-11,-8,-6,4,3,1
12.727646,19,-12,-4,4,5,-1,-7,0,1
12.727676,-2,28,1,-1,-1,3,-26,-5,1
12.728630,-48,-24,2,-8,-7,-4,29,-1,1
12.728664,33,16,2,-2,1,2,18,3,1
12.741548,-26,-23,7,-4,1,1,2,-1,1
12.741571,-3,7,-9,-2,-2,-4,-17,-3,1
12.748634,26,21,-8,1,6,-2,-23,1,1
12.748662,4,-18,7,-16,-2,3,0,0,1
12.766079,-27,19,-5,6,-1,-3,5,-4,1
12.766086,-6,-56,6,-7,1,2,5,-9,1
12.766425,13,28,-3,-2,-4,-2,3,4,1
12.766532,3,-28,3,0,2,-5,-5,-7,1
12.787322,-12,-2,-4,-4,1,5,-4,4,1
12.787344,17,52,-13,-5,-6,-4,29,-4,1
12.788814,17,-70,-4,-7,-6,-1,-11,-8,1
12.788819,-14,38,-4,2,-1,-2,-43,1,1
12.801590,5,-44,-11,-1,-3,4,29,0,1
12.801609,-30,43,-4,3,1,-4,-1,1,1
12.808805,4,-15,16,6,2,1,3,-5,1
12.808824,-12,9,-12,-5,-8,-3,-9,2,1
12.824742,-8,-26,5,-5,3,-5,19,-5,1
12.824766,24,23,-17,-7,-1,-1,-33,12,1
12.826370,9,30,26,12,5,0,-23,-8,1
12.826387,-20,-28,-15,-4,3,7,34,9,1
12.847589,35,11,6,5,-2,9,-18,5,1
12.847608,-29,24,9,6,0,-19,4,-21,1
12.850145,-23,-42,-8,-8,-4,-2,-1,0,1
12.850162,1,-2,-2,11,-1,-1,-20,0,1
12.861102,-6,-5,13,0,1,-1,0,9,1
12.861115,22,3,-12,-7,1,4,3,3,1
12.871186,17,49,16,2,2,-1,-8,-1,1
12.871193,-39,-16,-4,1,-3,-5,8,1,1
12.884794,-7,16,-2,-4,-5,-1,-11,-6,1
12.886659,50,-44,11,6,-5,-1,16,-5,1
12.886665,-14,43,-14,-14,-5,-1,2,-7,1
12.886667,-14,19,-2,1,3,3,24,5,1
12.907750,-11,-41,9,-3,5,1,-87,-9,1
12.907777,-6,-3,5,6,4,5,39,0,1
12.908573,9,-11,-19,-4,-7,-3,-3,12,1
12.908586,16,33,5,2,1,-1,0,-10,1
12.920796,-23,-2,-16,-8,-7,-6,5,-2,1
12.920802,-1,-13,0,0,3,4,-5,4,1
12.931748,4,16,-9,-5,0,-1,-6,-7,1
12.931753,13,-24,4,-2,0,0,4,10,1
12.944652,-6,36,-7,-7,-1,-4,32,-7,1
12.944675,0,15,10,1,0,-3,-39,-3,1
12.946769,6,-25,1,5,2,2,40,-1,1
12.946773,21,24,5,1,-3,-2,-20,-18,1
12.968683,-18,-59,12,6,-3,1,7,-3,1
12.968692,-23,16,-4,-3,-1,0,-3,1,1
12.968964,19,-11,-13,-6,0,0,-8,2,1
12.969016,9,-5,-13,5,3,-1,3,3,1
12.983580,4,13,14,3,1,-2,-4,2,1
12.983600,-3,-21,5,-9,-5,-4,7,-6,1
12.990286,7,10,-6,-7,2,-2,-14,-3,1
12.990293,11,-18,1,3,-4,2,-14,5,1
13.004756,-24,24,-15,-6,-6,-5,13,-3,1
13.004772,12,-8,20,3,2,0,-9,1,1
13.006160,-6,-25,-4,5,-3,-3,-6,-8,1
13.006168,-5,1,33,2,-2,0,35,3,1
13.027737,19,22,1,-2,2,-2,-8,-1,1
13.027766,-2,1,-11,4,-4,0,4,5,1
13.029715,-2,-11,-11,-3,-2,1,-4,-4,1
13.029719,-5,-16,-5,-4,-3,-1,-11,-1,1
13.040882,-16,44,-8,13,0,1,26,-1,1
13.040942,3,-4,-4,-6,-1,2,-22,-13,1
13.051422,12,18,6,20,6,-2,6,7,1
13.051429,-19,-20,-8,-6,-4,-5,-4,-9,1
13.065055,5,0,-3,-5,2,4,-3,3,1
13.065074,-5,6,-15,-5,-5,-2,-2,1,1
13.066241,-9,5,-10,-1,-3,-1,5,-4,1
13.066264,-2,-6,35,-5,0,-2,-14,1,1
13.087402,10,-9,-2,9,-1,-4,38,5,1
13.087435,5,14,31,2,-3,-1,-1,0,1
13.089986,-18,-6,-8,-3,0,2,-15,-2,1
13.089992,-2,17,2,7,3,2,18,4,1
13.101190,-1,-11,-1,-12,-4,-6,-15,2,1
13.101213,-1,-22,-4,0,1,0,11,-2,1
13.111397,1,17,-3,-7,0,0,-4,-1,1
13.111402,29,13,3,-3,-2,-1,-7,0,1
13.124694,-53,6,1,-8,-1,-2,1,-7,1
13.124713,14,-29,-24,1,1,-1,-3,2,1
13.126034,8,24,11,-4,2,-2,3,7,1
13.126040,-14,-28,9,4,-6,-4,10,-8,1
13.147627,19,-18,2,-10,-8,-3,6,6,1
13.147659,-16,0,-4,3,-1,-3,-22,-13,1
13.150503,-9,6,-20,-4,1,-4,-5,4,1
13.150512,7,-28,-1,2,2,4,22,-4,1
13.160933,23,67,13,-1,2,0,4,-2,1
13.160956,-28,-51,-11,1,0,-2,11,-4,1
13.170112,21,-6,1,-7,-9,-5,-7,9,1
13.170120,-11,13,-14,0,5,1,-7,-2,1
13.186397,1,9,11,-1,-4,0,-84,1,1
13.186405,-4,23,7,-7,-1,-1,22,2,1
13.186453,25,-11,23,7,-2,-1,10,10,1
13.186512,-65,8,-13,-4,0,-1,-10,-14,1
13.207626,7,-15,-18,-2,-1,-1,18,-8,1
13.207644,35,1,2,-4,2,0,-27,9,1
13.209759,-29,14,2,-2,-5,-3,-14,-10,1
13.209763,-1,18,-2,-22,0,0,-3,4,1
13.220978,10,-27,-4,13,6,-1,4,-1,1
13.220993,-2,41,-13,2,-1,1,25,10,1
13.232465,38,8,3,1,3,1,0,-9,1
13.232470,-68,-15,-2,7,-4,-6,-8,-6,1
13.245396,-1,-26,-18,-12,-2,4,18,-5,1
13.245426,-8,-9,19,4,-6,-3,13,12,1
13.246931,-11,13,7,-1,-1,-1,-4,-9,1
13.246935,30,3,-10,-1,1,0,-7,1,1
13.267556,16,-8,3,0,-3,-5,-1,-3,1
13.267573,-13,22,-14,-14,-2,-1,-56,-6,1
13.268896,-1,-61,1,0,2,-1,14,9,1
13.268912,5,-13,-1,6,-3,-4,-22,-16,1
13.289808,9,29,0,4,2,0,-4,2,1
13.289825,-9,-42,8,-9,-2,1,10,0,1
13.291227,-24,14,12,2,-5,-2,-25,-12,1
13.291298,21,-15,-8,14,3,1,26,11,1
13.304828,-4,22,4,-3,-2,-3,-14,-1,1
13.304860,2,-20,6,-3,-1,-1,23,-10,1
13.306885,-9,-8,4,-2,-3,-1,-7,-5,1
13.306890,10,5,-22,-2,-3,-3,-3,3,1
13.329080,0,-12,-16,-13,2,0,-7,4,1
13.329084,-1,7,13,6,2,0,2,-3,1
13.329087,-8,-3,-19,-4,0,-1,1,-3,1
13.329088,44,37,-22,-9,1,-5,18,4,1
13.350301,-55,-76,50,0,-6,2,-33,-7,1
13.352274,-8,15,-8,4,0,-1,0,-2,1
13.352279,-2,-5,-2,0,0,0,9,-8,1
13.352281,16,59,-6,-6,-3,-1,-4,2,1
13.365330,13,-76,-29,-2,-1,-7,-19,-4,1
13.365361,-5,19,30,7,1,3,31,9,1
13.366993,-7,7,-1,-6,-4,-1,-30,-2,1
13.367000,-14,21,4,2,2,0,-6,6,1
13.387330,3,4,-25,1,-4,-3,-4,-5,1
13.387364,18,7,-21,1,2,0,0,4,1
13.389485,-12,-46,4,1,0,-4,9,-2,1
13.389491,-4,8,7,-3,2,1,-16,-1,1
13.410102,-18,2,-4,-3,-3,0,7,-4,1
13.410130,5,12,-23,-2,-1,-1,2,-2,1
13.412100,16,12,5,10,1,-1,-58,0,1
13.412104,-10,-13,0,-4,-4,-1,25,5,1
13.432720,10,-35,-1,5,0,1,27,-4,1
13.435508,19,6,0,-5,-2,-5,-24,-14,1
13.435521,-52,31,-7,-7,-6,-6,-12,4,1
13.435525,-11,37,0,-2,0,-3,4,-8,1
13.447657,-14,-45,7,4,-1,2,0,-2,1
13.447679,5,-7,-6,-9,-4,-3,5,11,1
13.450159,31,21,-11,1,-3,2,17,-1,1
13.450194,-14,-57,11,-15,-3,-4,-21,-1,1
13.469741,-7,44,14,3,3,2,17,4,1
13.469760,14,-12,-8,6,0,3,9,-1,1
13.471459,-21,22,-18,-4,3,4,24,-3,1
13.471481,-19,-33,18,9,2,-5,-4,2,1
13.484121,18,20,-4,-11,-7,-4,19,-5,1
13.484140,-21,-6,8,13,4,-5,-51,2,1
13.490817,6,0,-2,-8,3,5,29,5,1
13.490833,17,12,-11,5,-3,0,6,-1,1
13.507356,-7,8,19,3,0,0,1,-5,1
13.507386,5,-3,-7,-10,-1,-3,9,-2,1
13.509863,7,-8,3,3,-1,-3,-7,-10,1
13.509868,-13,54,-11,1,4,6,22,5,1
13.530012,5,-8,-12,4,-8,-3,-13,-3,1
13.530017,-12,-35,6,-2,-1,2,8,-8,1
13.531113,7,-24,8,3,-2,-3,0,5,1
13.531125,7,-30,1,-1,-2,-2,-10,7,1
13.544359,6,38,-7,-11,5,2,5,3,1
13.544406,-12,5,-10,7,-1,-2,16,-3,1
13.551038,5,7,8,-1,0,2,4,-3,1
13.551065,10,-22,12,6,1,0,25,-7,1
13.567399,-7,-5,-24,-4,0,-2,-24,3,1
13.567430,5,51,25,-3,-3,0,18,2,1
13.569194,-8,-78,15,5,1,0,0,-2,1
13.569202,0,-12,7,-11,-3,-3,-15,3,1
13.591726,9,48,12,5,2,3,13,-6,1
13.591733,-24,-42,-23,-13,-9,-5,-6,-8,1
13.591735,17,23,-12,-3,4,-1,-2,-4,1
13.591737,21,9,3,-2,-2,0,-17,-2,1
13.604137,-29,-12,-2,2,3,3,10,7,1
13.606098,0,1,2,-4,-1,-1,-40,1,1
13.611324,-4,16,0,-6,-4,-1,8,-1,1
13.611348,7,8,-25,-5,-3,-2,-20,1,1
13.627503,26,-37,0,7,5,0,-3,5,1
13.629782,-7,2,-4,-4,3,0,0,-1,1
13.629787,-13,16,11,0,-9,-3,16,1,1
13.629789,15,-9,-9,-6,-2,2,0,-4,1
13.650211,-16,-5,-9,2,-2,-7,-48,-1,1
13.652674,13,28,-6,-7,0,0,25,-3,1
13.652681,-17,17,21,2,0,1,12,6,1
13.652683,3,-40,10,0,0,0,-29,-6,1
13.663617,4,12,6,1,1,0,24,-4,1
13.663639,-8,7,-12,2,4,1,-14,0,1
13.670901,5,-36,-13,-6,-5,-1,-10,1,1
13.670923,-8,-8,9,1,-1,0,18,3,1
13.686659,-2,-2,-1,-7,-2,-2,1,4,1
13.686683,0,1,-9,0,0,-2,12,1,1
13.688025,6,21,-19,-2,2,-5,-27,-9,1
13.688030,-8,-3,11,2,-5,2,24,-1,1
13.709200,6,-21,-1,-8,-2,-2,-5,-4,1
13.709251,-4,-3,5,6,-4,0,1,-1,1
13.711034,3,15,-24,-1,0,-3,-14,3,1
13.711043,11,-37,6,0,0,-2,-22,-7,1
13.723260,10,70,-1,-3,-2,0,35,-1,1
13.723282,-51,-50,0,-2,-5,-2,6,-3,1
13.731915,-7,-5,-8,3,0,-3,-39,-1,1
13.731920,3,24,-13,1,2,1,3,0,1
13.748552,6,14,25,-3,-9,0,4,7,1
13.748557,-28,-27,9,0,0,-3,-20,-13,1
13.748558,-2,-6,0,6,1,2,12,2,1
13.748561,-7,-8,-7,5,-1,-2,4,-6,1
13.769143,11,15,-1,2,0,-1,-9,8,1
13.769175,19,39,-5,-1,3,-2,35,7,1
13.770780,2,-52,-7,3,13,0,-29,-7,1
13.770784,-11,22,20,-11,-21,-2,-11,3,1
13.783690,7,-7,2,1,-2,-1,26,-5,1
13.783720,6,47,-4,5,-3,-1,7,-6,1
13.791337,2,-16,-3,-8,-1,1,26,1,1
13.791358,0,-9,-9,4,8,-1,-19,-1,1
13.807092,-11,26,-22,-5,0,-5,-16,-4,1
13.807118,14,-46,-5,1,-3,0,-12,0,1
13.808762,14,12,24,4,4,1,0,9,1
13.808771,-28,5,-15,-9,1,0,46,-6,1
13.829584,5,-40,-12,4,-3,-4,-22,1,1
13.829603,8,27,3,-16,0,1,-1,-7,1
13.830812,3,-5,-6,3,-2,1,3,-5,1
13.830817,11,8,-1,2,0,-4,-7,2,1
13.843653,-14,2,-1,-4,3,5,19,5,1
13.843683,3,-31,-8,2,-2,-4,-39,3,1
13.851218,4,57,11,-15,-14,-6,29,-6,1
13.851236,-16,-47,-1,2,4,2,3,1,1
13.866625,3,6,13,6,-2,-5,-34,-4,1
13.866648,0,-24,-5,-1,-4,0,13,0,1
13.868389,-8,13,-3,1,-2,2,4,-5,1
13.868394,7,27,-8,-1,-1,0,-6,6,1
13.889030,-5,-30,-3,4,3,-3,-9,-5,1
13.889043,14,55,-15,-4,-2,-1,-11,1,1
13.889732,0,-93,43,8,-1,4,7,6,1
13.889750,22,-20,-24,-8,3,-4,-10,-15,1
13.903518,-54,3,20,1,-3,2,-12,-1,1
13.903540,-1,21,9,-3,-9,-7,-27,-8,1
13.911294,8,28,-26,-3,0,-2,5,-17,1
13.911317,17,-36,-3,-1,-1,-4,-31,10,1
13.926434,4,7,-7,-3,2,3,15,-3,1
13.926456,3,-11,5,9,7,1,5,7,1
13.929175,-6,4,-11,-5,-1,-2,-16,3,1
13.929181,-4,6,10,-4,-2,-1,1,-4,1
13.952253,4,110,-28,2,-4,-2,14,-4,1
13.952259,-16,-96,7,0,0,-1,23,-1,1
13.952261,9,33,-11,-4,-1,2,5,5,1
13.952263,-5,-6,-6,-4,-1,1,8,1,1
13.963468,9,-12,-4,-2,-2,-2,-13,-7,1
13.963494,-9,13,0,5,0,0,-8,-8,1
13.970962,3,5,-8,-2,-3,-5,2,10,1
13.970984,2,3,1,3,-3,-2,9,0,1
13.986559,6,7,10,-3,1,-4,-21,-7,1
13.988243,-10,17,17,9,2,2,37,6,1
13.988248,-10,-52,-5,-8,3,5,33,-4,1
13.988250,-8,6,13,10,-12,-5,-35,-5,1
14.009450,12,-38,-15,-4,-3,0,65,10,1
14.009471,4,-1,-9,-8,-1,-3,-18,-3,1
14.011722,-13,18,-3,-1,-4,-4,9,2,1
14.011727,1,4,-10,-3,3,1,3,-9,1
14.023412,2,-12,6,-2,1,-1,-22,-3,1
14.023450,16,57,-2,3,1,5,12,11,1
14.030951,-9,-42,-6,-7,-7,-2,-1,3,1
14.030980,-15,-15,22,-1,3,-1,-13,0,1
14.046882,3,-33,6,2,-3,-2,-3,0,1
14.046995,-3,25,-7,-4,1,-3,-5,-2,1
14.049137,8,7,-8,4,6,3,-13,-2,1
14.049142,0,42,-13,-1,-2,-1,6,1,1
14.069268,5,-38,1,3,2,2,2,-1,1
14.069291,-12,-23,4,-4,-3,0,-7,-5,1
14.071394,9,30,-13,-4,-2,-5,-16,3,1
14.071400,-6,-11,-4,1,-5,0,29,6,1
14.083652,2,7,0,-4,-3,1,-11,1,1
14.085795,6,84,-12,2,-3,-4,-33,-2,1
14.090812,29,-68,-4,7,-1,1,-16,-14,1
14.090834,-72,50,32,0,5,1,12,-7,1
14.106451,-12,-14,-2,0,-3,-3,-7,0,1
14.106473,2,-10,-1,-2,0,1,14,9,1
14.107122,-6,33,-6,-7,-5,-4,-6,-6,1
14.107135,34,3,-20,2,1,0,-13,-1,1
14.128977,-5,-8,-25,5,6,-1,-2,6,1
14.128998,-19,-101,48,2,-4,-2,-3,-17,1
14.130541,3,-12,1,5,3,0,6,8,1
14.130552,16,-9,-7,-8,-5,-4,-23,-8,1
14.143597,-12,8,-6,-6,-5,-5,-7,2,1
14.143619,15,6,-21,-3,3,-1,7,1,1
14.150979,-10,8,11,1,0,1,-11,2,1
14.150999,1,-3,0,-2,-4,-4,4,2,1
14.166739,9,50,-4,-4,-1,2,32,-1,1
14.166756,4,-90,14,-5,2,2,22,2,1
14.168182,-7,-7,-28,-4,-4,-1,-48,-4,1
14.168187,18,71,29,12,6,-7,-22,3,1
14.189632,-31,-15,17,0,-7,1,11,-3,1
14.189671,1,-23,-1,-3,-6,-3,0,-12,1
14.191219,-14,4,-5,-3,-3,-2,20,-6,1
14.191223,5,-9,-24,-6,-1,-1,-5,-2,1
14.213499,7,27,4,-3,4,-4,-18,1,1
14.213505,1,-20,-5,0,-2,-3,-4,4,1
14.213507,-10,17,-4,-3,4,-3,-5,-5,1
14.213509,-1,-16,1,3,-6,0,34,4,1
14.228767,0,-13,4,-9,-3,0,-22,-13,1
14.228773,8,35,-22,-5,0,-3,-10,7,1
14.228774,-8,4,17,5,-1,0,51,10,1
14.228776,-18,-22,20,-7,-3,3,18,-13,1
14.249279,14,-17,-4,4,0,-1,-16,-5,1
14.249300,-17,10,-13,4,0,-3,-25,-5,1
14.251623,6,28,14,-3,-1,-2,3,4,1
14.251630,0,-12,-20,6,-1,3,7,3,1
14.271616,2,-21,1,-5,1,-4,1,-3,1
14.271645,8,41,-14,-5,-5,0,-2,-3,1
14.274168,-8,-24,11,2,2,-4,0,-2,1
14.274174,-14,-15,-6,-6,0,-3,0,0,1
14.286618,13,22,-3,-1,2,3,-1,2,1
14.286649,12,1,-37,-8,-11,-6,-16,5,1
14.288953,-33,-84,70,17,9,4,-7,-3,1
14.288961,22,-15,6,-8,-10,0,-1,-7,1
14.309000,-13,4,-4,2,-2,-2,-6,0,1
14.309016,-6,26,1,3,-2,1,31,7,1
14.309632,21,22,-33,-9,0,0,-33,-10,1
14.309683,-5,16,-12,2,0,-4,-16,5,1
14.332313,-7,-47,5,-11,-7,-1,15,1,1
14.332341,12,15,-1,11,1,0,-11,-2,1
14.334590,-13,11,-4,-9,-4,-2,-8,0,1
14.334602,-1,5,-3,6,8,4,20,4,1
14.346438,23,0,-7,-3,-6,-3,-5,-2,1
14.346459,-26,-11,22,3,1,1,-5,-5,1
14.348232,11,66,-30,-9,0,-5,-3,0,1
14.348240,-8,-43,50,0,1,1,-1,-5,1
14.369047,-15,-21,-6,4,-2,-2,2,-2,1
14.369055,17,-13,-1,1,7,4,2,3,1
14.369846,-20,26,1,-1,-7,-2,36,-1,1
14.369871,-2,-16,-21,-6,-3,-1,-9,-1,1
14.391893,6,10,1,0,0,-2,-16,0,1
14.391960,-6,-19,17,-9,1,5,48,-8,1
14.393469,13,11,0,10,-4,0,-3,-5,1
14.393474,5,9,-9,0,2,-2,-21,2,1
14.406509,-10,-9,-4,-6,-9,-6,-31,-4,1
14.406541,12,12,-6,16,8,9,39,16,1
14.407662,12,-1,5,-7,-6,-3,-14,-1,1
14.407666,-9,34,-3,2,4,-2,-2,-3,1
14.429741,6,-90,-7,5,2,0,13,4,1
14.431803,-15,53,10,-11,-4,-5,-35,-9,1
14.431809,8,4,-5,-1,1,-2,-3,3,1
14.431811,8,-33,-20,1,0,-1,9,-1,1
14.451690,-15,-3,-17,-2,2,-1,5,-2,1
14.451793,6,-13,-4,-8,-1,-4,-16,-9,1
14.452273,-15,-1,4,6,-5,1,9,3,1
14.452280,-3,0,-1,-5,-2,-6,-5,-7,1
14.466534,9,9,12,2,6,8,-20,14,1
14.466558,0,-23,1,-15,-4,-2,2,-2,1
14.467765,-4,19,1,0,-5,1,22,-11,1
14.467771,8,18,-8,-1,7,0,-39,-2,1
14.489274,-8,52,10,1,-1,0,13,-2,1
14.489303,-3,-11,-14,0,1,-2,-1,13,1
14.491297,1,-44,-29,-9,3,2,-8,2,1
14.491300,-1,16,20,-2,-4,1,24,7,1
14.511407,13,-9,-2,-6,-5,-4,-15,-6,1
14.511420,-19,53,8,-1,1,2,21,-5,1
14.512045,3,-51,-8,-2,0,-3,-10,3,1
14.512059,-15,-10,-1,4,2,-2,3,-3,1
14.526427,2,15,4,7,1,-1,0,-2,1
14.526444,1,-3,5,3,2,-4,-19,-1,1
14.527707,10,6,0,0,-1,4,5,0,1
14.527710,7,3,-3,-6,-5,2,6,4,1
14.549070,-6,19,13,8,2,-1,3,-2,1
14.549183,-3,-42,-4,5,1,-5,13,3,1
14.551721,-7,54,26,8,-1,-1,34,3,1
14.551727,-6,-6,-18,-10,-2,1,-5,-15,1
14.573381,16,-19,-20,-7,-3,-3,6,-8,1
14.573387,0,27,19,1,-3,-3,-19,-5,1
14.573389,-12,0,28,4,10,0,-7,-1,1
14.573391,15,-8,-8,0,-10,-5,-3,1,1
14.586662,-16,17,1,-1,-1,-1,18,6,1
14.586743,3,-3,-16,-4,-2,-3,-7,-6,1
14.587572,-1,4,2,-8,-4,-2,-10,-1,1
14.588568,4,2,-2,3,4,2,-14,1,1
14.609638,-3,5,-1,-3,2,0,2,-3,1
14.611589,4,9,-12,3,-3,-1,1,10,1
14.611592,6,-32,-5,-8,1,0,-14,-3,1
14.611594,-15,21,3,13,1,-2,6,-1,1
14.632050,5,-16,-11,-2,-3,-2,-10,9,1
14.632083,2,-24,20,-2,-2,-1,-24,-5,1
14.635200,1,21,-11,-3,-5,-6,-13,-12,1
14.635206,-8,-8,11,4,3,-1,15,12,1
14.647118,-16,-7,-27,-10,-4,-1,6,-2,1
14.647146,5,5,15,16,3,3,2,-3,1
14.648936,17,-16,-3,-1,-4,-7,-17,2,1
14.648945,-12,-12,-10,-9,-5,-1,29,2,1
14.669416,-5,18,5,-2,0,0,-12,-17,1
14.669446,6,-41,6,-2,2,-1,-13,-3,1
14.669786,4,17,-17,-7,-3,0,20,5,1
14.669981,-7,6,-12,10,7,5,-12,-3,1
14.691516,0,-12,41,6,4,-1,9,1,1
14.691538,-11,-10,-32,-10,-10,-3,9,-2,1
14.693040,4,5,23,5,2,-3,-4,3,1
14.693048,18,56,-13,-14,-5,-4,7,0,1
14.707087,-19,-57,5,0,-4,-1,1,-13,1
14.707109,-1,-8,1,-12,-2,2,1,-1,1
14.708693,-11,0,-11,6,-1,-1,-7,-1,1
14.708707,9,-9,-13,10,3,-3,-6,1,1
14.730047,3,29,1,-3,2,-1,-2,5,1
14.730053,3,24,2,-4,-9,-3,22,0,1
14.736512,-11,-29,-14,-1,-1,1,6,-5,1
14.736537,9,13,5,-3,-4,0,-13,0,1
14.751789,-10,-20,7,-1,1,0,0,5,1
14.751814,15,10,-3,-1,-4,-3,-14,-10,1
14.754255,-34,-8,-17,-10,1,-5,-15,-1,1
14.754265,0,-7,9,1,1,-1,-1,-10,1
14.766053,15,7,-17,7,1,-2,-13,4,1
14.766076,-8,14,33,4,-5,-1,15,7,1
14.774037,3,-41,1,2,-4,0,13,0,1
14.774060,7,-6,6,-13,0,1,-13,-3,1
14.789667,-12,6,8,1,-10,-4,-9,-4,1
14.789705,3,8,-9,5,5,-3,-16,-5,1
14.791992,5,18,-2,-2,3,3,20,1,1
14.791998,-6,-31,13,0,-1,-5,-70,2,1
14.811848,0,23,-1,-6,2,3,14,-1,1
14.811876,0,-14,-22,-1,-4,-3,-1,-4,1
14.814065,3,21,8,-3,-3,-3,-9,1,1
14.814069,4,36,-5,-2,-3,-1,-8,-2,1
14.826242,-7,-40,9,0,-1,-3,5,6,1
14.826262,2,27,0,-12,1,3,9,-8,1
14.834084,3,-51,-21,7,-3,-3,-9,-1,1
14.834106,-8,-10,9,-6,-1,0,12,0,1
14.849484,3,16,-7,-1,2,0,-6,-3,1
14.849526,-10,6,7,-2,-5,-2,0,1,1
14.852041,-9,29,-21,-7,1,-3,1,1,1
14.852048,-12,-85,36,5,1,2,20,-3,1
14.871444,16,10,-8,-3,-1,1,0,-2,1
14.871458,-3,-20,-5,1,6,3,4,7,1
14.872093,3,30,5,-3,0,-1,-12,-4,1
14.872107,-1,-5,-22,-6,-6,-5,-23,-6,1
14.886068,0,13,-11,-1,-1,0,22,0,1
14.886084,-1,41,-4,-11,3,-1,-14,-2,1
14.894083,-4,-53,11,6,-6,-1,24,-2,1
14.894113,-18,4,-10,-4,2,-2,9,-1,1
14.909002,11,-7,1,0,-6,-3,8,-1,1
14.909024,-1,35,-25,-4,-3,-3,-23,1,1
14.910539,18,-8,0,3,2,1,-12,0,1
14.910555,-16,13,18,4,2,2,20,1,1
14.934023,-3,28,-12,-10,-3,-5,-13,-2,1
14.934036,7,-59,9,7,2,5,11,-7,1
14.934040,-14,15,6,-4,-1,0,8,0,1
14.934044,-2,-12,-8,4,-3,-6,2,-3,1
14.946172,-5,9,4,-1,0,4,-2,-2,1
14.946201,-13,-7,21,4,3,-3,-25,-5,1
14.954389,19,1,-4,-8,-5,1,50,2,1
14.954418,7,5,-10,2,1,2,-25,15,1
14.968998,1,10,2,0,2,-5,-17,-9,1
14.969020,-4,-14,5,-1,-1,-2,5,-2,1
14.969842,2,38,-12,-5,-2,0,-16,4,1
14.969868,11,-22,2,-1,-2,-2,8,-5,1
14.991755,-13,-4,2,2,0,1,-1,0,1
14.993279,-4,-2,-8,2,2,1,5,3,1
14.993288,5,51,8,-2,-4,-2,-26,-4,1
14.993292,-5,-40,-2,-6,-5,1,17,2,1
15.005840,5,12,0,3,-2,-2,-4,1,1
15.005862,-8,-21,-5,1,0,0,17,0,1
15.013930,5,16,9,1,2,0,-7,-4,1
15.013937,9,-3,-21,-4,0,-1,-27,2,1
17.030741,-14,4,2,-2,-1,-2,0,-2,0
17.031769,3,21,3,-1,1,0,-2,-2,0
17.039790,0,6,-2,-1,-1,-1,-1,-2,0
17.039811,-12,-9,0,1,-1,-1,0,-2,0
17.055325,1,-5,-7,-4,-7,-3,-4,0,0
17.055373,-9,-5,-2,0,-1,-1,0,0,0
17.061153,14,-3,15,-1,-2,-2,-2,-2,0
17.061193,-11,15,-9,-8,1,-2,-2,-1,0
17.077597,17,49,17,5,-1,1,0,-1,0
17.077626,-29,-57,-3,1,1,-1,-4,-3,0
17.079197,-8,-19,-9,-3,-6,-2,-1,-2,0
17.079201,12,7,-9,-4,-2,-1,0,-1,0
17.099747,1,-3,1,-12,2,-2,-2,-1,0
17.099770,8,33,5,9,0,-1,-1,-4,0
17.101697,-6,15,1,1,-1,1,0,0,0
17.101703,-7,-16,-2,2,-2,1,-1,0,0
17.115304,8,0,-3,-2,0,0,-1,0,0
17.115333,-2,-12,2,-1,-2,-1,-1,0,0
17.117690,-6,-15,-6,0,-1,-2,0,-1,0
17.117697,10,43,2,-3,3,1,0,2,0
17.137381,6,-15,1,-3,-1,-2,-1,-1,0
17.137403,5,4,-1,1,2,2,1,1,0
17.138721,-1,6,-1,10,-1,-1,0,-3,0
17.138741,2,-5,5,2,0,-1,0,1,0
17.160045,-9,-17,-4,2,-2,0,0,-2,0
17.160074,-3,-6,-10,-3,-4,-3,-2,-2,0
17.161969,-14,-2,14,-1,0,-2,0,0,0
17.161977,3,-29,-5,-5,-4,-1,-2,-2,0
17.175504,7,40,4,4,0,0,0,-1,0
17.175532,11,7,-2,-2,0,1,-1,1,0
17.177543,-19,-21,-8,-3,-2,-1,-2,-3,0
17.177550,-1,-2,0,-4,-2,0,-1,-1,0
17.197262,-12,-9,-4,-4,0,-3,-1,-2,0
17.197275,8,4,1,7,-2,0,-1,1,0
17.198551,11,6,-2,-8,-1,-2,-1,1,0
17.198636,-14,4,0,5,1,-2,-2,-2,0
17.219849,-10,-22,-2,-1,0,1,0,0,0
17.219872,-1,-32,5,-1,-5,-1,0,-2,0
17.221247,-2,-11,-1,-1,5,-2,-1,-2,0
17.221316,3,11,4,-3,-3,-1,-1,-1,0
17.234331,2,-10,2,11,1,-1,0,1,0
17.234359,2,8,-8,1,0,-2,-1,-1,0
17.241498,0,14,12,0,-2,-1,-2,-1,0
17.241531,3,-16,1,0,0,-1,1,-2,0
17.258653,-5,12,-4,-2,-2,-2,0,-1,0
17.258659,0,20,-1,-5,0,0,-1,-1,0
17.258661,10,1,-5,-1,-4,1,-1,-1,0
17.258663,-4,-15,-3,4,1,-1,-4,-5,0
17.280058,2,22,-5,-2,-4,1,-1,-1,0
17.282096,0,-2,0,0,-1,-2,1,1,0
17.282102,-2,8,2,0,-1,-1,-1,0,0
17.282104,5,1,1,-1,-2,0,0,0,0
17.294041,-9,-10,-1,-3,-5,0,-3,1,0
17.294058,10,3,1,-1,-6,-5,-2,1,0
17.300881,4,18,-4,2,2,0,-3,-3,0
17.300906,-27,-22,-3,-10,-5,-1,-1,-2,0
17.317309,-3,-26,-1,8,5,-2,-1,-1,0
17.317330,0,27,6,2,0,1,-1,0,0
17.319219,-6,-48,-3,-4,-3,-2,0,0,0
17.319231,8,8,-3,-7,-1,-4,-2,0,0
17.340063,6,2,-5,-5,-3,0,-2,-2,0
17.340091,-19,-9,5,-3,0,1,-1,-2,0
17.342522,2,0,-12,6,-2,-1,0,0,0
17.342529,7,9,2,4,1,1,-2,0,0
17.354000,-4,-9,0,-2,-2,-1,0,-1,0
17.354016,5,-8,-2,0,1,-2,-1,-2,0
17.361141,15,-3,-5,-4,-4,0,-1,0,0
17.361170,5,4,-8,-3,-1,-1,0,-1,0
17.377505,-13,-19,-3,-5,-2,-4,-2,-2,0
17.378673,1,1,3,0,-1,0,-2,-2,0
17.378712,-4,4,-4,-6,-1,-1,-1,-1,0
17.378799,-2,-3,-3,2,-2,0,0,1,0
17.399714,5,5,4,-6,-4,0,-2,0,0
17.399728,0,-2,-12,1,-3,-2,-4,-3,0
17.401230,-6,7,6,1,3,0,0,-2,0
17.401243,-1,-26,22,18,3,2,0,1,0
17.414507,0,36,-7,1,5,-1,-2,-3,0
17.414512,-15,-15,-4,-7,-1,0,1,-2,0
17.420856,-1,5,-12,-11,-5,-2,-1,-2,0
17.420875,-6,4,-1,0,-1,-2,0,0,0
17.437905,8,3,4,-3,-2,-1,-1,0,0
17.437934,-1,5,-1,-1,-1,1,-1,-1,0
17.443839,-5,-2,-1,2,1,-1,0,0,0
17.443866,6,12,-1,-4,-4,-1,-2,-3,0
17.459959,-1,-10,0,-5,-2,0,0,0,0
17.459963,2,3,-1,5,4,-1,-1,0,0
17.461041,-5,-9,-1,-2,-5,-1,1,0,0
17.461054,2,0,-5,-6,-1,-3,-1,-1,0
17.473933,12,-1,-6,4,0,-4,-2,1,0
17.473955,-6,-23,4,1,-1,-1,1,-4,0
17.481661,-7,9,3,4,2,-1,-1,-2,0
17.481761,-14,-20,-7,-2,-1,0,0,-1,0
17.497057,-1,-19,-2,-1,-2,0,-3,-3,0
17.497071,4,6,-4,-8,-4,-2,-1,1,0
17.499493,3,5,0,0,-3,-2,-2,-1,0
17.499498,5,-2,-11,-5,-2,0,0,-1,0
17.519797,-3,-6,2,-1,-2,2,-1,-1,0
17.521764,2,9,7,-3,-2,1,-2,1,0
17.521773,19,55,-7,4,3,-1,-1,1,0
17.521775,-34,-58,4,-7,2,-2,-2,-4,0
17.534271,35,46,-5,2,-2,-2,-2,-3,0
17.536408,-36,-17,-6,1,-1,-2,-1,-4,0
17.540795,2,16,6,-7,1,1,0,0,0
17.540817,5,13,3,0,0,0,-1,1,0
17.557156,-11,-21,0,-1,-2,1,3,1,0
17.557301,18,15,6,-5,-1,-2,-1,0,0
17.558542,-11,-24,-3,-3,-2,0,-2,-2,0
17.558555,6,13,0,0,-1,-1,-2,-1,0
17.579814,-11,-23,-6,1,0,-3,-2,-2,0
17.579850,6,-10,-8,-3,-3,-1,-1,-1,0
17.582458,-4,-26,3,1,-3,-1,-2,-2,0
17.582462,1,28,2,3,-2,-2,-1,-2,0
17.593505,1,8,6,0,-2,-2,1,1,0
17.593529,-6,1,1,2,1,-1,1,0,0
17.602857,-7,-21,-11,-6,-1,-2,-1,-1,0
17.602863,14,9,6,7,-1,-1,0,1,0
17.617392,-7,-6,0,-10,-1,-1,-1,-2,0
17.617415,6,5,1,4,-2,0,-1,1,0
17.618806,-4,-1,-2,-2,-1,0,-1,-1,0
17.618827,1,8,0,-10,-4,0,-1,-2,0
17.640337,-24,-40,-7,3,0,1,1,-2,0
17.640366,-8,-3,-5,0,0,-1,-3,-1,0
17.642049,6,-4,5,-1,0,-1,2,2,0
17.642053,-10,-9,-15,-4,-1,-2,-2,-1,0
17.653509,9,19,11,-1,-2,-2,-2,0,0
17.653538,14,13,-3,-7,-1,1,-2,-1,0
17.663222,-4,-5,-4,5,-4,1,-2,1,0
17.663228,-1,-8,12,-3,3,0,-1,2,0
17.678301,-2,44,1,3,-1,-1,-2,-1,0
17.678309,0,-5,-3,2,-1,-3,-1,1,0
17.678552,3,14,0,-5,-1,-3,-1,-3,0
17.678565,0,-11,1,-2,-1,1,-2,0,0
17.699857,5,7,-9,4,1,2,2,1,0
17.699879,3,1,3,-10,-3,-3,-2,-1,0
17.701762,-1,7,0,8,4,-2,-1,-1,0
17.701767,-1,1,-3,2,-1,-1,0,-1,0
17.713559,-4,-11,0,-2,-1,-1,-1,0,0
17.713578,9,-14,-8,-8,0,-2,1,-1,0
17.723705,-16,25,9,1,0,2,1,0,0
17.723714,14,-48,-14,-4,-2,-2,-2,-4,0
17.737250,-17,2,5,-2,-2,0,-2,-3,0
17.737281,-6,-16,-4,1,0,-2,0,-1,0
17.739425,0,38,6,-5,-4,-2,-2,-1,0
17.739437,8,17,1,9,0,-1,1,0,0
17.760041,-12,-26,0,0,1,0,-3,-2,0
17.760070,7,2,2,0,-2,0,0,1,0
17.761771,-5,-21,-1,1,-3,0,-1,0,0
17.761775,-6,39,-4,1,1,-1,0,0,0
17.773412,11,-14,-1,-3,-1,-1,1,1,0
17.773469,-8,7,-5,-1,0,-1,-1,-1,0
17.784607,1,-13,-5,5,-1,1,-2,-1,0
17.784613,16,9,2,-4,-5,-1,0,0,0
17.797695,-15,6,-1,1,1,-1,0,2,0
17.797723,-11,-6,1,4,-1,1,-2,-2,0
17.800136,0,-8,-2,-17,0,-4,-1,-2,0
17.800148,33,36,5,5,3,1,0,4,0
17.819625,-41,-65,-10,-1,-1,-2,-3,-8,0
17.819634,-13,-17,-3,-3,-4,1,0,-4,0
17.821091,2,7,-5,-7,-6,-3,-3,-2,0
17.821104,-10,-39,-13,-1,-1,-3,-2,0,0
17.834953,21,28,23,-1,-1,-1,-1,1,0
17.834960,-2,7,3,0,-2,-1,-1,-1,0
17.843450,3,-10,-3,3,3,0,-2,-1,0
17.843457,-6,18,4,-1,-3,0,-1,-3,0
17.857102,8,2,-11,2,0,0,0,1,0
17.857118,-11,-16,1,-5,-1,-1,-2,-1,0
17.858697,11,8,-2,-1,-2,1,0,0,0
17.858707,-10,-7,-2,1,-2,-3,-2,-2,0
17.882391,5,-13,-6,-3,-3,-2,-2,-1,0
17.882397,4,14,6,0,-1,0,1,0,0
17.882400,0,-11,-7,4,0,-2,0,-2,0
17.882401,-22,-5,4,-4,-2,-1,-2,-2,0
17.893794,7,21,-5,-3,-7,-1,-1,-1,0
17.893833,9,-12,-1,2,4,-2,-1,-1,0
17.902538,8,-9,-2,-9,1,0,0,0,0
17.902557,-26,-1,1,6,1,1,-1,-2,0
17.917439,6,22,2,2,-4,-2,0,1,0
17.917500,-3,9,-5,2,0,0,-2,-1,0
17.918769,-4,-22,7,1,-2,-1,1,0,0
17.918786,7,55,-1,-8,-1,0,-1,-1,0
17.939808,1,-25,-3,-5,0,-1,-2,0,0
17.941081,-4,19,0,0,0,-2,-2,-1,0
17.941148,-6,-14,-3,-10,-5,-2,-2,-2,0
17.941192,8,9,3,5,1,0,0,1,0
17.953333,3,-5,-4,0,0,-1,-2,-3,0
17.953356,9,-2,-1,1,-1,-2,-1,0,0
17.964755,-1,28,-6,-9,-4,-1,-3,-1,0
17.964759,5,-18,-2,-7,-1,-1,-2,-1,0
17.977079,-5,0,3,2,-3,-2,-3,-2,0
17.977092,1,9,4,2,8,1,1,-1,0
17.978543,2,-12,3,4,-2,-1,-1,1,0
17.978556,-11,-31,-13,-6,-2,-3,-2,-7,0
17.999743,5,-11,-4,1,3,0,-1,-1,0
17.999765,1,12,-1,-6,-7,0,-2,-1,0
18.002103,-2,1,-7,-1,3,-1,0,1,0
18.002110,5,-12,-3,1,-3,-1,-2,0,0
18.022995,-6,-13,12,0,0,-3,-1,-1,0
18.023005,19,8,-2,2,-2,-1,0,-1,0
18.023732,-22,5,-2,2,1,-1,-2,-4,0
18.023747,5,-15,-4,-7,-3,-2,0,1,0
18.038489,-4,25,2,1,1,-1,-2,0,0
18.038494,-3,-9,-1,-2,-2,-2,-1,0,0
18.038656,4,3,-1,6,-3,0,0,-1,0
18.038750,-2,2,-2,-3,1,0,-1,0,0
18.059969,-8,12,14,-5,-3,0,-1,-3,0
18.060067,0,-1,-2,-3,-2,-1,-1,0,0
18.062304,10,-9,1,12,-1,0,0,-1,0
18.062308,-5,-3,-3,0,1,-2,-2,-1,0
18.082407,8,-1,-12,-3,-1,1,0,0,0
18.082440,-7,-14,-3,-4,-4,-1,-2,0,0
18.084587,6,3,3,3,-2,-3,-3,-2,0
18.084595,-16,-2,-2,-2,-1,0,-1,-2,0
18.097740,-8,10,-2,-9,0,-3,-2,-1,0
18.097768,-1,13,-3,11,1,-1,1,-1,0
18.100231,10,-28,3,1,0,-1,-1,-1,0
18.100238,14,7,6,2,-3,2,0,-1,0
18.119718,-2,-3,-11,-6,-2,-1,0,-1,0
18.119741,-5,-6,2,-3,-4,-2,-1,-1,0
18.121295,-9,-9,2,-5,0,0,0,-1,0
18.121311,2,-27,-6,0,-3,-2,-2,-1,0
18.143023,0,-1,-4,1,0,0,-1,0,0
18.143060,12,9,0,0,0,-1,1,0,0
18.144762,4,13,-1,5,0,-1,-1,-2,0
18.144774,-10,-15,2,-6,1,-2,-1,-2,0
18.156992,-1,-5,-4,0,-1,-1,0,2,0
18.157013,7,5,-3,-3,-2,-3,-3,-2,0
18.163479,-17,23,4,-2,0,0,-1,1,0
18.163511,-2,0,4,-1,-2,-1,1,1,0
18.179579,-1,-40,-5,-3,-5,0,-1,-1,0
18.179592,-4,-8,0,1,6,-1,-2,-1,0
18.181099,-13,-7,-2,-1,-4,-1,1,-1,0
18.181130,21,18,5,5,-1,-1,-1,-1,0
18.202261,-16,7,-5,-1,-2,0,-1,0,0
18.202286,-5,-4,2,-3,-3,-1,0,-2,0
18.203907,9,-9,-1,-11,-2,0,-2,0,0
18.203914,-11,15,-1,9,-1,-1,-1,-2,0
18.216853,14,-4,-6,0,2,0,0,1,0
18.216885,-16,27,7,0,0,0,1,-2,0
18.223485,17,22,-2,2,2,0,0,0,0
18.223508,-5,-4,0,-12,-9,-3,-2,-2,0
18.239610,4,3,-3,6,7,-1,-2,-2,0
18.239623,-13,-12,0,8,-1,1,2,1,0
18.241107,1,2,-8,-4,-2,0,-5,-3,0
18.241120,9,12,8,-2,-2,1,0,2,0
18.262685,4,5,-13,-8,-2,-3,-1,-3,0
18.262712,-2,-9,2,-4,-2,-1,-2,-1,0
18.265200,-5,18,-7,-3,-4,0,1,-3,0
18.265204,0,-3,0,2,-2,-4,-2,-2,0
18.276622,2,8,2,-8,4,-3,-1,-1,0
18.276644,3,-15,0,2,0,-2,-1,1,0
18.283211,-25,-19,-2,-3,-2,0,1,-1,0
18.283233,6,14,-6,-5,-1,0,-2,-1,0
18.301244,-4,-4,6,1,-3,1,-1,-1,0
18.301250,0,2,-2,-3,-3,-1,-2,-1,0
18.301252,14,28,2,-8,0,-1,1,1,0
18.301254,-9,-49,-2,4,1,0,-1,-2,0
18.322540,2,-6,5,5,1,-2,-2,0,0
18.322570,9,1,-7,-7,-3,0,-2,1,0
18.324513,-16,-29,-4,0,-6,-3,-2,-3,0
18.324517,-8,14,1,3,2,0,1,0,0
18.335872,3,1,7,5,0,1,1,0,0
18.335894,4,2,-6,-2,-1,-1,-1,0,0
18.345977,-2,-20,4,3,-4,2,-1,1,0
18.345989,0,6,1,9,4,-2,1,-1,0
18.360251,-4,-6,-2,-9,-2,-2,-2,-3,0
18.360287,-13,0,1,6,1,-1,0,0,0
18.361963,3,-6,7,10,1,-1,-1,1,0
18.361967,-13,2,-5,-8,-3,-1,-1,1,0
18.382099,6,7,0,1,-3,0,-1,0,0
18.382108,-1,1,-2,-5,-2,-1,-2,-2,0
18.383921,10,4,-2,-7,1,0,0,0,0
18.383960,-4,0,-3,5,0,1,-3,-3,0
18.397056,12,7,8,7,1,-1,1,1,0
18.397063,-6,-34,-3,-5,-4,-1,-3,-4,0
18.403289,0,0,-4,1,2,0,-2,1,0
18.403307,0,3,2,-10,-6,-2,-1,0,0
18.419783,4,6,-7,-3,-8,-3,-1,-2,0
18.419803,-4,8,-3,8,3,0,-1,-1,0
18.421352,-1,-17,2,1,1,-1,-1,1,0
18.421360,-1,-1,1,-2,0,-1,1,1,0
18.443826,-9,3,-3,-11,-4,-1,-1,-2,0
18.443835,7,-8,1,2,0,0,0,-1,0
18.443840,-3,37,1,-8,0,-3,-2,-3,0
18.443844,-16,-26,-9,-9,1,-2,-1,-1,0
18.460013,0,18,7,9,0,0,-1,1,0
18.460018,5,15,-2,-13,-4,-1,0,-1,0
18.463601,-15,-9,-3,5,0,-1,0,-3,0
18.463620,6,10,2,-1,-1,0,-1,-3,0
18.479596,33,22,-5,-3,-2,0,-1,1,0
18.479617,-40,-49,-5,-10,-3,-1,0,0,0
18.481067,20,9,-5,5,-5,-3,-4,-6,0
18.481079,-2,-2,3,-4,-2,-1,0,-1,0
18.502438,-4,13,-4,8,1,0,-2,-1,0
18.502456,10,-32,2,-4,-2,-2,-2,0,0
18.504686,-12,-38,-7,1,1,-2,-1,1,0
18.504694,2,22,-6,-4,1,1,-3,-2,0
18.516199,-7,0,1,3,2,-2,-1,-1,0
18.516229,1,16,-6,-5,0,-1,0,-2,0
18.525732,-6,-12,11,3,0,-2,0,-1,0
18.525738,3,-3,-1,-6,0,-2,-1,-3,0
18.539690,-17,-23,0,-1,-1,0,-1,0,0
18.539712,11,39,0,-1,0,-1,-1,-3,0
18.541158,-2,-8,-5,-6,-2,2,-1,1,0
18.541236,1,-5,-3,-5,-1,0,0,1,0
18.562290,-7,-12,-1,4,-7,-2,-1,-1,0
18.562474,1,9,10,-1,7,-1,-2,-3,0
18.564299,15,17,-2,12,1,-1,1,1,0
18.564303,-26,6,0,-2,-3,-1,-2,0,0
18.576244,-7,-31,-3,2,0,0,-2,-4,0
18.576265,24,28,1,-3,-3,0,-1,1,0
18.584693,-38,-31,-19,-5,-3,-2,-1,-2,0
18.584710,13,-39,25,5,2,-1,0,-3,0
18.599642,3,8,1,-9,0,-2,-1,0,0
18.599659,-15,-8,-2,12,-1,0,1,0,0
18.601174,12,13,7,-7,-2,1,0,0,0
18.601254,3,28,-13,2,-4,-3,0,1,0
18.622351,-4,2,1,-1,0,-1,-2,-4,0
18.622373,3,-18,-4,-6,-2,0,-1,-2,0
18.623732,-3,-5,-1,-4,-2,1,1,-1,0
18.623744,3,-3,-3,5,1,0,0,2,0
18.636097,4,-3,4,2,-2,1,0,1,0
18.636114,-4,30,-6,4,-2,-2,-1,-1,0
18.645048,7,-8,5,-2,1,1,0,0,0
18.645052,-3,-10,-12,-8,-6,-3,-2,-3,0
18.661405,-12,-8,7,2,1,0,-1,0,0
18.661411,8,23,-5,-3,0,-2,2,2,0
18.661413,-12,3,13,13,1,-2,-2,-1,0
18.661415,0,-7,4,-7,0,-2,-3,-3,0
18.682250,-3,-2,-14,-9,-3,0,1,-2,0
18.682272,-12,-34,0,0,-1,-1,-1,-2,0
18.684850,-3,10,-2,-1,-2,-1,-1,-1,0
18.684858,12,7,-8,-2,-2,-2,-2,4,0
18.696082,-10,-50,11,0,-3,-1,-1,-5,0
18.696102,5,14,2,7,-4,-2,-3,-3,0
18.705534,-3,-1,-3,-10,-2,-3,0,-1,0
18.705544,-5,0,2,7,-3,0,1,0,0
18.727452,1,-3,-15,-8,-1,-4,-2,-1,0
18.727502,2,-2,5,0,-1,-1,0,-1,0
18.728544,4,-18,-3,-7,-1,-2,-1,2,0
18.728556,9,53,-5,2,-3,-1,-2,-1,0
18.742267,4,-5,11,-1,-1,-1,-1,-2,0
18.742347,-6,-16,2,3,-2,0,-2,-2,0
18.743865,2,2,-1,0,1,-1,-1,0,0
18.743926,-1,3,6,1,0,-1,1,0,0
18.755950,7,22,-5,-4,1,0,0,-1,0
18.755965,-2,-11,-4,-6,-2,-1,-1,0,0
18.767024,-10,16,-2,4,-2,-1,0,-1,0
18.767034,3,-13,1,9,3,2,0,-2,0
18.780341,0,-2,-8,-3,-4,-1,-5,-2,0
18.780369,1,33,1,8,1,0,1,-1,0
18.783012,3,-13,-2,2,2,-1,2,-1,0
18.783018,2,1,1,-5,-4,0,-2,-3,0
18.802160,0,1,-1,-3,2,0,1,3,0
18.802175,-8,12,-5,5,0,0,-2,-2,0
18.803743,30,10,-1,-8,-2,0,-1,0,0
18.803765,-23,-9,-4,-2,-3,-2,-2,-5,0
18.818255,0,16,-3,-3,0,0,0,1,0
18.818264,-5,-13,6,-7,-2,0,-1,0,0
18.825847,-1,-7,-3,-3,-3,-1,-3,-3,0
18.825856,1,-13,-4,-4,0,-1,-1,0,0
18.840092,-10,17,1,7,1,1,0,0,0
18.840122,-4,-31,-2,-3,-2,-1,-3,-2,0
18.841282,-8,10,-2,-3,0,-1,-2,-1,0
18.841287,2,-8,1,-1,-1,-1,0,0,0
18.864235,3,6,0,-12,-4,-1,0,1,0
18.864241,-4,-5,-1,6,3,-3,0,-1,0
18.864243,4,1,2,-3,1,0,0,0,0
18.864245,3,23,-2,-2,0,0,-1,1,0
18.883933,10,-23,-3,-4,-2,-1,-2,-5,0
18.883958,5,43,1,-4,-5,-2,-2,-1,0
18.893026,-3,-17,-3,-5,-3,-2,-1,-2,0
18.893032,-8,-10,-1,4,3,-1,0,-1,0
18.899600,-11,4,-3,0,0,-1,-1,0,0
18.899621,3,-2,-4,-10,-1,1,-1,0,0
18.901588,3,9,4,-6,-5,-3,-3,-2,0
18.901646,-8,-33,-8,9,0,-1,-1,-1,0
18.922217,5,-1,4,0,-1,-2,-2,0,0
18.922256,-15,-54,-3,-2,-2,-4,-2,-1,0
18.923641,3,9,-1,-4,-3,-2,-1,0,0
18.923675,1,5,1,-4,-4,-1,0,0,0
18.935767,-5,-9,-5,2,2,-2,1,-1,0
18.935783,2,-6,-9,-10,-8,2,2,1,0
18.946463,-23,-6,8,23,4,-1,0,1,0
18.946472,5,0,2,-2,2,-1,-3,-5,0
18.959708,-2,13,-4,-1,-2,-3,-1,-1,0
18.959721,9,3,-2,2,-4,1,0,0,0
18.961058,-6,5,-2,-7,-2,0,-1,0,0
18.961070,-4,-38,1,-4,-3,1,1,-2,0
18.982614,-1,11,0,2,-1,0,-1,0,0
18.982646,4,-13,-4,-5,0,-3,-2,-2,0
18.985138,2,-2,-2,1,0,-1,-1,-3,0
18.985143,5,21,6,3,0,-2,-2,-1,0
19.004805,-5,-15,-12,-11,-3,-3,-1,-2,0
19.004813,10,1,5,-1,-1,-1,0,1,0
19.006204,-11,-4,-2,7,0,0,1,-2,0
19.006216,-3,10,7,-7,-3,-1,1,0,0
19.020951,0,-3,0,3,-4,-2,-3,-2,0
19.020957,2,17,-4,-1,4,-1,-2,-2,0
19.021269,4,-5,6,-7,-4,0,0,0,0
19.021337,9,45,-8,7,7,-3,0,2,0
19.042193,-4,-64,-4,-2,-3,-1,-3,-2,0
19.042214,-7,-1,3,10,6,-1,0,0,0
19.043566,-1,6,-2,0,-4,-1,-3,-2,0
19.043598,-4,-4,1,-5,-2,0,0,3,0
19.065235,-3,29,4,2,-1,0,1,-2,0
19.065373,3,0,-2,-5,-5,-1,-2,0,0
19.067720,-6,3,-6,-11,-1,-2,-4,-3,0
19.067727,7,-20,0,7,1,-2,0,-1,0
19.080512,3,9,5,3,0,0,1,0,0
19.080549,-14,-20,-3,-7,-3,-1,0,-3,0
19.083470,14,17,-2,-4,1,-1,2,-2,0
19.083483,-1,-5,-6,-5,-4,-1,-3,-2,0
19.102255,-4,5,5,-2,0,1,1,1,0
19.102277,-4,11,2,9,4,-2,-3,0,0
19.103851,-6,7,4,-1,0,-2,-2,-1,0
19.103903,-3,-54,-6,-2,-1,0,-1,-1,0
19.124711,-4,0,-1,-1,-2,-3,0,1,0
19.124745,2,15,-1,-6,-3,-2,0,1,0
19.126183,2,1,-7,-7,0,0,-1,0,0
19.126201,16,31,0,1,-2,-4,-2,-2,0
19.139046,-38,-36,-2,2,-2,-2,-3,-3,0
19.139066,7,-13,-1,-4,-4,-2,-1,-2,0
19.145759,-4,-23,-5,1,0,-2,-2,-1,0
19.145783,10,16,-1,-13,-4,0,0,1,0
19.162357,7,16,-1,0,0,1,-1,-1,0
19.162373,-4,-5,3,4,0,-1,-2,-3,0
19.163502,-3,5,-2,-2,-2,-1,0,1,0
19.163539,-9,-5,-1,-1,-5,1,0,-1,0
19.184610,5,6,2,1,2,-1,-1,0,0
19.184633,-4,-6,-1,-1,1,1,-1,-1,0
19.186203,3,6,-4,6,1,-1,-1,-2,0
19.186255,2,-10,-2,-4,-2,1,0,-1,0
19.199144,-10,-4,-7,0,-2,-1,0,0,0
19.199168,11,63,12,0,-1,-2,-2,-5,0
19.205969,4,-26,-5,1,-1,-1,-2,1,0
19.206939,-11,9,0,0,0,0,1,-2,0
19.222178,1,-2,1,-1,-7,-1,0,-1,0
19.222183,2,1,-4,-2,2,1,0,-1,0
19.223531,3,4,0,2,-2,-2,0,-1,0
19.223547,1,-15,-4,-3,-3,-2,-2,-3,0
19.244752,12,32,-1,10,4,-2,-2,0,0
19.244773,-5,-15,-9,0,-7,-2,-1,1,0
19.246250,0,-20,10,-3,-4,-2,0,-3,0
19.246256,-8,10,2,4,1,-1,0,-1,0
19.259010,8,-19,-5,-3,-2,0,-1,-1,0
19.260308,-8,-39,-5,-1,2,-2,-2,-1,0
19.265816,-3,-4,-2,0,0,2,-3,1,0
19.265839,-14,-1,-5,-3,-3,-1,-2,-3,0
19.282514,-1,-5,3,-1,-1,-2,-1,-1,0
19.282554,-2,2,-10,-2,2,-1,1,0,0
19.284750,4,10,0,-3,-1,0,0,0,0
19.284765,-5,-5,1,2,-1,-1,-2,-2,0
19.305016,4,10,-2,2,1,0,0,-1,0
19.305035,1,16,5,-4,-1,1,-1,0,0
19.306191,-16,-62,-9,0,-1,-1,0,-3,0
19.306210,0,23,6,-5,-2,0,0,1,0
19.319054,1,-1,2,-2,-2,-1,0,-1,0
19.319072,0,7,7,7,0,-1,-1,-1,0
19.326730,3,23,-1,-3,-3,0,-2,-2,0
19.326752,0,-13,-6,0,1,-2,-1,2,0
19.342956,-1,-11,2,-6,-3,-1,-2,-2,0
19.345304,-3,-12,-8,-3,-3,-2,-1,-2,0
19.345309,5,8,4,2,-1,-1,-1,1,0
19.345310,-7,21,-4,-6,2,-3,-2,-1,0
19.365215,6,5,4,-3,1,-1,-1,-1,0
19.365233,1,-12,-2,-1,-5,-1,-1,-4,0
19.366482,-2,3,-8,-11,-1,-1,-2,-4,0
19.366500,-7,5,12,9,-1,-1,0,-1,0
19.378908,5,19,2,4,2,0,-3,1,0
19.378921,-9,-8,0,-1,0,0,0,-1,0
19.385755,12,3,-4,-5,-2,-2,-1,0,0
19.385770,-13,-24,-3,0,-1,0,-1,-2,0
19.402310,4,-14,-16,-5,-1,0,-1,-2,0
19.402338,1,15,12,-10,-3,0,0,2,0
19.404122,0,26,-1,14,5,-2,-1,-1,0
19.404131,8,-5,1,-1,0,-1,0,0,0
19.425176,-9,-14,-2,-2,0,-1,-2,-4,0
19.425182,-8,5,-8,-1,-2,-2,0,-2,0
19.426490,-6,-3,0,-10,-3,0,1,2,0
19.426508,3,4,-3,2,-1,-1,-1,-1,0
19.440867,2,14,2,-4,-1,-2,0,-2,0
19.440873,-8,-24,3,6,0,-2,-3,-1,0
19.446162,-3,3,-4,-3,0,-1,-1,-1,0
19.446182,1,-13,2,1,-6,-2,-2,-1,0
19.462542,4,8,-1,-8,-4,0,-1,0,0
19.462571,0,-3,-2,1,-1,-1,0,0,0
19.463885,-7,-9,-6,-3,-2,-1,-3,-1,0
19.463889,-3,-3,-7,-4,-2,-1,0,-1,0
19.484684,-6,1,-2,5,1,-1,-1,1,0
19.484706,4,13,-2,-2,1,0,-2,-1,0
19.486868,7,-16,6,-2,-1,0,1,-1,0
19.486875,-15,23,-3,-7,0,-1,0,-1,0
19.499529,-4,-13,-8,-4,-2,-2,1,-1,0
19.499569,6,1,-2,-4,-2,-1,-1,0,0
19.507495,0,-1,6,9,1,-1,0,0,0
19.507520,18,-1,0,-2,6,2,1,3,0
19.522142,-20,12,0,-5,2,-1,0,-3,0
19.522159,4,-6,-5,1,0,-1,-2,-1,0
19.523686,-6,-1,-2,-2,-2,-2,-1,-2,0
19.523710,4,-9,-1,-1,-3,-1,-2,-2,0
19.544869,-1,6,-3,-1,-2,-1,0,3,0
19.544890,6,-14,1,-2,-2,1,1,0,0
19.546891,2,28,-7,-4,0,1,-1,0,0
19.546895,-1,-4,3,15,-1,-2,0,-1,0
19.558297,-9,-14,2,3,1,1,0,-1,0
19.558379,0,-2,-2,-3,-3,-1,-2,-4,0
19.568055,1,-3,-2,-13,-2,-3,0,-1,0
19.568061,2,2,-2,-1,-3,0,-1,-1,0
19.582946,3,-1,3,2,-5,0,-3,0,0
19.582953,6,8,2,3,0,-1,1,2,0
19.583826,-14,-13,-4,-3,-7,0,0,-1,0
19.583845,-8,-17,6,2,1,-1,-2,-2,0
19.604953,22,-6,-5,-2,-4,-2,-3,-1,0
19.607008,-18,5,-1,-2,0,1,0,-1,0
19.607012,-8,-7,3,0,2,1,-1,0,0
19.607014,-4,-10,-7,-3,1,-2,-2,0,0
19.618503,-3,22,4,7,-2,-2,0,1,0
19.618527,8,1,-1,4,-1,-2,-2,0,0
19.629446,-4,-3,-4,-2,-1,-2,-1,0,0
19.629452,-8,4,1,-3,-1,-1,0,0,0
19.645152,8,-9,5,-5,1,1,1,2,0
19.645158,3,44,-11,1,-2,-2,-1,3,0
19.645160,-5,-28,11,7,0,-2,-2,-3,0
19.645162,6,1,-3,0,-4,-1,-2,1,0
19.664961,-8,-7,0,4,0,0,-1,-3,0
19.665210,-5,4,1,-3,0,-1,1,0,0
19.667637,2,15,-3,0,0,-1,-3,-2,0
19.667644,2,-1,-6,-6,-3,-3,-2,-3,0
19.678171,2,11,-5,-2,-1,-1,0,0,0
19.678184,-3,-15,6,-6,-5,0,0,-2,0
19.688099,-6,11,2,9,3,-1,0,-1,0
19.688105,3,-55,-4,-1,0,1,-1,-3,0
19.702252,3,-5,-4,-2,0,0,-1,0,0
19.702276,-11,-30,-4,-3,-2,-2,-3,-2,0
19.704017,6,7,6,-5,-3,-1,-1,1,0
19.704022,-18,9,-2,-8,-6,-1,-1,-2,0
19.724534,9,5,1,6,1,-1,-3,-2,0
19.724547,2,-13,0,-1,-2,-1,1,-1,0
19.726028,9,2,-8,4,-3,-1,-2,-1,0
19.726034,14,6,-2,-6,1,0,-1,1,0
19.738823,-16,-2,2,-2,1,-2,0,-1,0
19.738835,-1,-16,-4,1,1,-2,-3,-2,0
19.749249,-6,-1,3,-4,0,-1,-2,0,0
19.749266,14,24,-2,1,1,-1,0,-2,0
19.762442,10,-15,-1,-7,-3,-2,-1,-1,0
19.762463,-7,16,1,2,-1,-1,-1,-1,0
19.763901,3,-6,-3,-2,0,1,1,0,0
19.763904,-2,-10,-1,-1,-2,-1,-2,0,0
19.785794,-9,20,0,-2,-2,0,-1,-2,0
19.785801,-5,-15,3,-9,-9,-5,-3,0,0
19.786279,-3,-6,-8,11,-1,1,1,0,0
19.786342,11,38,0,-4,1,-3,-2,0,0
19.798713,-5,7,4,-1,-3,-2,-2,-1,0
19.801102,-1,-24,-12,-3,1,-2,-1,-2,0
19.808173,-2,-9,-4,-8,-4,0,0,-3,0
19.808185,3,11,5,10,1,-1,-1,-2,0
19.822461,-5,-4,-9,-5,-4,0,-1,-2,0
19.822483,-8,3,8,2,4,-1,-1,-1,0
19.824423,7,0,5,2,-1,-1,-2,0,0
19.824427,-14,9,0,-6,-1,-1,0,-3,0
19.847068,-5,-59,-3,-4,-1,-2,-2,-1,0
19.847074,3,9,-11,-1,-1,0,-2,-1,0
19.847076,1,0,0,-5,-1,-1,1,-2,0
19.847078,-1,-9,-2,-1,-1,0,0,0,0
19.858583,4,12,3,2,-2,-1,1,1,0
19.858790,6,14,3,-3,-3,-1,1,0,0
19.868445,-39,17,3,4,0,-2,-3,-2,0
19.868452,4,-8,-7,-4,-3,0,-1,-1,0
19.882587,1,15,5,1,1,-3,-1,-1,0
19.882650,1,-2,-4,-2,-2,1,0,0,0
19.883790,8,18,-3,-5,-2,-2,-1,0,0
19.883812,-8,-8,-1,-3,-4,1,-1,0,0
19.905167,-9,-2,-3,-10,0,-2,0,0,0
19.905198,19,16,10,20,1,-1,-3,-2,0
19.907342,2,-13,-4,-3,-2,-1,-1,0,0
19.907349,-13,-7,2,5,2,0,0,-2,0
19.927736,8,-5,-3,-9,-4,1,-1,1,0
19.927757,2,5,-3,-7,0,0,0,-1,0
19.928601,10,24,0,-5,0,-1,-1,0,0
19.928613,2,-28,-1,0,-3,-2,-2,-2,0
19.942189,-16,5,2,6,6,0,-1,-1,0
19.942210,-13,-10,-1,-2,-4,-1,-1,-3,0
19.943493,7,-1,-2,4,2,-2,-3,0,0
19.943517,0,10,-1,-4,-2,-1,0,-1,0
19.965309,5,8,-1,2,-2,0,-1,-1,0
19.968032,-1,-8,-3,0,1,1,0,0,0
19.968043,-2,-28,-14,-8,-6,-3,0,-2,0
19.968045,-4,5,19,3,0,-1,-1,-1,0
19.987577,0,10,1,8,1,0,-1,0,0
19.987593,-1,-5,-5,-6,-4,-2,-2,-5,0
19.993126,-6,2,-2,-1,-4,-1,0,-2,0
19.993148,-6,-18,-8,-7,1,-1,-1,-2,0
20.002244,9,6,1,7,-2,-2,-2,-1,0
20.002261,-12,-3,-2,-8,-1,-1,-1,-2,0
20.003858,3,-7,2,-6,1,0,0,2,0
20.003863,2,22,-3,7,-3,0,0,0,0
20.024660,6,1,3,7,4,-2,1,-1,0
20.024683,-18,36,-2,-1,-2,-1,-1,1,0
20.026310,-1,-32,3,1,3,-1,-3,-2,0
20.026362,-3,3,1,-2,-5,-2,-3,-1,0
22.050967,14,-9,-28,-8,-2,-4,55,17,1
22.051073,-7,38,-6,-8,-2,1,-18,-1,1
22.051075,7,-49,15,-1,-6,-1,-4,-24,1
22.071589,-12,5,7,8,0,-1,8,-3,1
22.071608,7,18,-29,-3,-3,0,-5,-3,1
22.073252,-1,-8,16,-11,4,-5,2,11,1
22.073262,0,23,-12,4,7,4,-5,5,1
22.086571,-13,0,-3,8,0,-3,-3,-2,1
22.086594,16,-17,-6,-5,0,-2,-2,-6,1
22.087536,7,2,5,10,-6,0,15,11,1
22.087541,-6,-17,-7,5,0,-2,-14,-5,1
22.108957,5,83,-3,-8,-4,-3,15,2,1
22.108982,1,-26,6,2,-2,-2,-10,0,1
22.109587,-5,-44,-12,9,5,1,-6,-3,1
22.109664,-5,13,-4,1,2,-4,28,-1,1
22.132137,-2,17,-27,-4,-1,2,-44,3,1
22.132166,-4,5,15,1,-6,0,27,-4,1
22.134530,0,-5,-5,1,-2,-3,-23,-21,1
22.134535,-3,-6,0,2,-3,-2,-3,22,1
22.146771,13,-1,-9,-3,-2,-3,7,-4,1
22.146813,-12,-4,-8,-15,2,-4,-15,-13,1
22.149933,2,-1,7,8,-4,-4,1,-3,1
22.149939,1,16,-10,3,0,1,-3,12,1
22.169043,-19,-23,13,1,-6,-1,-7,-28,1
22.169062,2,-12,-7,-5,0,0,-6,2,1
22.169642,1,20,4,4,0,0,10,9,1
22.169654,-2,4,7,-5,0,-6,-22,-3,1
22.191788,3,-85,34,3,-6,3,32,-1,1
22.191811,-7,10,-2,13,3,0,-2,7,1
22.193471,10,4,-8,1,-1,1,39,1,1
22.193475,-23,-12,-6,-4,-6,0,-6,-16,1
22.206619,2,10,-2,-5,-3,-3,4,-3,1
22.206640,3,9,-9,1,-2,-2,-25,-6,1
22.209339,-2,24,15,-4,1,-5,11,10,1
22.209350,-3,-21,6,7,-8,1,1,-7,1
22.231915,6,-9,-21,-24,3,4,16,3,1
22.231922,3,12,-8,7,6,1,3,16,1
22.231924,16,-22,12,-3,-5,-1,-1,-20,1
22.231926,-20,7,-1,-5,2,-4,-13,3,1
22.251575,3,21,-13,-9,0,-2,-5,-2,1
22.251594,3,-6,4,-3,1,6,7,4,1
22.253125,-10,-21,-1,-10,0,2,-11,15,1
22.253131,-1,-7,5,9,4,2,7,-15,1
22.266789,18,-15,-7,7,4,-4,-9,10,1
22.266810,-9,58,10,-7,-10,3,66,-9,1
22.269143,-16,-26,3,9,4,0,-11,-2,1
22.269151,19,-4,9,2,0,-1,-3,1,1
22.288861,-8,9,-5,2,-5,-8,-17,1,1
22.288890,0,-9,-4,2,1,0,-22,-4,1
22.290235,6,6,-5,-5,2,2,3,3,1
22.290240,-11,11,-24,-16,-6,-4,4,-4,1
22.312045,11,9,9,9,2,3,9,0,1
22.312064,-22,18,-6,10,3,-9,-37,-14,1
22.312341,4,-50,-11,-4,-1,5,24,16,1
22.312359,11,-17,33,7,0,-2,-11,5,1
22.326926,-12,17,15,-2,-14,-2,-1,-12,1
22.326964,2,-12,-9,-6,-3,-1,-10,-10,1
22.329218,-9,18,-32,-5,5,-6,-38,-10,1
22.329224,7,11,-9,-11,-9,-4,17,17,1
22.348900,-4,-29,19,7,5,2,6,-1,1
22.348918,7,-22,-10,-3,-2,0,-3,-1,1
22.351159,-31,35,26,10,0,-1,-8,-1,1
22.351165,13,7,0,-4,4,0,-9,2,1
22.371473,-6,9,-2,0,1,-1,-1,0,1
22.371488,6,-39,-13,-12,-9,-5,-5,4,1
22.372159,8,58,14,5,-7,-4,-5,-4,1
22.372294,-10,-16,18,18,4,2,-9,-10,1
22.385834,-18,2,-11,-2,-3,1,11,2,1
22.385854,1,-11,6,7,7,-1,-12,1,1
22.394326,7,7,-10,0,-5,-6,18,3,1
22.394358,14,11,-8,-6,3,8,-32,-3,1
22.409333,2,-14,2,1,-1,-3,-5,8,1
22.409366,5,34,1,-2,2,5,2,13,1
22.410894,2,-19,-26,-11,1,-3,-1,-21,1
22.410898,-13,4,15,11,2,0,-46,5,1
22.434600,3,-47,18,-6,2,2,30,9,1
22.434607,-16,9,15,-13,-5,-8,-27,-10,1
22.434609,-3,-12,-1,0,-2,1,6,-12,1
22.434611,15,11,-17,-5,-2,-3,10,10,1
22.446120,-5,23,-20,-6,2,-1,-15,-4,1
22.446152,11,-23,15,4,-5,-4,5,11,1
22.454092,-18,13,18,2,7,8,9,-8,1
22.454126,-2,-9,-16,-10,2,-4,13,-8,1
22.469821,1,12,4,-13,-5,-1,9,4,1
22.469850,8,-17,-14,8,0,0,-6,6,1
22.469856,14,-10,-1,8,1,-1,-19,-2,1
22.469921,-8,-3,11,3,8,-2,-22,5,1
22.491964,0,-34,33,-9,-20,5,36,-10,1
22.491993,-8,6,-14,-6,-2,-3,2,0,1
22.494461,13,3,-9,-7,-5,0,0,7,1
22.494467,-24,-10,-6,-1,2,-5,3,-5,1
22.505985,7,28,-18,6,7,-2,-17,1,1
22.506006,11,4,1,7,1,0,5,3,1
22.514600,5,2,-22,-18,-6,-2,-1,2,1
22.514629,-11,-16,41,4,3,4,46,17,1
22.529778,-8,12,-2,11,4,-1,-40,-24,1
22.529798,-4,-1,-1,-7,-3,0,1,-8,1
22.529856,-12,-8,-11,-3,1,-2,-8,18,1
22.529925,19,1,-30,-1,-6,3,20,-5,1
22.551497,-11,8,10,2,4,-7,-2,-11,1
22.551521,9,-36,20,8,-3,3,-11,18,1
22.553169,-1,-13,1,2,-2,-1,9,-7,1
22.553174,-6,3,-14,-6,-4,0,2,-17,1
22.566050,10,13,2,2,-1,-3,-7,7,1
22.566073,2,29,-29,-6,0,-5,4,-10,1
22.573869,10,-32,-1,-1,6,1,9,15,1
22.573884,-30,-4,34,-5,-7,-5,7,-9,1
22.589881,0,10,-19,3,-1,0,-12,3,1
22.589887,8,2,6,3,-1,1,13,1,1
22.589889,8,37,1,-2,6,-2,0,-5,1
22.589890,-1,-43,-6,1,2,0,-6,3,1
22.611773,4,-10,-3,-3,-7,-5,-10,23,1
22.611795,-11,27,6,0,-2,-7,8,-18,1
22.614295,-7,-21,12,1,-4,0,-55,-20,1
22.614299,15,39,-27,-7,-5,0,36,9,1
22.626093,-9,-21,4,4,4,1,13,-3,1
22.626122,-8,-50,-4,-11,-7,-1,16,0,1
22.634669,-5,5,10,7,2,-3,-8,-1,1
22.634676,17,19,-2,-3,-3,-3,7,2,1
22.649904,-4,-10,-9,-1,1,4,-5,-3,1
22.649915,-9,6,-20,-9,-1,-1,-15,-3,1
22.649917,-3,29,9,8,3,5,13,-2,1
22.649920,16,13,-14,-1,1,-4,-9,4,1
22.671497,-12,-47,51,10,0,1,-1,-11,1
22.671521,11,3,2,8,5,3,-10,-6,1
22.672829,-16,-6,-11,-2,-2,-1,10,2,1
22.672838,-3,20,-12,-6,-4,-1,-9,-4,1
22.685803,3,28,-19,-4,-2,-3,1,5,1
22.685826,3,-6,0,3,2,3,30,-1,1
22.693986,25,-20,-6,2,2,-8,-24,5,1
22.694002,-45,-19,23,-6,-5,3,36,4,1
22.709247,12,-32,-6,-2,1,-6,-51,-23,1
22.709276,-28,-3,30,2,-12,3,30,-1,1
22.711885,-5,6,-13,-6,-2,-5,11,-6,1
22.711890,11,0,-7,2,2,0,-16,3,1
22.731830,-1,18,-21,-8,3,-1,12,9,1
22.731855,10,2,0,9,3,-2,-14,6,1
22.732505,-13,0,6,-5,-3,2,-4,1,1
22.732523,4,3,-12,1,5,0,-19,-7,1
22.754685,11,59,-23,-3,-5,0,9,6,1
22.754703,-1,4,-10,-9,2,-4,-23,-9,1
22.756502,-5,-37,16,6,0,-1,28,17,1
22.756525,0,-47,-5,-13,-4,-2,2,0,1
22.769052,-8,-6,-7,-2,-1,-1,1,-21,1
22.769077,-1,11,-1,-1,-5,-3,8,3,1
22.771409,-27,9,-12,-3,-2,2,-45,-22,1
22.771421,4,-5,3,-1,-5,-5,8,-4,1
22.791444,5,2,-8,-5,3,-4,-7,10,1
22.791464,-4,26,15,-1,2,5,-12,-8,1
22.792082,7,-15,7,-3,-7,-2,4,6,1
22.792152,3,34,10,17,5,3,-9,-4,1
22.815241,-5,-13,-11,-1,-9,-1,0,2,1
22.815271,1,-10,12,7,4,3,1,18,1
22.817578,6,11,-15,-4,-4,-1,6,-4,1
22.817585,16,102,-33,-15,4,-5,-24,-3,1
22.829450,0,-75,33,14,-2,11,32,13,1
22.829481,-23,-3,-21,-5,-2,-3,-5,-19,1
22.831527,-6,2,23,-12,-1,2,31,11,1
22.831531,1,42,-23,-1,-4,-7,-60,-17,1
22.852161,-1,-26,-17,-5,0,-4,5,10,1
22.852167,15,12,-2,0,-2,-2,28,16,1
22.852169,-8,9,14,2,0,5,-31,-11,1
22.852210,7,-18,16,13,-1,6,31,2,1
22.874961,-1,26,-1,-10,-1,-3,-16,-22,1
22.874985,10,-27,-7,-6,-2,-3,3,-7,1
22.877483,-15,5,-14,6,-2,-7,1,-10,1
22.877491,-3,-31,7,0,-3,-1,2,9,1
22.888949,-12,11,0,0,-2,-3,-4,-6,1
22.888973,9,-2,-8,-12,2,-3,-12,6,1
22.890299,-2,-16,6,1,-3,-3,-16,8,1
22.890305,9,18,-3,-14,-5,0,3,-6,1
22.913149,-10,-8,5,17,2,-4,-13,1,1
22.913159,-7,-17,4,-6,2,3,27,-5,1
22.913162,-4,-32,-4,15,-4,0,33,2,1
22.913166,-3,-35,33,7,-1,1,17,-12,1
22.934731,13,41,-23,-14,-2,-3,2,3,1
22.934754,-5,5,13,6,-1,-6,-21,-1,1
22.936456,17,5,-15,5,3,-2,3,2,1
22.936462,2,-20,10,2,0,0,-2,-7,1
22.948948,4,20,1,1,3,3,16,8,1
22.948962,-10,-13,-5,-1,2,-1,-28,-14,1
22.949853,0,1,-8,-8,-7,-4,7,4,1
22.949874,7,-1,-9,3,-2,-10,6,23,1
22.971513,-9,16,38,4,7,13,-3,9,1
22.971534,-5,-41,-2,-3,-7,-3,-28,-23,1
22.973796,5,11,4,6,4,4,7,2,1
22.973802,-11,-15,-12,4,-5,-4,-16,-8,1
22.994550,8,17,-33,-7,-2,-6,34,10,1
22.994565,2,-5,0,1,5,7,18,2,1
22.995246,-9,-6,1,-16,0,-1,-9,-11,1
22.995259,-14,-13,3,17,3,-2,7,4,1
23.008801,11,-19,1,5,0,-3,-2,-4,1
23.008815,9,31,-21,-5,-2,-4,-24,4,1
23.009471,-1,-39,14,-6,-5,0,1,-5,1
23.009485,2,10,-14,-13,0,-5,-9,-11,1
23.032380,-4,34,-2,9,3,1,23,-3,1
23.032409,-2,-16,-4,-3,-5,2,-11,2,1
23.034899,8,-1,4,4,2,2,13,1,1
23.034907,-13,-2,-5,1,-3,-1,-13,-9,1
23.054711,2,21,-2,0,-2,-6,-44,-14,1
23.054717,1,-4,-9,-7,7,7,63,17,1
23.055288,-3,28,1,6,-7,-1,0,4,1
23.055361,-1,-22,1,-3,-1,2,-30,-8,1
23.070236,5,-4,-17,-10,-9,-7,-8,-2,1
23.070245,-20,20,13,-4,1,-9,-9,-2,1
23.070300,2,-19,-7,-19,7,6,1,1,1
23.070305,-3,6,9,-2,-6,-3,8,4,1
23.091452,1,-22,2,-1,-2,-1,-4,-4,1
23.091472,-10,-10,-3,0,0,-8,-24,-4,1
23.092156,10,34,-15,-5,-5,3,52,14,1
23.092173,9,-46,24,-2,1,-2,-34,-24,1
23.115268,-28,-15,-10,-11,1,2,5,0,1
23.117820,2,10,13,13,-5,-6,-6,-5,1
23.117826,-3,-30,-2,-7,0,-3,-24,-8,1
23.117829,4,2,-11,-1,4,5,43,20,1
23.129428,7,48,-22,-3,2,0,-6,3,1
23.129456,-14,-69,26,4,-2,3,28,-7,1
23.132290,2,15,-3,7,-5,-6,-34,-11,1
23.132297,-16,5,-1,-10,-5,-2,1,8,1
23.151507,2,-27,-6,-4,-1,-2,-7,-8,1
23.151524,19,44,-9,-10,-2,-2,11,8,1
23.152283,-23,-6,4,-5,9,-3,-16,-12,1
23.152302,9,0,-9,1,1,2,-14,5,1
23.174621,-8,-9,8,2,-10,-4,29,0,1
23.174645,5,34,-20,0,6,2,-31,3,1
23.176150,3,-5,16,0,-4,2,-5,-8,1
23.176162,-1,-32,0,-2,4,-1,7,2,1
23.189371,5,-20,13,-5,-2,-1,-7,14,1
23.189402,8,6,6,-5,-2,-1,-16,-7,1
23.190702,4,-2,-27,3,-3,-5,-10,10,1
23.190705,-29,42,4,6,14,6,19,13,1
23.211315,-4,-31,-1,-1,-20,-6,-15,-28,1
23.211329,-3,-2,-5,1,-3,-3,-2,-13,1
23.211968,6,-2,-6,-2,-5,-1,-2,6,1
23.211981,-3,12,-6,-3,0,-2,4,6,1
23.234695,6,5,14,1,4,2,1,4,1
23.234717,6,0,-13,-9,1,2,1,3,1
23.236807,4,-7,1,11,5,-4,-7,4,1
23.236811,-19,-11,-4,0,-8,-2,1,-16,1
23.249077,-12,27,13,-2,3,1,-16,-15,1
23.249112,3,7,5,0,-6,1,12,17,1
23.251975,23,-63,11,-5,1,-1,2,-9,1
23.251981,7,42,7,1,0,-7,9,-6,1
23.272916,-4,-72,21,-1,2,9,-2,19,1
23.272923,15,30,-20,3,1,-3,-7,-2,1
23.272926,-28,17,-2,0,-8,-3,13,-9,1
23.272929,5,0,-6,1,-6,-4,-26,-9,1
23.294542,1,8,-19,-10,-2,-4,4,1,1
23.294565,0,2,15,5,8,0,4,7,1
23.296152,-4,11,3,-6,-3,0,1,-2,1
23.296156,3,-7,-8,-5,-6,-3,-11,-4,1
23.309261,11,13,-3,-10,-2,-5,-14,16,1
23.309289,-10,-26,13,3,-1,3,7,-11,1
23.311089,-12,9,-1,8,-1,2,-10,-14,1
23.311093,10,22,-23,-4,-1,2,13,4,1
23.331972,-11,-21,24,5,2,1,12,7,1
23.332001,-8,-32,-14,-7,-4,-6,-17,-7,1
23.334860,9,-4,35,-3,7,2,1,8,1
23.334866,-23,-15,-5,7,-8,0,1,-12,1
23.354631,-5,32,-12,1,2,-6,-17,-1,1
23.354648,-4,-32,4,-4,-5,-1,2,10,1
23.355460,10,46,-13,-2,-1,-4,-9,-3,1
23.355480,8,-57,-14,-5,4,4,43,4,1
23.368305,-8,27,14,9,2,0,0,-11,1
23.368323,-2,-4,-11,-6,-5,-4,-9,-7,1
23.376789,-2,-3,-11,0,-11,-2,-34,5,1
23.376811,11,1,-4,3,6,-6,-10,-7,1
23.391363,-11,32,-16,8,1,1,17,1,1
23.391384,-7,-10,16,5,5,2,8,11,1
23.393005,-4,28,-19,-2,-5,1,14,4,1
23.393017,-1,-45,26,0,-3,-3,-22,3,1
23.414466,-4,-19,-7,-2,-2,-1,2,-10,1
23.414473,8,22,-16,0,-2,-3,-11,4,1
23.415275,-8,4,18,-4,3,-2,6,-12,1
23.415288,9,37,-24,-4,-1,-6,-30,0,1
23.430142,2,-19,34,-2,-7,3,32,5,1
23.430148,5,5,-1,13,-1,0,13,1,1
23.436471,-5,-3,-1,7,3,-2,18,-1,1
23.436494,-4,7,-1,-7,-3,-1,-8,-6,1
23.451705,19,5,-21,1,3,-3,-6,-9,1
23.451722,-3,8,6,6,0,2,3,3,1
23.453614,0,5,-5,-8,3,3,-9,2,1
23.453619,-7,-16,16,-7,-1,-2,8,0,1
23.476546,17,31,0,-1,0,-4,-3,2,1
23.476550,-43,-39,34,-1,1,-1,-10,-12,1
23.476552,14,-3,-17,0,-1,0,8,0,1
23.476554,-19,1,0,-5,-3,1,-3,0,1
23.488573,3,-12,-12,-7,-2,-3,-31,-7,1
23.488595,12,28,-24,-11,-1,-5,11,7,1
23.496919,0,0,8,-3,-7,4,8,14,1
23.496941,2,-9,19,14,0,2,4,-21,1
23.511984,-6,-19,-1,5,-1,-2,-9,-5,1
23.512004,16,9,-6,2,0,-3,-10,2,1
23.513561,-15,10,-13,1,0,-3,2,1,1
23.513565,8,-1,-1,-17,-4,4,27,15,1
23.534771,-3,4,-15,3,3,-7,-32,-8,1
23.534789,-15,-6,11,3,-4,1,24,-14,1
23.536589,11,-5,13,0,5,-4,12,1,1
23.536599,14,37,-13,-8,0,6,5,12,1
23.548785,-12,-28,-1,-3,2,2,11,3,1
23.548818,24,-18,12,-5,0,2,16,1,1
23.556471,-39,-10,10,4,-9,-2,-1,-11,1
23.556493,1,-8,-6,2,0,-8,-19,0,1
23.571561,-7,7,-10,-6,0,0,11,6,1
23.571580,7,48,-25,-1,0,-1,-22,-6,1
23.572290,5,-15,-24,-7,-6,-1,8,-2,1
23.572306,-3,-35,32,10,1,3,-8,3,1
23.594691,-6,-11,15,2,-2,-3,8,1,1
23.594713,-1,2,-14,5,0,0,-13,-10,1
23.595881,5,2,-8,-2,4,-3,-11,-1,1
23.595885,8,9,-4,0,-3,-7,-5,2,1
23.608211,5,15,-17,-6,-1,-3,35,14,1
23.609422,-21,-38,21,-14,-9,5,-4,-24,1
23.616943,18,6,-6,-6,3,-3,2,5,1
23.616948,12,5,1,6,3,2,-16,1,1
23.634336,-48,-12,5,1,-11,-5,3,-16,1
23.634342,26,43,-25,-6,1,3,5,25,1
23.634344,-2,22,7,-2,-4,-5,-20,-10,1
23.634346,1,-38,2,-3,-2,6,49,-7,1
23.655138,2,-19,-10,-4,2,1,-23,3,1
23.655166,-12,6,-2,2,-3,-2,-2,-3,1
23.657005,-3,6,9,13,-1,-1,0,6,1
23.657011,-2,-7,-11,2,-4,-5,-9,4,1
23.677623,17,16,6,2,2,1,-7,-2,1
23.677651,-4,6,-2,1,1,0,-1,-2,1
23.679976,3,-30,-1,-4,2,-2,-14,-1,1
23.679981,-10,23,-18,-13,-2,-3,10,-8,1
23.691629,4,-50,23,5,2,3,5,-9,1
23.691658,-11,38,19,8,3,-1,8,10,1
23.693899,-3,-17,-12,-1,-2,0,-5,-11,1
23.693904,-18,19,-1,3,4,-2,-13,0,1
23.714623,-6,29,-3,0,2,-2,-2,-6,1
23.714642,10,24,-18,-6,-9,-3,-8,6,1
23.715711,-2,-45,5,-3,-3,-2,1,1,1
23.715730,-1,20,-1,1,-2,-5,-25,-10,1
23.737223,13,-21,2,-4,-4,6,30,6,1
23.737244,5,-24,-5,-12,2,-2,-2,12,1
23.738683,-7,15,-2,17,6,5,6,-12,1
23.738688,-14,2,-14,-1,-15,-9,9,13,1
23.751524,14,9,7,0,6,-2,-45,-19,1
23.751549,-22,-1,-6,-1,3,2,4,-17,1
23.753155,6,-26,0,-5,-4,-1,22,12,1
23.753162,-2,3,12,9,3,2,-3,-5,1
23.774538,6,26,-10,0,-4,1,2,7,1
23.774557,-6,-22,7,9,-2,-8,10,4,1
23.775627,0,-17,-11,-7,5,9,17,-5,1
23.775645,0,49,-10,-4,-6,0,16,4,1
23.797636,-6,-53,13,-4,1,-1,-40,0,1
23.797664,4,-41,4,6,-2,1,15,-15,1
23.800158,-8,1,-2,1,-2,0,-4,24,1
23.800165,2,-13,1,-2,2,-1,-11,-12,1
23.811623,10,9,-15,-8,-4,-4,4,-4,1
23.811645,-3,4,-8,-6,2,1,10,5,1
23.813554,-3,11,8,0,-3,-7,-38,-14,1
23.813562,10,23,-23,8,-1,-6,-1,13,1
23.835024,2,-23,34,10,6,15,44,9,1
23.835033,-14,-13,-3,0,-4,-4,-33,-13,1
23.835427,19,36,3,-9,-5,-1,7,2,1
23.835461,-14,-26,-5,-9,-6,-2,8,0,1
23.857840,-1,19,-11,8,3,-2,-42,0,1
23.857863,-2,5,6,4,2,0,-3,2,1
23.857867,14,16,-9,-3,1,3,7,-1,1
23.859417,-6,-14,11,-1,6,-1,-10,-5,1
23.871368,-5,6,-15,-4,-10,-7,-3,-1,1
23.871384,13,27,6,-7,-3,1,-3,13,1
23.872347,-16,-66,10,7,-2,3,2,-7,1
23.872351,11,6,-7,-9,0,1,-17,-5,1
23.895143,-8,-27,6,6,-5,-7,12,-14,1
23.895172,-1,36,-16,0,1,-1,-27,13,1
23.897082,8,0,-7,-6,3,1,18,6,1
23.897087,-18,-5,12,-1,0,4,0,-13,1
23.917176,-2,-15,11,-4,0,-3,-4,-4,1
23.917193,2,-1,-5,-1,-2,-2,-4,-10,1
23.917833,3,15,2,2,0,-3,-2,7,1
23.917847,10,-9,-10,-2,2,7,7,9,1
23.931355,-8,27,-12,-6,-6,-5,17,-2,1
23.931368,-4,-64,52,17,2,2,-2,-5,1
23.932100,-10,-2,-3,-2,-2,-1,-4,2,1
23.932119,15,36,6,10,3,-3,-8,-12,1
23.954759,-4,8,-11,-6,0,-2,6,4,1
23.954866,6,10,-16,-5,-6,-8,-23,0,1
23.957442,0,6,1,2,7,6,34,-4,1
23.957458,1,-15,9,-8,-9,3,17,3,1
23.977070,7,25,-10,-11,-2,-1,-7,9,1
23.977089,-8,1,-11,-5,2,-1,-36,-8,1
23.977702,-9,-16,10,1,-2,-8,-6,-14,1
23.977715,3,13,-1,-1,2,1,4,9,1
23.991351,-41,-4,2,-3,4,-3,-5,5,1
23.991358,25,25,-3,0,-1,3,10,-12,1
23.992017,0,-7,-4,-1,-4,-3,-37,-3,1
23.992023,2,-23,-3,-2,2,0,-2,3,1
24.015523,0,56,-14,-8,-8,-1,3,1,1
24.017612,-5,-46,-19,5,7,0,12,3,1
24.017617,-6,45,-4,7,-1,-3,-12,-6,1
24.017619,-4,-64,20,2,0,-2,-3,-4,1
24.038491,15,36,-8,-11,5,-1,-5,1,1
24.038497,-16,2,-10,-7,-4,-4,8,0,1
24.038498,8,17,-3,-7,-5,-1,3,-7,1
24.038500,-8,-27,0,-1,0,-6,-27,3,1
24.051483,10,-11,5,6,0,5,12,-9,1
24.051505,6,24,-1,-8,-6,-4,-18,13,1
24.053697,-6,-6,4,-1,3,-4,10,0,1
24.053704,3,15,-8,0,-7,-4,-14,1,1
24.074600,-5,-36,1,3,-1,-1,-1,-6,1
24.074623,-11,-6,-2,-7,-5,-6,-5,-6,1
24.075365,9,8,-15,-6,-7,-2,-12,12,1
24.076838,-4,12,4,-3,8,4,-9,-10,1
24.097627,-6,-7,-12,2,-2,2,3,-1,1
24.097656,9,9,-9,-10,-6,-2,43,3,1
24.099954,-13,-49,15,5,-4,-3,3,-2,1
24.099960,29,37,6,0,7,0,11,-1,1
24.111942,-46,-43,11,9,-2,0,-3,0,1
24.111964,5,9,-9,-3,1,1,17,-1,1
24.113794,-4,-16,-1,0,1,4,3,-1,1
24.113803,-3,-2,-16,-9,-7,-2,8,5,1
24.134693,11,26,25,8,-1,-3,-14,-5,1
24.134715,6,-20,3,0,2,-2,0,-3,1
24.135630,-15,5,1,11,3,1,14,-2,1
24.135649,9,22,-19,0,-6,0,2,-6,1
24.157160,-16,-59,7,-5,0,-2,-8,-6,1
24.157183,-12,-14,5,0,0,1,14,-9,1
24.158181,4,17,-7,-5,-1,-4,-22,-8,1
24.158184,10,3,-8,-5,-1,-3,-2,6,1
24.171475,21,13,-10,1,2,-1,-23,11,1
24.171499,-3,3,6,2,0,4,16,5,1
24.172908,-1,20,-2,-1,4,-2,8,-1,1
24.172913,-16,-21,5,-4,-5,0,-10,-18,1
24.195065,14,-17,4,-13,-2,-2,-1,-1,1
24.195069,-6,-13,8,-1,0,0,-18,-4,1
24.195153,15,53,-11,9,1,1,-5,12,1
24.195159,-6,-39,-21,-11,2,-5,-15,3,1
24.217201,14,26,43,16,5,8,37,2,1
24.217223,4,8,-8,-2,-2,-2,2,-1,1
24.218435,-10,-19,9,-5,4,1,-18,-5,1
24.218440,9,9,-22,-3,-2,-3,2,-3,1
24.231128,10,7,-17,0,-8,-1,-8,0,1
24.231149,-2,-15,3,-2,-4,-2,-12,-2,1
24.239363,6,8,-14,-9,-5,-3,-1,-3,1
24.239392,-4,-24,12,3,1,-4,7,6,1
24.255071,0,36,-23,-10,4,0,-7,-3,1
24.255101,0,-16,28,8,-1,1,8,7,1
24.257536,4,-39,1,-5,2,-3,-43,-9,1
24.257542,-10,39,-9,-3,-6,-2,-1,-2,1
24.277564,7,-32,27,12,-1,1,18,-3,1
24.278977,-12,18,-16,0,4,-2,-19,1,1
24.278982,3,19,-21,-17,-5,-7,-16,9,1
24.278983,-7,-38,21,19,3,9,59,6,1
24.290799,-8,14,-27,-11,-6,-7,-62,-23,1
24.290821,7,-8,-3,2,-1,0,10,-9,1
24.299195,6,7,1,2,1,1,12,8,1
24.299228,-14,3,4,-5,-2,-4,-12,-9,1
24.315260,7,11,-14,-11,-4,0,24,8,1
24.315293,-7,0,-1,6,-1,-2,-19,-1,1
24.317500,-10,-18,5,-1,-6,-1,21,-6,1
24.317505,3,62,-16,2,-3,-1,-14,5,1
24.337175,6,-73,11,5,9,-2,16,-12,1
24.337189,-13,-4,-10,-12,-12,-6,-24,-2,1
24.337810,-21,7,-4,4,-3,-1,-30,-1,1
24.337876,18,-24,37,-1,1,-2,-17,-3,1
24.351563,-6,9,-20,-5,-3,-2,24,10,1
24.351568,-4,6,13,14,9,1,14,-14,1
24.359230,16,-16,-6,-4,-6,-4,14,10,1
24.359251,-13,8,3,10,2,-4,-17,11,1
24.374576,-8,36,-18,-5,-2,0,6,-5,1
24.374600,7,-69,23,3,-4,5,2,4,1
24.375792,-8,53,5,7,2,4,9,-13,1
24.375804,-4,-15,-2,-7,1,-4,-12,-10,1
24.398073,11,-4,-5,-2,-5,-3,1,12,1
24.398079,5,31,-13,3,4,-4,-12,-4,1
24.398081,2,-16,-5,-7,0,10,13,-4,1
24.398083,-2,1,36,-1,1,3,18,3,1
24.413187,1,19,-18,-6,1,-6,1,5,1
24.413193,0,-16,15,-1,-4,-1,-9,-8,1
24.419165,-29,-17,3,3,-1,-3,9,4,1
24.419181,13,-13,-17,-4,-3,1,4,-7,1
24.434631,-13,5,-7,6,-2,-1,1,-4,1
24.434650,19,24,-12,-8,1,-3,-25,10,1
24.436375,12,-13,6,-9,3,-1,2,-4,1
24.436381,-4,-11,-2,4,-8,0,6,-3,1
24.457212,-20,8,6,1,-4,-3,-7,-12,1
24.457235,10,-7,-16,-6,-2,-2,-4,0,1
24.458900,7,0,4,-6,-1,-1,4,6,1
24.458904,-3,4,-19,-5,-1,-1,1,18,1
24.470768,6,1,1,-4,-1,3,-19,-11,1
24.470790,-22,-4,8,-6,-3,-1,4,-4,1
24.478851,13,24,-19,10,1,-4,16,-4,1
24.478867,-2,-48,24,-2,4,6,6,3,1
24.495028,-11,-21,-12,-1,-9,-4,-17,-6,1
24.495047,19,18,-2,-4,3,1,10,6,1
24.495529,-16,-21,11,3,1,-1,-1,-4,1
24.495547,-44,6,-9,2,0,-5,18,-10,1
24.517310,20,-1,0,4,2,0,-11,9,1
24.517333,-11,-14,-7,-4,-1,0,-2,-3,1
24.519385,23,18,-2,-15,-5,-3,-9,-10,1
24.519390,-24,24,-10,18,2,1,5,7,1
24.531351,-5,-30,43,5,0,0,14,-1,1
24.531390,13,35,-11,-16,-3,-4,1,7,1
24.539026,-27,-10,-1,5,2,-1,-10,-7,1
24.539042,5,-18,-8,-8,-2,-3,-11,-5,1
24.554696,4,36,0,-1,2,0,8,10,1
24.554711,2,-24,-8,3,3,2,5,-4,1
24.555253,-12,-14,21,6,-5,0,4,12,1
24.555266,26,49,-21,-8,-9,-3,-14,-5,1
24.577610,-5,-39,-6,-9,5,-4,-3,-21,1
24.577639,-10,-1,12,6,3,1,2,-5,1
24.579791,7,20,-14,2,0,0,-25,1,1
24.579796,4,-11,4,0,0,0,9,10,1
24.591406,12,12,-10,-9,-1,-4,-15,12,1
24.592762,-9,30,-10,13,-5,3,40,-6,1
24.600723,2,-22,-4,0,3,-1,0,2,1
24.600730,-5,-3,3,-6,1,-1,5,3,1
24.615484,18,9,-6,-19,-12,1,-10,-10,1
24.615492,-46,-9,-19,-4,0,-6,-17,-10,1
24.615494,6,-7,31,-1,-1,-1,3,0,1
24.615496,11,4,5,-9,-1,-3,-22,-9,1
24.637328,-6,-29,-15,9,5,2,8,7,1
24.637349,-3,-56,28,-1,-2,3,1,-1,1
24.638755,-1,4,-3,1,-4,-2,13,4,1
24.638759,-1,12,-6,-5,4,2,-42,-2,1
24.659519,5,-22,-5,-7,-2,-3,-6,2,1
24.659541,-12,20,-8,1,-5,-2,-18,-9,1
24.661701,1,4,-7,1,-2,-8,13,-4,1
24.661707,6,-12,4,2,2,-1,9,12,1
24.673726,-3,15,3,8,3,6,23,13,1
24.673747,8,15,4,4,-7,3,2,0,1
24.684700,16,-6,-4,-6,-5,-7,-16,-23,1
24.684708,10,-3,-5,5,-3,-3,12,5,1
24.697603,-17,12,-18,1,1,-1,-1,9,1
24.698717,6,2,9,8,1,-4,-11,-3,1
24.698760,8,-43,13,-5,0,4,24,7,1
24.698810,-47,7,-4,-11,-3,-4,-2,-12,1
24.719820,13,22,0,8,1,0,-14,13,1
24.719847,2,-27,-3,-10,0,0,-1,-2,1
24.721283,9,35,-3,1,-1,1,-4,-12,1
24.721291,-5,7,-12,5,0,0,8,-7,1
24.733345,-9,-35,8,-14,1,-2,-7,-3,1
24.734465,3,6,-17,-6,3,-4,-15,1,1
24.743330,7,3,3,-7,-8,1,-3,15,1
24.743339,4,-13,7,5,-2,0,6,-6,1
24.757108,-7,25,0,8,-1,1,9,-11,1
24.757118,10,7,-8,-4,-1,-5,-13,3,1
24.758534,-15,-27,-4,-3,6,4,4,3,1
24.758640,13,-4,3,-9,-6,-5,-20,-9,1
24.780254,-6,11,-7,3,-4,-2,6,-2,1
24.780292,8,-19,24,-1,-2,-4,-5,12,1
24.782582,-13,-14,-10,-13,2,0,-2,-1,1
24.782590,2,0,11,1,0,-3,-11,2,1
24.793444,1,-14,-8,3,-2,3,10,-9,1
24.793468,0,26,3,3,-1,-3,10,-6,1
24.802792,-15,41,-15,-1,0,-1,-10,2,1
24.802798,20,11,2,1,0,2,34,7,1
24.817829,9,-57,-7,-4,-2,0,10,18,1
24.817842,-3,1,-3,-1,-3,-2,-8,-23,1
24.818661,-4,8,-3,3,-7,-4,-12,-8,1
24.818672,0,10,-11,4,2,-1,-7,-9,1
24.840159,-2,-11,17,6,4,1,5,0,1
24.840179,-8,-4,-29,-7,-1,-9,-17,9,1
24.842816,23,7,30,12,-3,6,24,8,1
24.842820,-28,0,-10,-5,-3,-2,-3,-18,1
24.853347,-18,-12,1,-7,-3,-5,-4,-4,1
24.853372,-15,-1,1,1,-3,-1,-15,-4,1
24.864527,13,12,-23,-15,3,-4,-13,-3,1
24.864532,1,-33,3,6,1,-3,-13,10,1
24.877389,3,47,6,-6,-6,4,28,2,1
24.877418,0,-3,3,-2,5,2,-6,-9,1
24.879903,-35,-14,-10,12,-3,-2,2,4,1
24.879916,17,-13,4,3,2,2,1,3,1
24.900039,0,6,-6,5,2,-4,-13,-5,1
24.900065,16,20,-1,-3,-3,1,17,3,1
24.902123,-10,-6,-1,-2,3,1,-16,4,1
24.902130,0,36,-9,-4,-2,-1,30,1,1
24.914036,1,-16,18,13,-2,-2,-35,-16,1
24.914050,-2,-1,15,1,3,6,27,18,1
24.920833,-9,-20,-7,-6,-1,-7,-21,-24,1
24.920852,-4,-2,1,2,1,0,12,-6,1
24.937185,6,37,-21,-9,-4,-5,-12,12,1
24.937207,16,-4,0,3,-2,-1,-5,-4,1
24.939341,-15,-2,-6,-4,1,1,34,5,1
24.939345,9,11,-7,-2,-1,3,-13,-7,1
24.959789,-12,-10,9,2,2,-3,-5,-1,1
24.959793,-2,-9,-3,-1,0,0,-15,-10,1
24.960943,18,-7,-3,3,-13,-5,4,3,1
24.960956,-22,8,14,14,9,0,-24,2,1
24.975477,13,0,3,-14,-7,0,-9,-2,1
24.975481,-12,-25,-12,-9,0,-1,43,26,1
24.980961,25,48,-9,4,0,-2,-12,-24,1
24.980984,-8,-76,28,5,-3,-1,10,-17,1
24.997485,-16,-5,2,3,-1,0,-12,-7,1
24.997509,7,53,-24,1,0,1,0,6,1
24.999187,-4,-58,31,-2,1,-3,19,16,1
24.999199,10,-3,-21,-5,-5,-2,-13,-5,1
25.021234,-5,5,17,-3,1,3,43,-6,1
25.021241,-14,8,6,5,4,5,-34,-1,1
25.021244,12,-9,-7,-8,-3,-5,-12,4,1
25.021247,0,9,0,-6,0,0,-10,5,1
25.034144,-22,-14,-16,0,-2,-1,1,-7,1
25.034166,7,12,-3,-3,-2,-4,15,7,1
25.048681,-3,9,3,-12,-4,2,-4,-1,1
25.048710,3,3,5,6,3,-4,-10,1,1
27.058686,-7,-30,1,-3,-1,-3,1,-1,0
27.059459,1,34,-4,1,-3,-1,-1,-1,0
27.067250,4,-4,-6,-4,-2,0,-1,-1,0
27.067270,6,13,-3,-1,-1,-1,-1,-2,0
27.082631,-20,-28,3,-3,-2,0,1,-2,0
27.084958,5,21,0,-1,1,-2,-2,-2,0
27.085010,-6,-16,-4,9,3,0,1,-1,0
27.085012,1,7,6,0,-1,-1,0,-1,0
27.104714,3,-3,-5,-1,0,-1,0,0,0
27.104739,-4,-7,2,-2,-1,0,0,-1,0
27.106514,1,7,-8,-5,-4,-2,0,1,0
27.106523,-1,-7,-7,-3,-3,0,-1,1,0
27.118336,0,3,-3,-4,0,-2,0,0,0
27.118366,0,-10,5,9,1,0,-1,-1,0
27.127880,0,4,4,-4,-2,-2,0,-1,0
27.127889,-1,-4,0,-2,0,-1,0,-2,0
27.142046,3,39,7,8,0,-2,-2,0,0
27.142063,-5,-36,-4,-4,0,-1,0,-1,0
27.143796,3,-1,3,-2,-2,-1,-3,-1,0
27.143826,-11,-6,-5,-4,-2,0,-1,-1,0
27.165150,12,3,-5,-3,-2,-1,-2,-3,0
27.165180,0,18,-3,3,-1,-1,-2,-2,0
27.167711,5,-7,-1,-2,-1,0,0,0,0
27.167717,-16,-4,1,2,1,-2,1,0,0
27.178551,2,-13,-1,0,-1,-1,-1,-1,0
27.178572,-2,3,-1,-6,-2,-1,-1,-1,0
27.187746,-2,6,3,3,-1,-2,-1,-1,0
27.187750,5,7,0,0,-1,-1,-1,1,0
27.203180,-2,-13,2,1,-3,-2,0,1,0
27.203186,1,5,7,-1,1,0,-2,0,0
27.203598,6,-38,-14,-4,-1,-1,1,-2,0
27.203604,8,63,6,-2,-1,-2,-4,-4,0
27.224778,-5,-17,1,-2,1,0,0,0,0
27.224799,6,-16,-3,-2,-3,-2,0,0,0
27.226964,-4,2,-9,-2,-1,-2,0,-1,0
27.226971,3,32,11,1,1,-2,-1,-1,0
27.238786,-2,-8,-5,-9,-4,-3,-3,-1,0
27.238807,-2,6,-5,-3,-4,-1,-1,-2,0
27.262145,27,35,10,10,3,-1,-1,3,0
27.262184,-31,-33,-13,0,-1,0,-1,-1,0
27.265222,8,-34,-4,-5,-2,-3,-1,-1,0
27.265228,-3,-15,-6,-2,-2,-4,-1,1,0
27.269649,-1,19,7,0,-4,0,-3,-2,0
27.269671,7,-9,-1,4,4,1,-2,2,0
27.284708,5,5,-2,-1,-2,-2,-1,1,0
27.284726,-5,-3,-5,-1,0,-3,0,0,0
27.286230,-3,-2,-1,-3,-1,0,0,0,0
27.286248,2,-12,1,-5,-4,-2,-1,-1,0
27.298439,-6,1,-11,-3,-1,0,0,-2,0
27.298444,2,-5,4,7,1,-1,-1,-1,0
27.307986,-14,30,5,-1,1,0,-2,-2,0
27.307994,9,-46,0,0,-2,-3,-1,-1,0
27.322722,-4,7,-2,-2,0,-1,0,-1,0
27.322760,1,11,-4,-3,-1,0,-1,-1,0
27.325031,-9,-11,4,1,-1,-2,-1,-2,0
27.325035,4,0,-7,-2,-1,-1,-1,-2,0
27.345698,-8,-2,-5,-4,-1,2,0,-2,0
27.345704,-1,8,9,8,2,-1,-1,0,0
27.345958,-2,-19,-6,0,1,-1,-2,-2,0
27.345964,1,14,3,-2,-1,-1,-2,-1,0
27.367486,-4,3,21,1,-1,-2,-3,-1,0
27.367505,-7,-51,-14,-6,-4,-1,-1,-3,0
27.369421,-5,9,2,-1,-1,-2,-2,1,0
27.369429,13,14,-6,2,-1,-1,0,0,0
27.382793,-9,-22,-4,0,-1,-2,-1,-5,0
27.382822,-4,12,3,-5,-2,-1,-2,-1,0
27.385240,-1,-10,-9,1,-2,-2,0,-1,0
27.385248,-5,-7,-1,-5,-2,0,0,0,0
27.405077,-1,13,-2,1,0,-2,-2,1,0
27.405103,2,-3,3,-1,-2,-1,-1,-1,0
27.407601,-5,-4,1,-5,-2,-1,-3,-2,0
27.407607,-5,15,-1,1,-2,0,0,-2,0
27.418590,4,-6,-13,0,1,1,2,1,0
27.419754,15,-12,24,-1,0,1,0,1,0
27.428837,-23,-21,-6,-4,-3,-1,-3,-4,0
27.428843,-1,-1,4,-1,-1,-1,-2,0,0
27.442070,16,9,1,4,-1,-1,-1,0,0
27.442092,3,10,-9,-3,-2,-1,0,0,0
27.443738,6,11,2,-3,-1,-1,0,-2,0
27.443757,-4,-19,0,-5,-3,-3,-1,-2,0
27.465139,-1,11,2,1,1,0,0,-1,0
27.465169,-4,5,-4,0,-1,-1,-2,-1,0
27.467804,-3,4,8,-3,-1,-3,-2,-1,0
27.467810,0,-12,-11,0,-1,0,-2,0,0
27.487168,1,8,10,3,1,0,-2,-2,0
27.487184,-5,-6,8,4,0,0,1,-1,0
27.488741,-4,-36,-10,-4,-3,-1,-2,-2,0
27.488756,-1,-2,-8,-5,-2,-2,-2,-1,0
27.502643,-5,3,2,-4,-4,0,-2,-3,0
27.502658,1,-6,-10,-4,-2,-1,-2,-1,0
27.504165,2,17,-1,-2,0,-2,-1,1,0
27.504185,-1,0,4,6,-1,-2,-1,0,0
27.524556,-5,-6,1,1,-1,-3,0,-3,0
27.524579,-3,11,-3,-1,1,-1,-2,-1,0
27.526736,4,6,3,0,0,1,1,0,0
27.526748,-2,5,3,-3,-2,-1,-1,-1,0
27.548872,-4,-12,-4,-2,-2,0,-1,2,0
27.548878,6,9,2,0,2,-1,0,0,0
27.548881,-24,-42,-7,-2,-3,-1,-1,-4,0
27.548882,10,-7,-4,-1,1,-4,-2,-2,0
27.563624,2,14,-1,-1,-2,-2,0,0,0
27.563629,-7,-30,-4,-1,-1,-1,-2,0,0
27.563631,6,10,6,0,0,0,1,4,0
27.563633,-6,10,2,-3,-1,-1,-1,-2,0
27.584511,-2,-16,-2,3,1,-1,-2,-2,0
27.584529,2,28,-6,-3,-1,-2,1,0,0
27.586092,0,-1,3,3,0,-1,1,-2,0
27.586109,0,-13,-5,-1,-1,1,1,0,0
27.607638,0,3,4,2,0,0,-1,-2,0
27.610379,-4,2,-1,-5,-2,-2,-2,-3,0
27.610385,13,7,-5,0,-1,-1,0,0,0
27.610387,-7,-2,-1,-5,-2,-1,0,0,0
27.622358,-8,-11,-1,-4,-1,-1,-1,1,0
27.622380,6,16,-3,1,1,0,-1,-4,0
27.624768,5,-24,0,4,-1,1,-1,0,0
27.624775,-1,-8,1,-2,-2,-2,-1,-1,0
27.644528,1,9,-3,-3,-1,-1,-1,0,0
27.644541,-6,-9,-2,-4,-4,-2,-1,-1,0
27.646432,-1,18,0,3,0,-1,0,-1,0
27.646540,3,3,1,-3,-2,0,-2,-1,0
27.667159,-16,-17,-6,-2,-2,-3,-1,0,0
27.667182,-3,-2,-3,-3,-3,-1,1,1,0
27.669308,2,16,9,-2,-2,-1,-1,-4,0
27.669314,-13,-10,0,1,0,0,-2,-2,0
27.682140,4,4,-1,-4,-1,-2,0,0,0
27.682181,-2,-14,-5,0,0,0,-2,-2,0
27.688213,-5,0,-9,-2,0,-1,-2,0,0
27.688235,6,17,4,1,1,0,-1,0,0
27.704490,-2,-10,2,1,1,0,0,-1,0
27.704497,-7,4,1,-3,-1,-2,-2,-1,0
27.706119,3,9,1,1,1,0,-1,-1,0
27.706341,-13,-13,-3,-2,-2,-1,-2,-3,0
27.727031,5,22,-4,-8,-2,-1,-1,0,0
27.727052,5,-7,-5,9,-2,0,-1,0,0
27.729581,0,12,2,-4,-2,0,0,1,0
27.729586,5,-1,1,6,1,0,-1,-1,0
27.741579,5,7,-5,0,-3,-2,-1,-1,0
27.741600,0,5,0,-4,-3,-1,-1,-2,0
27.748730,-10,-16,-10,-2,-2,0,-2,1,0
27.748765,4,7,7,3,0,0,0,0,0
27.765375,1,-4,3,3,0,0,0,-3,0
27.765379,-1,3,-3,-4,0,-2,-1,-1,0
27.766181,9,12,11,-1,-1,-2,-1,-2,0
27.766202,-8,9,-9,-7,-4,-1,0,1,0
27.787123,-22,-47,-1,1,-1,-1,-2,0,0
27.787141,2,7,5,1,2,0,-2,-2,0
27.788759,-6,2,-4,-7,-1,0,0,0,0
27.788853,3,2,-1,3,-2,-2,-1,-1,0
27.801521,5,10,0,-1,0,-2,0,-2,0
27.801539,-12,-1,-2,0,-2,-1,-2,-1,0
27.808159,1,-9,-6,-4,-3,0,-2,-4,0
27.808180,4,-8,-7,-4,-1,-1,0,-1,0
27.827231,1,4,5,-4,-2,-1,-1,0,0
27.827237,-11,-10,3,7,1,-1,-2,0,0
27.827239,3,8,-3,-1,-3,-1,0,-1,0
27.827241,4,-9,-5,-2,-1,-1,0,-1,0
27.847865,1,15,4,1,0,1,-1,-1,0
27.847885,-5,9,-5,-6,-2,1,1,-1,0
27.850076,9,10,9,-3,-3,-1,-1,-1,0
27.850083,-19,-24,-10,4,0,-1,0,0,0
27.861346,7,5,-3,1,1,-2,0,0,0
27.861360,1,-21,-3,-7,-3,0,1,-1,0
27.868638,-4,32,0,5,1,-2,-1,1,0
27.868662,3,1,3,-3,-2,-1,-1,-2,0
27.884689,2,8,-2,0,0,-2,-4,-3,0
27.884733,-1,-7,-3,2,-1,-1,-1,-1,0
27.886338,-1,-9,-9,-4,0,-1,-2,-1,0
27.886342,5,5,4,-5,-1,-1,0,0,0
27.907127,-2,-17,-4,-2,-4,0,-2,-2,0
27.907133,1,19,1,-1,0,0,0,1,0
27.908463,-3,-10,4,0,-2,-2,-1,-2,0
27.908476,6,5,-1,1,0,-1,-1,-1,0
27.921731,-6,-6,-5,-1,-2,0,-1,0,0
27.921736,3,-6,1,-2,0,-2,-2,0,0
27.928424,-3,19,-1,1,0,0,-1,1,0
27.928445,10,6,4,-1,-1,-1,-1,0,0
27.945261,-14,8,-6,-3,-2,-3,-1,-2,0
27.945628,3,-11,-7,-1,1,-2,0,-1,0
27.947961,-3,2,6,3,0,1,-1,1,0
27.947964,7,10,-2,-3,-1,-2,-2,-1,0
27.969237,3,-9,-1,2,0,0,-1,0,0
27.969244,-7,5,-5,-6,-6,-1,-1,-3,0
27.969246,2,-20,-2,-1,2,-1,0,-1,0
27.969248,-4,-8,9,6,0,0,-2,-1,0
27.981426,10,-26,-5,-2,-2,-2,-1,-3,0
27.981465,1,-8,3,3,-1,-2,0,-1,0
27.991131,1,7,-6,-4,-3,-2,-2,-2,0
27.991135,-2,-28,-6,-4,-3,0,0,-1,0
28.004582,-4,17,8,1,-1,0,-1,0,0
28.004599,3,7,4,-1,1,-1,-3,0,0
28.006791,-2,-9,-4,0,-2,0,0,-1,0
28.006797,-10,1,-3,-1,0,-3,0,-2,0
28.027514,-2,13,0,1,-1,0,0,0,0
28.027543,4,7,-4,-2,-1,-1,-2,-2,0
28.029645,3,-8,-4,-4,-3,-2,0,0,0
28.029657,-18,3,2,0,-2,0,-2,0,0
28.041106,-9,-5,2,0,0,-1,0,1,0
28.041127,3,2,-1,-1,-1,-2,-1,-1,0
28.052007,-3,-12,-5,-1,-2,-2,-1,-1,0
28.052015,4,-4,-3,-5,-1,-2,-1,-2,0
28.064455,4,6,-13,-13,-4,-1,-1,-1,0
28.064468,-6,7,19,12,4,1,0,0,0
28.066243,0,-4,6,-1,-1,-1,-2,-1,0
28.066267,2,-6,-7,2,0,-1,-1,0,0
28.087190,-5,20,1,-2,0,0,0,-1,0
28.087212,-1,-4,-14,-4,-1,-2,-2,-2,0
28.089191,2,-6,0,-4,-2,-2,-3,-1,0
28.089196,-11,-7,0,-4,-3,-1,-1,0,0
28.101053,6,1,-3,5,1,-1,-2,-1,0
28.101075,-6,-4,-6,-4,-4,-1,-2,-1,0
28.110891,-4,0,5,2,0,-1,0,-1,0
28.110896,4,18,4,-4,1,1,1,-2,0
28.124651,3,-16,6,7,1,-1,-2,1,0
28.124683,-1,8,0,-4,-1,0,0,-1,0
28.125985,-6,-6,-3,4,2,1,0,-3,0
28.125991,1,13,-7,-4,-5,-2,-1,-1,0
28.146974,5,-13,1,-4,-2,-1,0,0,0
28.146993,7,-2,6,3,0,0,0,0,0
28.149774,-2,1,-4,-5,0,0,1,-1,0
28.149785,2,-1,-1,2,-1,-2,-1,-1,0
28.160840,-3,20,2,2,-1,-1,-1,-1,0
28.160862,-1,-16,-12,-3,-2,0,-2,-2,0
28.170221,-2,4,8,-1,-2,-2,-1,-1,0
28.170227,-3,0,-2,1,-1,2,-1,-1,0
28.185758,-1,-26,-4,-1,1,-1,2,1,0
28.185765,-6,25,0,-4,0,-3,-1,0,0
28.186180,3,-21,-9,3,-2,-1,-2,0,0
28.186187,-12,-6,4,0,0,-2,-2,-3,0
28.207602,2,3,-6,-2,-2,-2,-2,-1,0
28.207630,-1,-1,1,-2,-1,0,-1,1,0
28.209564,-3,5,0,-2,0,-2,-1,-1,0
28.209572,9,6,3,-1,-1,0,-1,0,0
28.220794,-12,-10,-6,1,0,-1,-1,-3,0
28.220816,3,-9,6,0,-3,-3,-2,-3,0
28.231195,1,-10,-2,-4,-2,-1,-2,-1,0
28.231199,-9,-3,2,0,-1,-1,-1,-1,0
28.244545,-1,0,-2,-3,0,-2,-1,-1,0
28.244567,6,-9,1,3,-1,-2,-2,1,0
28.247566,-2,3,-8,-3,-3,-3,-1,-2,0
28.247570,0,4,3,0,-1,0,0,-1,0
28.267274,-1,1,-1,-4,-4,-1,-1,-1,0
28.267408,-4,7,-7,-7,-1,-3,-2,-2,0
28.268699,-4,7,7,9,2,0,-1,0,0
28.268715,5,-7,3,1,2,-1,1,1,0
28.280698,-6,7,5,1,-3,-1,-1,-2,0
28.280711,18,-4,1,-1,-2,-1,-3,-2,0
28.290144,-23,8,-8,-5,-2,0,0,0,0
28.290149,-1,0,-4,0,0,-1,-2,-1,0
28.304730,0,-1,-5,-5,-4,0,-1,-1,0
28.304752,-2,4,-1,4,-3,-1,0,-1,0
28.307093,10,5,6,5,3,0,-1,0,0
28.307097,3,4,-7,-2,-3,-1,-2,-2,0
28.327006,3,-1,-2,-8,-3,1,-1,0,0
28.327020,-4,-3,1,4,0,0,1,1,0
28.328670,-12,24,-3,-5,-2,-1,-3,0,0
28.328689,1,-40,1,4,1,-1,-3,-2,0
28.340961,2,-2,1,4,-1,-1,0,-1,0
28.340966,-4,4,4,-2,-1,-1,0,0,0
28.351561,4,-13,-8,-1,-3,0,0,-2,0
28.351569,0,2,0,-4,-2,0,-1,0,0
28.365046,2,18,-5,-2,-1,-1,-2,-2,0
28.365078,-4,-9,7,1,0,0,0,0,0
28.367695,2,-5,0,-6,-2,-1,1,1,0
28.367702,0,6,-4,-2,-1,0,-1,-3,0
28.387324,1,-11,-5,-1,-3,-2,1,-1,0
28.387328,2,-2,-7,-4,-2,-1,1,-2,0
28.388566,-20,11,15,8,3,0,0,1,0
28.388607,3,-4,0,-3,-2,-2,-2,0,0
28.401048,-1,4,4,2,2,-1,0,-2,0
28.401072,-1,-8,-6,-6,-1,-2,-1,-3,0
28.410675,1,2,-7,-7,-3,-2,0,-2,0
28.410682,0,8,-2,2,0,-1,-1,0,0
28.424638,-2,1,-4,0,-1,1,-2,-2,0
28.424660,-9,-6,1,1,0,-1,-1,-2,0
28.426651,13,3,-7,-5,-5,0,0,-1,0
28.426655,-5,-25,5,3,1,0,0,-2,0
28.447397,9,-10,-7,-3,0,0,-2,-1,0
28.447429,-1,1,1,1,1,0,-1,1,0
28.449781,-10,-6,-1,-1,-1,0,-2,-1,0
28.449791,2,6,-5,-7,-2,-1,-1,-1,0
28.469685,-1,9,7,0,-2,-1,-1,-1,0
28.469704,2,-7,-7,0,-2,0,-3,-1,0
28.471339,5,-5,12,-6,-3,-3,-2,-2,0
28.471353,-10,16,1,4,-1,0,-1,1,0
28.484534,3,-45,-6,-7,-1,-1,-2,-2,0
28.484550,-2,10,9,10,2,0,0,-2,0
28.486185,11,-4,-5,0,0,-1,-1,1,0
28.486206,-9,4,-3,-3,-4,-1,0,1,0
28.507621,-4,22,4,-2,0,-1,-1,-1,0
28.507649,-1,-22,-9,-5,-3,-1,-2,0,0
28.510086,2,-11,0,1,1,0,-1,-2,0
28.510092,-2,26,-2,-1,-2,0,-1,0,0
28.529498,15,-13,-5,0,-1,-3,-1,-1,0
28.529512,-1,10,-1,-3,-3,-2,-1,-1,0
28.530991,-2,-10,-9,3,-1,-2,-1,-2,0
28.531004,7,3,-1,-4,-2,-1,-2,-1,0
28.544456,4,12,1,0,-3,0,0,-1,0
28.544470,-6,4,5,0,1,-1,0,-1,0
28.546065,4,3,-1,2,-1,0,-1,0,0
28.546084,9,-3,-4,-10,-3,-2,-1,-2,0
28.567519,-10,-3,0,5,0,0,-1,1,0
28.567540,0,-14,-3,5,0,0,0,0,0
28.568766,-3,31,-7,-4,-2,-1,-1,0,0
28.568796,-4,-38,5,2,0,0,-2,-2,0
28.590248,-6,-2,-2,-6,-2,-1,-2,-3,0
28.590254,-2,8,-7,-5,-3,-1,-1,0,0
28.590990,8,5,1,-1,-2,-2,-1,-1,0
28.591067,1,13,1,2,0,-2,-1,-1,0
28.605151,-4,12,6,1,1,0,-2,0,0
28.605157,-1,-16,-11,-5,-1,-1,-2,0,0
28.613789,0,-10,5,4,-1,0,0,0,0
28.613800,-16,4,-7,-2,-3,0,-2,-4,0
28.627248,-4,-26,-7,1,1,-2,-1,0,0
28.627269,-2,12,6,-4,-2,-2,-1,0,0
28.628752,1,-9,-2,0,0,-1,0,-2,0
28.628876,6,14,0,1,1,0,2,1,0
28.649694,-18,6,1,-1,-3,-1,-1,-2,0
28.649721,4,6,-4,-1,-1,0,-1,0,0
28.652088,-10,-9,10,3,2,-1,-2,-2,0
28.652093,4,-5,-3,-2,-1,-4,-1,0,0
28.663856,0,-10,6,0,-2,-1,0,1,0
28.663879,3,24,-6,-3,-2,0,0,0,0
28.670800,-11,-14,-8,-3,-2,1,-1,-3,0
28.670820,1,2,1,-1,1,-1,-1,0,0
28.687186,8,4,2,0,-3,-1,-1,-3,0
28.687204,-15,5,9,0,-1,0,-2,-1,0
28.688967,1,-6,-5,-3,-2,-1,0,-1,0
28.688972,-1,0,-6,-1,-3,-1,1,-2,0
28.710693,1,16,3,-4,1,-1,-2,0,0
28.710803,5,-16,-3,6,0,0,-1,-2,0
28.712808,-4,12,-1,0,0,-1,-1,-2,0
28.712814,4,-19,8,1,0,0,0,-2,0
28.723912,13,5,-9,-6,-3,-2,-1,-1,0
28.723935,-4,-7,-1,0,0,0,-1,-1,0
28.730653,2,-6,0,-3,-2,-2,-1,-1,0
28.730673,-4,1,-7,2,-1,0,0,-1,0
28.747177,-2,16,10,1,-1,0,-1,0,0
28.747190,0,-8,-4,1,0,-1,-1,0,0
28.748606,7,-14,-8,-3,-1,-2,0,-1,0
28.748621,1,-2,-6,0,-2,-2,0,0,0
28.769720,-7,-5,1,-1,-2,-1,1,-1,0
28.769745,-8,6,-4,-11,-5,-2,-1,-1,0
28.771904,3,-32,1,7,-1,-2,-1,1,0
28.771911,4,-7,0,1,1,-1,-2,-1,0
28.784036,2,20,-5,-2,-2,-1,-1,-1,0
28.784060,1,-6,-3,-2,-1,-1,-1,0,0
28.790734,-7,1,-3,-4,-1,-1,-2,-2,0
28.790757,-5,4,5,-2,-3,-1,-1,-1,0
28.809645,6,4,4,4,2,-2,0,0,0
28.809651,10,4,3,-1,0,0,0,-1,0
28.809653,-9,0,-9,-1,-3,-3,-1,-2,0
28.809655,3,3,0,-2,-1,0,-1,1,0
28.829791,-34,-43,-8,-3,-2,-1,-1,-2,0
28.830952,14,1,0,3,-1,-2,-2,-1,0
28.830964,0,6,-1,-4,-2,-2,0,-1,0
28.830968,-1,4,1,-8,-1,-1,-2,-1,0
28.844271,1,3,1,10,0,-2,-3,-3,0
28.844302,-7,-8,-6,-3,-2,-1,0,-2,0
28.850827,1,2,2,-1,0,-2,-1,1,0
28.850845,-6,7,0,1,-1,-1,0,-2,0
28.867042,8,19,5,-5,-1,0,-1,0,0
28.867062,-9,-20,2,2,-1,-2,-1,-3,0
28.869801,8,24,3,-2,-1,0,-1,0,0
28.869810,-15,-22,-9,-4,-3,-2,0,-2,0
28.889596,9,-3,-5,-1,-2,0,-1,0,0
28.889616,-6,9,10,4,0,0,-1,-1,0
28.891399,4,3,4,-1,0,-1,0,0,0
28.891417,5,3,1,0,-1,-1,-2,-1,0
28.903902,-3,-2,-5,-5,-2,0,-1,0,0
28.903919,-3,5,-2,-6,-2,-2,0,0,0
28.911294,0,16,-4,-1,-2,0,-1,0,0
28.911333,-2,-28,6,5,0,-1,0,1,0
28.927176,2,2,-3,-4,0,-2,-5,-3,0
28.927199,3,-7,-4,2,-1,-1,-1,-2,0
28.929196,-6,11,-3,-5,-2,-1,-1,-1,0
28.929204,-2,3,-5,-2,-2,-1,0,-1,0
28.950815,-4,3,3,2,1,-1,0,0,0
28.950821,7,-3,-1,-1,0,-2,-3,-1,0
28.951154,-18,-19,-2,-1,-2,-1,0,-2,0
28.951160,-1,46,-1,-1,-2,-1,-3,-1,0
28.965877,-5,-35,-3,-3,-2,-1,0,-1,0
28.965883,4,17,8,3,-1,-1,-1,0,0
28.972593,7,-18,0,1,-1,-1,-2,-1,0
28.972598,3,24,-6,-6,-1,-2,-1,-2,0
28.987037,-3,12,5,4,-3,-2,-1,0,0
28.987211,1,-1,-4,-3,0,-1,-1,-1,0
28.988668,-14,-14,-8,-4,-2,-1,-3,-2,0
28.988724,1,-20,-5,0,0,0,0,0,0
29.010231,5,-7,-3,-1,-1,-2,0,-1,0
29.010269,-3,27,-2,-3,-2,-1,-1,0,0
29.012558,5,-7,-5,-3,1,0,0,0,0
29.012564,-8,-8,5,2,-1,-1,-2,-2,0
29.023554,7,6,-3,-2,-1,-1,0,0,0
29.023575,-3,-9,-3,-3,-3,-1,0,-1,0
29.034929,9,20,5,-3,-1,0,-2,-2,0
29.034938,-1,-13,-4,-1,0,-2,-1,1,0
29.047231,3,3,6,2,-1,0,0,-2,0
29.047244,-7,-20,-9,-10,-4,-2,-2,-1,0
29.048639,-1,30,12,3,-1,-1,-1,-2,0
29.048670,7,-11,0,8,2,-1,-2,0,0
29.069553,-5,9,-3,-2,-1,0,-1,-2,0
29.069576,-6,-4,5,0,0,-1,0,-2,0
29.071853,0,-11,-9,-5,-2,-3,0,-1,0
29.071860,-2,-1,-1,-1,1,-1,0,0,0
29.083424,-2,23,2,-2,0,1,-2,1,0
29.083442,0,4,5,0,0,-1,-2,-2,0
29.092710,-1,-11,-9,-3,-1,-2,-1,-2,0
29.092715,-3,7,3,-2,-4,-2,-2,-1,0
29.107002,12,-22,-10,-1,-1,-2,-1,-1,0
29.107009,5,23,14,-2,-1,0,-2,0,0
29.108483,0,4,0,4,-1,-1,-2,0,0
29.108489,-10,-9,1,-7,-3,1,-1,-3,0
29.130271,-2,-10,4,3,0,-1,-1,0,0
29.130308,2,9,-11,2,0,-1,0,0,0
29.131994,3,-14,8,-4,-2,-2,-2,0,0
29.131998,4,5,2,-1,-1,-1,-1,1,0
29.143362,-13,-1,-2,-3,-1,-2,-3,-1,0
29.145094,0,-28,-2,-1,0,-1,-1,0,0
29.152852,5,8,-3,5,1,-1,-2,0,0
29.152858,0,-3,-3,-5,-2,0,-1,-1,0
29.169174,-3,-5,8,0,-1,1,0,-1,0
29.169181,-6,-8,-13,-1,-1,0,-1,2,0
29.169185,1,3,7,0,0,-1,-1,-1,0
29.169188,4,-2,0,1,-2,-2,1,-1,0
29.190073,-1,0,-5,-4,-4,-1,0,-2,0
29.190101,-5,13,1,0,0,-1,-1,0,0
29.191919,4,0,-5,-7,-1,0,0,0,0
29.191927,0,3,6,0,-3,-1,-1,-2,0
29.203170,-2,-2,2,2,-1,-1,0,0,0
29.203187,-8,8,-6,-2,-1,-1,-1,-4,0
29.214838,0,-29,-2,2,0,-3,-1,-1,0
29.214844,-13,-18,-2,0,1,-1,-1,-1,0
29.227592,0,0,-2,-3,0,-1,-1,-1,0
29.227620,-9,-2,2,0,1,1,-1,-2,0
29.230701,-4,-3,-4,-3,-3,-3,-2,-1,0
29.230706,8,20,-3,-3,-2,-1,-1,-3,0
29.250007,0,-12,-2,-2,-3,-2,0,1,0
29.250042,3,-8,-2,2,-1,0,-1,1,0
29.252338,-1,0,1,-1,-3,-1,1,-1,0
29.252343,-11,-2,-11,-2,-1,-1,-2,-1,0
29.263243,2,12,8,0,0,-1,-1,0,0
29.263257,10,12,-4,-3,-2,-2,-2,-1,0
29.272160,-6,-23,4,0,0,0,-2,-2,0
29.272190,6,5,-4,-1,-1,-1,0,1,0
29.294516,-6,4,-12,2,-3,-1,0,-2,0
29.294529,-3,-4,18,2,1,0,1,0,0
29.295981,6,24,-3,-2,-1,0,-1,-1,0
29.295994,-9,-1,2,-1,0,0,-2,1,0
29.309442,0,-2,-5,-5,-1,0,-2,-1,0
29.309449,0,-16,0,-3,-1,-1,0,-1,0
29.311006,0,6,1,3,0,0,-2,0,0
29.311018,10,15,2,-2,0,-1,-1,-2,0
29.323241,-15,-21,-7,-2,-2,0,0,0,0
29.323255,3,5,-7,-3,-3,-3,-2,0,0
29.334630,-4,-7,-3,-3,-1,0,-1,-1,0
29.334637,0,-2,3,1,0,-3,-1,-1,0
29.347727,1,4,-2,0,-2,-3,-2,-4,0
29.347757,2,-4,-2,1,2,-2,0,1,0
29.350182,0,35,1,-3,1,-1,0,-1,0
29.350187,-3,-33,0,4,-2,-1,-1,-1,0
29.371059,7,11,0,-5,-1,0,1,-1,0
29.371065,0,-9,-3,0,-1,-1,-3,-2,0
29.371107,0,0,-2,0,-1,-1,0,-2,0
29.371176,-3,7,1,-5,1,-2,-1,-1,0
29.392414,-2,0,1,-8,-3,-2,-2,0,0
29.392442,0,-39,-3,8,-1,-2,0,-1,0
29.394713,-8,5,6,2,0,0,0,0,0
29.394716,7,-10,-2,-4,-2,0,-1,0,0
29.407174,-6,5,-3,6,1,-2,-2,0,0
29.407198,-10,1,-2,-5,-1,1,0,-2,0
29.409558,5,-21,3,-3,-3,-1,0,0,0
29.409565,-8,-18,-6,-1,-2,-3,-1,-1,0
29.429842,9,21,0,-5,-1,-2,-1,-1,0
29.429864,0,-2,-3,2,0,-1,-1,-1,0
29.432767,-9,-14,-4,2,-1,0,1,-1,0
29.432773,5,13,-2,-2,0,-1,0,1,0
29.452206,-1,-14,8,0,0,0,-1,-2,0
29.452257,0,2,-6,-4,-2,0,-1,-1,0
29.453634,4,-8,-2,0,-2,0,-3,0,0
29.453653,-2,25,3,0,0,1,0,1,0
29.467084,4,-33,-3,1,0,-2,-2,-3,0
29.467102,-2,-3,1,-5,-2,0,0,-1,0
29.468710,-10,-9,-7,6,-1,-1,0,-1,0
29.468941,2,0,0,-1,-2,-2,0,-2,0
29.489966,-4,9,-3,-2,-2,-1,-3,0,0
29.489988,-6,-11,-3,-1,-1,-1,-1,-3,0
29.492047,3,2,-1,-11,-1,-3,-2,1,0
29.492058,-6,1,-3,5,0,-1,-2,-4,0
29.519559,1,-15,0,1,0,0,-1,-1,0
29.519581,-3,-3,0,-2,-1,0,-2,-2,0
29.521134,1,7,-1,-1,1,0,0,0,0
29.521148,-6,9,-1,-2,0,0,-1,-2,0
29.526452,-10,-14,2,-2,-1,-1,0,-1,0
29.526469,-4,7,2,-2,-2,-1,-1,-2,0
29.533227,4,4,-5,-3,-4,-1,-1,-2,0
29.533252,11,-13,-11,-4,-2,0,-1,0,0
29.549621,-1,18,9,0,1,0,0,-2,0
29.549647,1,8,5,0,-2,-1,-1,1,0
29.551628,3,-5,0,2,-4,-2,0,-1,0
29.551637,1,23,2,0,-2,-3,-2,-3,0
29.573766,-4,-4,-12,0,-1,1,1,0,0
29.573772,-2,-3,-3,-4,-1,-1,-1,0,0
29.573774,2,-3,1,-1,0,-1,-2,0,0
29.573776,3,3,-2,1,-1,0,-1,0,0
29.586534,-1,-1,-4,-1,0,-2,-2,-2,0
29.586563,4,-4,-11,-6,-4,-1,-3,-1,0
29.593607,-3,5,-4,-1,-1,-1,0,-3,0
29.593628,-3,-7,6,0,0,0,0,0,0
29.609892,6,7,4,0,-1,-1,-1,-1,0
29.609908,-2,3,0,-1,-1,-2,-2,-2,0
29.611178,-4,16,-7,-1,-3,-2,-1,-2,0
29.611223,2,-23,-1,-1,-1,-2,-2,-1,0
29.632417,1,0,5,1,-1,0,-1,1,0
29.632446,6,10,-2,0,1,0,-2,0,0
29.634738,-2,-1,1,0,1,0,-1,-3,0
29.634747,-11,-10,-4,-5,-2,0,0,0,0
29.646819,-2,12,-1,-3,-2,-1,-1,-1,0
29.649574,6,6,4,5,-2,-2,-1,0,0
29.653350,-5,1,10,1,0,-1,0,-2,0
29.653378,-1,-14,-1,0,0,-1,-2,0,0
29.669509,1,-9,-6,-5,-1,-1,-1,0,0
29.669526,-7,24,-9,-6,-2,-1,0,-1,0
29.671149,1,-53,3,1,-2,-1,-1,1,0
29.671167,1,3,-7,-3,-3,-2,-1,-1,0
29.692415,1,8,3,1,2,0,0,1,0
29.692443,2,6,8,2,1,1,-2,-1,0
29.694509,-12,2,-4,-2,-1,-1,-1,0,0
29.694512,2,-1,-3,-4,-3,-3,0,-3,0
29.706518,-3,-1,-2,-1,-3,-2,-1,-2,0
29.706542,0,-16,-1,0,0,-1,-2,1,0
29.713478,-7,20,-4,1,0,-1,-1,-1,0
29.713499,-4,-57,-8,-9,-3,-1,-2,-2,0
29.729486,-1,15,3,10,-3,-1,-1,-1,0
29.729499,1,-4,1,2,-2,-1,-1,-1,0
29.730919,3,6,-1,1,0,0,0,0,0
29.730931,0,25,4,0,3,1,-1,-2,0
29.752262,-1,-20,-5,-4,-2,-1,0,-2,0
29.752284,2,-12,-3,-3,-1,0,0,-1,0
29.753583,-3,-1,-7,-1,-1,-2,-2,-2,0
29.753598,0,-1,11,2,-2,0,-1,0,0
29.766493,-9,23,1,-1,0,0,0,0,0
29.766512,-3,-14,-4,-2,-3,-1,0,0,0
29.775968,5,19,0,-3,-1,-1,-4,-2,0
29.775974,-4,2,-7,1,-1,0,1,-2,0
29.791470,7,10,-3,-5,-2,-1,-2,-1,0
29.791476,4,-4,2,0,0,-1,1,0,0
29.791478,-7,30,-1,1,0,-2,-1,0,0
29.791480,2,-19,-2,2,-2,-2,-3,-2,0
29.812270,-4,-9,-3,-3,0,-2,-1,0,0
29.812291,-3,-1,2,-3,0,-1,-1,-2,0
29.814512,3,-11,-3,-6,-5,-2,1,0,0
29.814517,-3,24,2,0,1,-2,-1,-2,0
29.826293,2,-14,1,0,0,-1,0,0,0
29.826332,-1,-7,0,0,-2,-1,-1,-2,0
29.833586,-5,-17,2,2,2,1,-1,-2,0
29.835960,10,9,-2,-3,-2,-1,-1,0,0
29.849169,-3,-11,-2,1,-2,-2,-1,-1,0
29.849193,0,10,-6,-2,-1,-2,-1,0,0
29.851255,5,-30,10,-4,-3,-1,-1,-2,0
29.851260,-14,-10,-6,2,1,0,-2,-1,0
29.872173,-1,-2,2,-4,-1,1,-1,0,0
29.872202,-2,15,-2,6,-1,-2,-1,0,0
29.872348,0,-17,-11,0,-1,1,1,-1,0
29.872389,1,8,0,-1,-2,-2,-1,0,0
29.893934,-7,-14,-7,-2,0,-1,-1,-1,0
29.893957,-1,9,7,-1,-1,-1,0,-2,0
