timestamp,emg1,emg2,emg3,emg4,emg5,emg6,emg7,emg8,label
10.009738,94,8,2,14,-72,2,-4,-2,2.416091825
10.009811,-41,4,-9,-28,-68,-62,-25,32,2.416091825
10.010595,8,1,6,25,32,11,-19,-3,2.416091825
10.010629,-13,-3,4,-6,17,39,39,11,2.416091825
10.032275,41,-14,-3,8,35,-72,-13,-70,2.416091825
10.032293,-50,-23,-1,-8,-30,30,16,8,2.416091825
10.034284,28,9,1,19,1,-53,21,55,2.416091825
10.034297,63,-37,-8,-5,19,67,-31,35,2.416091825
10.046732,-116,-4,5,-8,91,3,18,39,2.416091825
10.046757,-20,2,-3,7,-59,-54,8,10,2.416091825
10.048830,59,-5,-17,-31,21,107,37,-62,2.416091825
10.048842,-33,-4,6,21,9,-24,9,53,2.416091825
10.071079,0,0,-5,-12,42,62,-13,-19,2.416091825
10.071090,-16,2,5,-24,-128,-74,27,5,2.416091825
10.071093,14,14,-1,3,7,-66,-49,-36,2.416091825
10.071095,-24,-25,-6,-12,17,4,4,7,2.416091825
10.092847,1,24,7,19,-17,-37,-7,-20,2.416091825
10.092871,38,15,0,-8,40,35,12,-9,2.416091825
10.095155,-62,-41,0,-13,-40,18,-1,-7,2.416091825
10.095168,63,33,0,5,10,11,-1,-16,2.416091825
10.106559,-1,-9,-4,17,-106,-27,-6,78,2.416091825
10.106583,-8,-17,-1,19,117,11,-8,-38,2.416091825
10.114183,-11,-4,-2,-18,-96,-24,-4,-24,2.416091825
10.114208,8,2,4,5,44,59,18,5,2.416091825
10.129365,-65,-36,-2,-8,91,3,4,-8,2.416091825
10.129393,45,36,4,10,18,-18,16,-30,2.416091825
10.131170,-24,-21,-5,10,24,19,54,34,2.416091825
10.131181,-128,-17,-6,-18,-82,-41,-10,-15,2.416091825
10.152433,65,-8,1,-8,-40,-8,-20,-37,2.416091825
10.152451,7,-2,-1,-19,-97,2,-3,26,2.416091825
10.153104,-18,11,6,31,105,-15,14,35,2.416091825
10.153120,47,4,1,-9,-44,-37,-14,23,2.416091825
10.166222,-53,45,4,13,63,-33,13,16,2.416091825
10.166241,-23,-55,-5,-16,-8,30,-3,20,2.416091825
10.174376,30,0,0,14,-41,-29,-16,-53,2.416091825
10.174395,5,9,-5,-1,65,11,-12,12,2.416091825
10.190222,46,11,-1,-13,-37,-34,-5,4,2.416091825
10.190253,11,18,4,8,-9,59,-3,-37,2.416091825
10.192352,-6,-3,1,16,67,-26,-27,1,2.416091825
10.192358,-34,-7,-2,-14,11,30,25,-44,2.416091825
10.212453,-2,9,1,33,-66,23,25,-4,2.416091825
10.212477,-101,10,-8,-59,51,-23,-54,-1,2.416091825
10.213279,42,-27,-11,-13,13,3,-21,23,2.416091825
10.213301,66,5,6,21,77,-33,-19,26,2.416091825
10.226215,11,4,1,-17,-19,-27,-14,0,2.416091825
10.226226,42,19,4,18,-128,42,25,-15,2.416091825
10.234213,-73,-29,-4,-16,-12,-13,-18,6,2.430202277
10.234231,-11,41,-4,-8,7,19,9,20,2.430202277
10.249943,7,-14,3,9,-7,18,3,-10,2.430202277
10.249967,68,-19,-2,10,36,-23,2,6,2.430202277
10.251649,-57,30,0,-40,-34,-26,2,-43,2.430202277
10.251664,18,6,3,34,-50,-91,2,-31,2.430202277
10.273067,-61,4,0,42,-37,62,-4,26,2.430202277
10.273078,60,-10,-13,-57,122,109,23,-47,2.430202277
10.273080,22,9,2,1,-72,47,5,5,2.430202277
10.273083,-10,6,-6,-13,82,-18,-20,33,2.430202277
10.295384,34,9,2,-6,-14,-64,-2,-23,2.430202277
10.295410,-54,7,10,49,-20,-21,-2,43,2.430202277
10.297760,-1,-4,-8,-52,8,6,-1,-24,2.430202277
10.297772,46,-11,-8,-11,-38,19,22,0,2.430202277
10.310751,-51,-42,3,24,127,-22,-20,-12,2.430202277
10.310772,87,-8,-9,-2,-81,-41,2,7,2.430202277
10.313079,4,2,7,13,17,-36,-8,49,2.430202277
10.313091,-55,2,2,-1,-41,49,7,19,2.430202277
10.332537,27,-8,-5,-31,-69,-12,19,-15,2.430202277
10.332569,-37,3,7,16,-28,-10,-8,37,2.430202277
10.334865,-2,4,-2,24,86,57,27,-18,2.430202277
10.334874,-14,37,-1,-12,61,41,-10,-41,2.430202277
10.346149,21,-12,-2,4,-93,28,7,52,2.430202277
10.346177,-51,12,6,10,52,19,-4,22,2.430202277
10.354372,28,9,-7,-8,-86,-24,-27,-39,2.430202277
10.354402,29,-22,11,22,-24,-107,38,34,2.430202277
10.369912,-58,10,-13,-57,48,98,-17,-79,2.430202277
10.369930,2,-15,-9,0,-2,-67,6,8,2.430202277
10.370703,54,-17,-7,-3,-70,-84,-26,22,2.430202277
10.370717,-37,-27,-3,-24,-48,-25,-10,-24,2.430202277
10.392735,-32,14,13,31,59,-18,10,42,2.430202277
10.392753,-29,-4,1,-2,-18,9,-9,20,2.430202277
10.394536,8,26,4,5,6,24,-2,-56,2.430202277
10.394543,-57,-53,-9,-19,-49,-1,-25,-3,2.430202277
10.406476,0,26,0,1,17,-28,-8,-54,2.430202277
10.406508,-24,5,-6,-19,-28,14,-3,-8,2.430202277
10.414249,-10,2,12,40,28,-5,25,44,2.430202277
10.414266,13,31,-5,-15,-21,0,-26,11,2.430202277
10.430993,5,8,5,-3,42,57,18,21,2.430202277
10.431005,-12,-28,2,23,-29,-48,-9,-73,2.430202277
10.431008,85,29,-8,-20,16,-83,-3,40,2.430202277
10.431010,-21,-17,-16,-10,-63,106,-44,-55,2.430202277
10.452365,64,-45,-11,-8,108,38,7,26,2.430202277
10.452395,-11,58,7,-7,-25,-28,-6,30,2.430202277
10.454376,-87,7,8,6,-25,4,-6,-29,2.430202277
10.454389,84,-9,5,4,-33,-37,4,18,2.430202277
10.476840,47,-4,-1,3,-62,-53,-7,71,2.430202277
10.476848,-33,-3,-5,-5,20,33,11,4,2.430202277
10.476851,-13,-11,-1,4,1,0,6,-5,2.430202277
10.476853,-22,48,5,-2,11,-4,18,27,2.430202277
10.488839,-3,-18,1,-7,-57,-47,-22,-45,2.433478644
10.488869,9,4,-6,4,71,0,12,2,2.433478644
10.499414,-10,-27,0,1,76,45,3,46,2.433478644
10.499427,-19,3,-5,-9,74,-29,1,-37,2.433478644
10.512794,-26,51,6,-11,-59,-28,7,45,2.433478644
10.512899,-57,-61,-18,-33,127,23,-24,-58,2.433478644
10.515396,-18,3,6,40,-42,-7,-27,45,2.433478644
10.515409,72,-15,-7,-3,-43,59,14,-19,2.433478644
10.535265,-27,-29,-8,-4,-14,-5,-1,-6,2.433478644
10.535296,1,48,6,-26,-35,9,8,-36,2.433478644
10.537866,34,-20,0,-3,48,22,21,78,2.433478644
10.537872,56,-30,4,12,5,-36,-7,-15,2.433478644
10.548500,-10,14,-8,-15,-19,-41,-18,-11,2.433478644
10.548525,10,-1,3,23,-54,20,7,-21,2.433478644
10.558291,13,4,0,3,-61,16,-9,-46,2.433478644
10.558304,-54,39,5,1,78,16,21,1,2.433478644
10.572399,2,-36,-8,-45,-85,-61,-7,-1,2.433478644
10.572407,3,-45,7,31,53,-16,27,19,2.433478644
10.573748,-23,37,-4,34,59,-31,-29,-20,2.433478644
10.573755,-32,-6,3,2,-59,25,-8,-4,2.433478644
10.595005,-9,10,4,20,-28,-17,18,-26,2.433478644
10.595031,23,-1,-2,-36,-92,26,4,-41,2.433478644
10.597589,-53,9,4,-25,-50,-34,-28,26,2.433478644
10.597601,68,-33,-13,-2,-8,-2,-5,-20,2.433478644
10.608767,-28,18,9,19,10,-26,-5,74,2.433478644
10.608791,96,-17,-11,-3,-51,-59,-23,16,2.433478644
10.617381,-7,-18,-11,1,37,88,21,-28,2.433478644
10.617398,-40,-7,2,16,66,7,4,-22,2.433478644
10.632633,8,21,6,-3,33,-47,-5,11,2.433478644
10.632641,-24,19,7,-26,3,-20,15,17,2.433478644
10.633873,-32,-25,2,52,25,-47,10,-21,2.433478644
10.633907,-14,-14,-9,-45,-78,94,3,12,2.433478644
10.654835,-5,-1,-3,28,-20,-20,-17,-56,2.433478644
10.654851,-33,7,0,12,-26,-43,16,5,2.433478644
10.656877,27,-20,-7,-10,33,88,24,-11,2.433478644
10.656883,-84,13,8,11,-3,-127,-32,2,2.433478644
10.669148,89,-18,-13,-23,-23,127,30,0,2.433478644
10.669224,-23,8,-8,22,48,1,-26,-28,2.433478644
10.677496,57,30,5,-30,-69,-39,2,46,2.433478644
10.677518,-69,-17,14,53,-53,-89,24,8,2.433478644
10.693005,-29,-8,-14,-25,118,75,-6,32,2.433478644
10.693048,40,-4,-1,-36,-106,-13,0,4,2.433478644
10.696073,44,-14,0,27,-6,-3,-3,84,2.433478644
10.696087,-10,26,1,8,40,-5,-5,40,2.433478644
10.715082,-7,27,3,12,10,-26,2,-37,2.433478644
10.715107,-19,-10,-2,5,-115,-8,-11,21,2.433478644
10.716455,3,-6,-1,-31,-4,0,-14,-34,2.433478644
10.716474,-3,-13,1,2,99,11,14,-8,2.433478644
10.729367,13,4,-2,12,-29,8,-69,49,2.433478644
10.729387,-22,3,-8,-4,123,72,6,5,2.433478644
10.736210,-16,1,-6,-58,16,30,-1,-41,2.433478644
10.736238,-2,9,1,25,4,-13,16,10,2.433478644
10.753029,43,2,8,-3,-76,-16,33,-37,2.437606772
10.753061,-32,-1,-6,-36,-21,-18,-23,18,2.437606772
10.755707,-21,-11,0,57,16,-31,6,21,2.437606772
10.755717,-67,-13,-5,-11,-67,40,15,37,2.437606772
10.775074,-11,-39,-1,15,68,-18,-5,-3,2.437606772
10.775083,9,-28,-2,5,26,1,-31,0,2.437606772
10.776349,25,18,0,-11,-108,-52,11,-41,2.437606772
10.776369,-53,5,1,-13,60,-14,-6,14,2.437606772
10.789291,-33,17,3,16,59,24,32,-3,2.437606772
10.789331,-1,8,9,24,-7,81,22,20,2.437606772
10.796288,-49,-10,-11,-34,-67,-48,-48,-37,2.437606772
10.796313,53,-12,-12,-16,76,-52,16,55,2.437606772
10.812770,0,-29,-3,-24,-111,-32,-14,-16,2.437606772
10.812804,15,12,10,26,-6,-11,9,1,2.437606772
10.814624,-40,52,6,18,34,49,17,22,2.437606772
10.814634,27,0,3,-17,-84,54,14,53,2.437606772
10.834992,79,-25,-20,-16,27,-4,-46,-10,2.437606772
10.835026,-7,15,3,14,-10,-7,6,59,2.437606772
10.836376,80,-25,-6,-19,-73,-53,-10,-72,2.437606772
10.836383,-34,-8,-6,3,6,45,-16,-38,2.437606772
10.849868,-82,21,5,0,2,-17,2,-8,2.437606772
10.849882,62,8,-2,8,-78,20,16,-25,2.437606772
10.856129,-85,19,0,-3,-14,62,-12,-10,2.437606772
10.856147,46,-17,5,-2,-42,69,15,5,2.437606772
10.872841,23,-6,3,8,-99,-4,-33,9,2.437606772
10.872874,24,27,11,4,-68,-11,-7,-22,2.437606772
10.874408,48,-26,-26,-28,127,66,0,-17,2.437606772
10.874413,31,-3,-8,-4,-110,-26,-67,-38,2.437606772
10.897932,-11,16,4,8,18,-16,23,-11,2.437606772
10.897944,-47,3,-4,-9,39,11,-9,66,2.437606772
10.897947,-31,-23,8,-6,-42,-15,7,13,2.437606772
10.897950,23,16,0,2,0,-21,-5,27,2.437606772
10.908858,25,-10,1,4,33,-24,11,33,2.437606772
10.908886,-75,31,1,7,19,-9,-13,-81,2.437606772
10.917964,93,19,5,21,51,24,23,6,2.437606772
10.917972,45,-21,-15,-42,-40,1,-4,-50,2.437606772
10.932447,-50,9,4,16,-11,-7,10,-11,2.437606772
10.932469,15,-17,0,-7,-30,-19,12,20,2.437606772
10.934145,-46,41,18,5,28,2,-6,35,2.437606772
10.934167,18,-1,0,36,68,-43,74,1,2.437606772
10.955264,53,-4,-6,-6,63,17,-50,-10,2.437606772
10.955288,-3,-16,-3,6,-62,-81,-7,-6,2.437606772
10.957028,-26,-28,-14,-8,81,-7,-25,-62,2.437606772
10.957040,-53,15,2,-10,29,56,9,1,2.437606772
10.969217,-26,8,-5,-5,-10,-43,39,5,2.437606772
10.969249,29,-12,-1,-7,25,-38,28,-3,2.437606772
10.977650,-1,1,2,11,-95,7,1,-3,2.437606772
10.977656,39,1,3,9,14,-1,-7,-12,2.437606772
10.992428,30,-10,-7,-5,-21,5,8,-5,2.437606772
10.992470,-51,-14,-4,4,34,8,2,44,2.437606772
10.993863,7,0,9,-6,-38,-16,8,-43,2.437606772
10.993896,54,21,-4,14,78,3,-17,-18,2.437606772
11.014956,2,28,-4,-21,36,10,2,-23,2.421986578
11.015007,-2,-50,-5,4,100,-44,2,-6,2.421986578
11.016867,1,7,7,22,-11,-21,42,52,2.421986578
11.016874,-32,-4,3,-14,-39,-91,-65,60,2.421986578
11.028925,-61,3,-5,-62,-43,84,-26,-31,2.421986578
11.028944,54,-14,-13,12,62,-89,5,-16,2.421986578
11.038774,9,-18,-11,-29,-60,13,16,-3,2.421986578
11.038783,-22,-25,-1,3,-63,-43,-12,-20,2.421986578
11.053642,44,4,9,26,11,31,11,1,2.421986578
11.053658,-44,3,-6,-28,-66,29,-22,4,2.421986578
11.053883,21,-35,-10,-15,-36,-15,-29,17,2.421986578
11.053890,-95,13,3,7,-15,-22,4,-10,2.421986578
11.075182,22,-10,6,25,-15,2,7,-53,2.421986578
11.075207,-19,27,5,-16,-44,51,15,17,2.421986578
11.078090,77,2,-7,13,-1,-68,-17,14,2.421986578
11.078097,6,-6,2,-13,-66,58,19,-26,2.421986578
11.088980,-40,15,4,31,49,-93,-2,3,2.421986578
11.089012,-17,-5,0,28,81,-34,-40,25,2.421986578
11.098418,14,3,6,9,19,-44,19,23,2.421986578
11.098431,46,16,6,-33,-7,65,52,7,2.421986578
11.112936,-61,-51,-10,2,47,-65,-33,-1,2.421986578
11.112981,24,20,-7,-13,6,68,-1,-31,2.421986578
11.115239,-14,-30,1,12,61,-10,2,21,2.421986578
11.115252,-90,38,14,11,37,-19,7,-67,2.421986578
11.134937,46,-14,-7,-6,-125,-51,-26,15,2.421986578
11.134955,64,9,-5,-17,9,-2,-10,78,2.421986578
11.136520,-48,-12,2,-8,-14,4,16,19,2.421986578
11.136536,-33,-2,-7,-3,-23,9,-6,-32,2.421986578
11.148654,-37,-10,10,9,53,97,43,36,2.421986578
11.148672,87,4,-8,-11,-28,-38,-5,-10,2.421986578
11.159880,-47,-12,-1,7,-17,11,-12,-33,2.421986578
11.159890,6,-13,0,20,1,-17,-14,40,2.421986578
11.172730,13,23,3,-9,-21,-4,33,13,2.421986578
11.172762,-59,-19,4,27,93,10,-19,-19,2.421986578
11.175350,-22,17,2,-35,-114,60,10,-23,2.421986578
11.175360,26,-19,-14,-23,34,-78,19,25,2.421986578
11.195338,-46,61,5,14,-6,-48,-30,6,2.421986578
11.195370,17,-15,4,-8,-51,31,44,-69,2.421986578
11.196852,-8,-5,-7,-12,49,-56,-68,8,2.421986578
11.196872,1,4,-3,21,-4,6,13,6,2.421986578
11.208695,-23,-3,2,-34,-48,-8,7,29,2.421986578
11.208730,6,-7,5,44,-55,-6,21,0,2.421986578
11.218071,4,12,-1,12,95,-22,-11,-9,2.421986578
11.218081,-20,-25,-13,-29,-67,102,-14,-12,2.421986578
11.233275,-17,29,7,25,-18,-56,10,-4,2.421986578
11.233302,62,-28,-4,-13,29,35,1,-2,2.421986578
11.234596,-43,-26,-8,5,60,9,10,-53,2.421986578
11.234611,77,9,0,3,-4,-17,11,-3,2.421986578
11.254975,-10,1,1,-15,-62,14,14,3,2.421986578
11.254998,-47,30,3,-6,-61,29,1,-3,2.421986578
11.256514,-5,14,2,8,-51,-6,-11,-17,2.428809708
11.256534,-15,-11,-4,9,47,-65,-25,-27,2.428809708
11.268732,12,-15,-5,-21,0,81,31,-34,2.428809708
11.268756,-81,48,-6,8,74,-82,-16,-5,2.428809708
11.278569,68,-13,-2,-24,-89,56,-6,19,2.428809708
11.278582,-65,32,3,21,-7,-3,4,18,2.428809708
11.292435,29,-46,-2,13,46,8,14,39,2.428809708
11.292454,-94,10,9,8,-8,-2,10,-21,2.428809708
11.293921,10,21,-2,-23,-73,-34,-10,24,2.428809708
11.294000,23,-52,-9,12,41,27,-5,39,2.428809708
11.315342,36,-9,-5,1,9,-19,1,-3,2.428809708
11.315362,-68,-8,0,-26,-62,-6,-3,2,2.428809708
11.316519,-10,34,11,9,-43,-1,21,64,2.428809708
11.316550,86,-1,8,28,106,4,0,17,2.428809708
11.329043,-14,-1,-5,4,40,-22,-26,-17,2.428809708
11.329074,21,-11,-2,-27,-18,18,-11,-7,2.428809708
11.338401,-64,-7,15,29,-24,-52,-17,-26,2.428809708
11.338411,52,3,-13,-9,50,86,39,-44,2.428809708
11.353077,27,-23,0,-22,24,-36,4,20,2.428809708
11.353112,-31,-5,-5,11,-3,77,-23,-6,2.428809708
11.355437,45,-4,-11,-46,-1,-30,21,-15,2.428809708
11.355445,-43,8,3,-8,-74,-108,-36,2,2.428809708
11.375072,-30,30,1,39,96,36,-4,-10,2.428809708
11.375095,37,-28,-3,-10,36,-38,4,24,2.428809708
11.377636,-3,-21,-9,-20,99,39,11,36,2.428809708
11.377648,-6,-46,-3,-16,-31,-12,-31,-35,2.428809708
11.397487,-29,-2,-5,-11,-101,12,10,8,2.428809708
11.397505,40,12,7,11,47,-3,16,25,2.428809708
11.398877,-27,8,0,27,56,-4,-1,-52,2.428809708
11.398894,6,23,6,-2,-55,3,-8,30,2.428809708
11.412536,24,-1,-11,-6,9,-19,-26,-20,2.428809708
11.412565,-14,4,-3,-28,-50,10,13,1,2.428809708
11.414110,-5,-11,0,38,75,32,12,-14,2.428809708
11.414203,1,12,8,-7,-17,-31,-32,34,2.428809708
11.435215,-8,1,-5,2,-88,14,-9,6,2.428809708
11.435239,36,10,-2,-37,39,23,-35,-9,2.428809708
11.437773,-88,-37,-5,-35,27,12,18,-29,2.428809708
11.437781,64,-11,-8,11,14,1,-21,-19,2.428809708
11.457891,24,5,7,15,37,-3,20,-9,2.428809708
11.457898,-60,-4,2,16,22,-26,-20,3,2.428809708
11.458885,59,0,-4,-5,-50,15,-9,5,2.428809708
11.458892,-27,69,15,-2,105,2,7,-37,2.428809708
11.473893,-20,-44,-4,-1,-66,69,-24,-81,2.428809708
11.473900,16,-6,-2,19,31,-125,6,-32,2.428809708
11.473903,-8,-34,1,8,-16,-6,-22,8,2.428809708
11.473906,0,15,7,37,32,4,29,19,2.428809708
11.494946,5,-2,-10,-79,75,65,58,-20,2.428809708
11.494965,-60,-25,1,14,-29,16,-12,10,2.428809708
11.496938,56,47,-3,-15,7,20,5,25,2.428809708
11.496951,20,-25,-11,4,-2,-22,6,-20,2.428809708
11.517709,-12,-8,1,15,22,-17,-16,12,2.434758542
11.517773,23,11,1,3,-6,8,11,6,2.434758542
11.520233,-76,29,7,6,13,-19,-3,16,2.434758542
11.520243,66,-56,-9,-24,-97,3,-17,-8,2.434758542
11.531880,30,8,-4,16,86,-36,-12,19,2.434758542
11.531909,-7,-1,-3,-5,-127,2,13,-50,2.434758542
11.538816,4,5,1,25,35,-90,-29,-1,2.434758542
11.538840,-31,19,6,-18,62,77,12,17,2.434758542
11.555196,-24,-7,14,-12,-128,-9,22,19,2.434758542
11.555311,99,-5,-14,18,60,-62,-38,-66,2.434758542
11.557307,-5,7,-1,38,89,24,18,16,2.434758542
11.557313,-71,6,4,-15,-76,1,33,3,2.434758542
11.577600,12,-15,-1,13,-71,-86,-26,26,2.434758542
11.577633,-58,69,4,-6,41,78,6,-31,2.434758542
11.580156,65,14,-7,-12,-48,-2,20,-4,2.434758542
11.580169,-4,-16,0,5,25,-7,-1,15,2.434758542
11.591972,6,15,-1,17,-24,-28,-14,-20,2.434758542
11.591996,-2,-5,-3,-18,-46,-8,-9,2,2.434758542
11.598805,-10,13,-3,-7,8,12,-10,-10,2.434758542
11.598837,31,-11,-3,-7,-94,-2,2,-11,2.434758542
11.614961,21,2,3,-3,73,15,1,-3,2.434758542
11.614971,4,12,-3,2,88,15,12,26,2.434758542
11.616505,74,-26,-1,1,18,-58,-32,-15,2.434758542
11.616580,-73,-21,-5,0,71,-8,-8,9,2.434758542
11.637596,-20,15,5,0,-59,77,36,19,2.434758542
11.637625,27,-31,3,-15,-61,-26,16,123,2.434758542
11.639273,-32,37,8,32,-17,39,31,36,2.434758542
11.639279,-86,-4,1,16,-17,-14,0,69,2.434758542
11.652167,9,-23,-10,-9,61,-25,-23,10,2.434758542
11.652185,79,-18,-1,-9,-65,20,-7,-38,2.434758542
11.658979,-90,-21,-4,-10,40,-6,-8,-15,2.434758542
11.659000,-6,14,0,-6,-36,9,11,30,2.434758542
11.677203,53,19,-9,13,34,15,-13,-44,2.434758542
11.677212,24,-48,4,-2,24,7,-14,95,2.434758542
11.677215,23,-13,-3,-8,-65,0,-16,-13,2.434758542
11.677217,-26,42,1,-29,-45,-44,-13,-1,2.434758542
11.697515,-8,-22,3,39,89,84,33,44,2.434758542
11.697534,7,-1,-10,21,-89,-70,-50,-54,2.434758542
11.699332,-32,9,5,-11,7,89,30,-6,2.434758542
11.699341,71,-14,-6,-5,62,-69,-21,-22,2.434758542
11.712298,47,3,-9,-32,-42,-7,-10,-33,2.434758542
11.712337,-20,-26,-1,7,65,66,22,-26,2.434758542
11.719087,3,3,-7,-22,-51,-24,-12,42,2.434758542
11.719114,30,6,3,16,0,11,6,-50,2.434758542
11.735193,-50,0,2,7,13,-61,-19,75,2.434758542
11.735225,33,19,-4,-7,35,4,0,-19,2.434758542
11.737658,-33,8,-1,-6,-57,-14,1,9,2.434758542
11.737667,-2,-16,2,-5,-13,7,-15,-68,2.434758542
11.757718,-2,63,-6,2,25,-17,-47,-27,2.434758542
11.757740,-70,-12,7,-3,-70,-10,29,27,2.434758542
11.758952,66,-4,-3,38,-58,-45,-15,-18,2.434758542
11.758975,-7,-11,-9,-35,-33,99,40,16,2.434758542
11.771759,-37,4,10,3,-57,-16,-14,-11,2.427899357
11.771777,17,2,-6,0,-68,-70,9,-18,2.427899357
11.779029,-39,13,5,1,22,38,5,-38,2.427899357
11.779061,54,3,-11,-22,82,8,-8,22,2.427899357
11.795303,-104,45,6,-10,-27,-1,-1,-20,2.427899357
11.795336,43,-65,-15,5,26,-7,5,-8,2.427899357
11.798439,15,-17,-4,-3,-70,-20,-24,-21,2.427899357
11.798452,21,14,3,14,-34,-43,-25,-12,2.427899357
11.817506,12,-3,7,-8,57,-36,39,81,2.427899357
11.817545,-91,18,8,8,19,19,-1,-56,2.427899357
11.818975,22,-1,-5,-24,17,-25,1,12,2.427899357
11.818989,-122,7,5,16,12,53,-9,0,2.427899357
11.831794,122,-29,-10,-27,-76,-50,-2,-46,2.427899357
11.831805,-1,3,-2,19,78,-50,-23,11,2.427899357
11.838815,10,-8,-9,41,103,85,6,-6,2.427899357
11.839963,-24,-7,8,2,-49,-88,18,22,2.427899357
11.855053,-36,28,4,18,87,105,20,8,2.427899357
11.856688,37,-7,-3,-19,-48,32,-3,11,2.427899357
11.856699,-21,6,-2,-20,-8,-60,7,32,2.427899357
11.856704,55,-21,-3,7,-36,-3,-5,-42,2.427899357
11.879324,11,-18,3,27,-96,-49,-1,16,2.427899357
11.879342,-32,19,3,-20,78,96,3,72,2.427899357
11.879346,-36,-16,0,-13,9,-2,-14,1,2.427899357
11.879349,8,32,-1,28,44,10,-12,13,2.427899357
11.892031,-5,-57,-3,-9,-5,-32,-14,10,2.427899357
11.892071,-18,10,1,1,38,-13,-2,-6,2.427899357
11.900819,57,11,9,-15,-126,-16,10,-24,2.427899357
11.900832,-101,5,8,27,56,-41,9,32,2.427899357
11.914972,51,32,-7,-11,-49,-8,7,-8,2.427899357
11.914989,-70,-15,10,2,-63,82,-4,62,2.427899357
11.916621,56,10,-6,-11,13,-59,20,32,2.427899357
11.916635,-11,-23,-4,5,-70,40,4,-27,2.427899357
11.937686,-18,-21,-19,-58,-39,-45,-24,-32,2.427899357
11.937716,-28,9,1,32,28,-25,3,-9,2.427899357
11.940525,-22,7,8,9,-27,-6,5,-1,2.427899357
11.940536,28,10,0,-17,35,18,-4,-2,2.427899357
11.951743,-49,-36,1,27,84,-63,-15,6,2.427899357
11.951775,82,9,-14,-43,45,71,12,-56,2.427899357
11.961807,-60,-32,0,-16,2,7,-23,24,2.427899357
11.961817,19,-21,-7,-1,-3,5,5,5,2.427899357
11.975183,-9,-2,3,7,50,62,1,35,2.427899357
11.975231,-35,10,2,2,-107,1,49,-2,2.427899357
11.976373,-106,-10,4,22,59,-60,-16,-35,2.427899357
11.976393,77,41,-8,-21,18,-12,-30,-14,2.427899357
11.998242,11,-42,-9,-25,-35,-31,-15,-86,2.427899357
11.998266,17,36,2,8,28,-37,26,50,2.427899357
12.000991,45,-16,-10,-19,17,44,-6,8,2.427899357
12.000998,-49,-1,6,-9,-64,-54,-20,17,2.427899357
12.011254,-22,32,7,32,109,58,4,-18,2.427899357
12.011306,97,44,12,36,-9,-70,-20,2,2.427899357
12.020656,14,-11,-24,-36,-30,74,41,-2,2.427899357
12.020663,11,-40,-11,-52,-84,38,-17,-35,2.427899357
12.035538,-7,1,2,40,12,-6,16,62,2.442821013
12.035546,-3,-8,6,-7,49,-40,16,-6,2.442821013
12.036516,-19,37,6,10,-82,39,-3,49,2.442821013
12.036523,21,-11,3,-4,17,-16,30,77,2.442821013
12.057709,23,-17,-8,-11,40,14,-4,-30,2.442821013
12.057729,-24,1,-7,-21,-47,-5,-17,-38,2.442821013
12.059742,-2,-21,0,-7,-60,-24,-15,-21,2.442821013
12.059748,-1,32,-3,0,16,25,9,-10,2.442821013
12.071477,16,2,7,33,1,39,-3,42,2.442821013
12.071505,4,-7,-6,-12,69,74,-33,-20,2.442821013
12.081444,89,1,1,11,22,-54,9,-28,2.442821013
12.081455,-70,-38,-9,-8,-24,9,-24,-44,2.442821013
12.095572,8,7,8,-4,-66,1,-1,-18,2.442821013
12.095613,15,-23,-2,-8,-19,-43,-3,-9,2.442821013
12.098356,-67,26,6,-11,28,19,-2,-8,2.442821013
12.098368,81,-16,-8,14,36,-58,-28,-23,2.442821013
12.117638,-15,24,-2,0,9,-17,-6,-8,2.442821013
12.117656,-7,-41,-3,14,-62,8,-9,-37,2.442821013
12.119023,-6,24,3,-25,-17,8,1,4,2.442821013
12.119046,-71,11,8,27,46,-47,0,-1,2.442821013
12.131304,-33,-16,-8,-38,-60,49,1,-6,2.442821013
12.131321,-18,41,1,7,2,-27,28,-41,2.442821013
12.142862,60,-18,4,29,58,20,-31,13,2.442821013
12.142876,17,-10,11,12,-54,85,31,6,2.442821013
12.155352,-28,-20,-17,-27,-47,-10,-22,-11,2.442821013
12.155368,-22,-8,-10,-38,-1,-4,5,4,2.442821013
12.158094,17,21,-9,7,-29,-18,-1,-17,2.442821013
12.158100,-1,-7,-3,4,41,-25,-20,81,2.442821013
12.177780,-9,8,11,8,-3,-11,52,22,2.442821013
12.177828,-47,19,3,9,-12,20,-14,-28,2.442821013
12.179099,66,-9,4,-3,31,-26,18,-26,2.442821013
12.179122,-36,-22,-16,15,46,37,-18,-29,2.442821013
12.192025,36,-5,-6,-22,-5,-47,-10,-60,2.442821013
12.192036,-4,-22,4,-28,-93,-30,-4,44,2.442821013
12.201913,-9,-33,1,71,97,21,-6,16,2.442821013
12.201927,13,55,1,-30,10,-42,9,-7,2.442821013
12.215015,-6,4,2,-31,-107,-1,11,3,2.442821013
12.215039,21,-20,-1,61,82,3,-35,-9,2.442821013
12.217513,-89,23,5,-19,54,10,6,-16,2.442821013
12.217519,118,-5,-3,1,-59,21,12,-26,2.442821013
12.238289,-28,-43,-5,1,-46,-7,-32,1,2.442821013
12.238296,20,-3,3,18,66,-32,10,40,2.442821013
12.238924,-20,8,-1,-15,-24,-16,-12,11,2.442821013
12.238955,-70,19,1,10,51,19,7,64,2.442821013
12.253350,75,27,5,0,-1,-28,18,41,2.442821013
12.253357,-33,3,4,-3,-9,-4,9,-21,2.442821013
12.267121,80,-44,-18,-1,-1,9,-33,14,2.442821013
12.267134,-73,-15,-1,-17,-3,-37,-20,-13,2.442821013
12.274971,-12,33,9,15,4,-68,15,51,2.442821013
12.274995,-69,19,6,23,20,75,-26,-20,2.442821013
12.276556,61,-3,-18,-57,75,64,57,1,2.442821013
12.276569,22,4,4,21,-29,-31,-11,-10,2.442821013
12.297636,-7,2,1,-2,34,32,5,17,2.459333532
12.297661,-13,7,3,3,-98,-79,10,14,2.459333532
12.299616,-33,-7,4,5,-64,-72,-8,-10,2.459333532
12.299627,18,8,-4,7,18,32,7,3,2.459333532
12.320416,-31,12,2,2,17,14,-3,-22,2.459333532
12.320447,33,-14,-11,-28,-4,-5,-3,-40,2.459333532
12.323287,-17,-2,11,19,-19,4,6,22,2.459333532
12.323294,34,3,6,-8,-7,3,6,87,2.459333532
12.335020,-48,-21,0,11,15,5,-15,-71,2.459333532
12.335038,69,-2,-15,-13,30,-1,8,-25,2.459333532
12.336556,-6,-19,-9,-50,53,66,-13,-5,2.459333532
12.336589,-28,-2,2,21,79,1,-40,-47,2.459333532
12.357807,63,10,2,-20,9,-9,53,21,2.459333532
12.357831,-47,-12,0,8,-44,10,-19,18,2.459333532
12.359207,-8,2,1,-18,-128,-47,-12,20,2.459333532
12.359216,62,-20,-7,-3,-23,-30,-5,-2,2.459333532
12.380064,2,6,-7,-6,-33,-28,-41,-39,2.459333532
12.380080,74,-31,-11,-20,92,5,36,-7,2.459333532
12.381680,-34,22,5,39,31,8,-19,-21,2.459333532
12.381692,-35,21,12,-3,-45,-6,22,-5,2.459333532
12.395060,20,-13,3,12,30,-17,-14,-13,2.459333532
12.395074,2,14,-3,-11,-20,-25,-3,-8,2.459333532
12.396694,-14,4,1,29,27,-6,6,-58,2.459333532
12.396713,46,-10,-4,-10,35,-7,26,41,2.459333532
12.417482,-29,-44,-5,13,23,9,-9,-15,2.459333532
12.417502,-8,10,5,-9,-91,16,8,-1,2.459333532
12.419060,-14,-17,-10,22,-91,53,-26,-58,2.459333532
12.419073,-114,5,6,-6,54,8,35,-7,2.459333532
12.441657,19,-5,-7,-13,-87,-36,-16,-3,2.459333532
12.441665,-46,-42,-15,-41,-45,-9,-12,3,2.459333532
12.441668,50,-10,-1,33,46,-109,-1,38,2.459333532
12.441671,-28,4,-3,-4,-44,57,-5,-21,2.459333532
12.456929,-18,15,8,12,46,36,-14,31,2.459333532
12.456939,-10,-19,6,3,-25,-7,24,106,2.459333532
12.456942,-55,28,4,2,60,-27,14,-5,2.459333532
12.456945,60,-13,-9,-8,-27,-19,-28,-67,2.459333532
12.477828,-23,-10,3,-3,54,10,-2,-37,2.459333532
12.477850,4,34,-1,-7,-51,15,-22,-3,2.459333532
12.479705,14,-52,8,8,12,-12,19,49,2.459333532
12.479722,-35,1,-1,26,-46,-60,-17,-30,2.459333532
12.502042,5,24,11,-6,89,-53,28,68,2.459333532
12.502051,88,16,-7,8,114,-12,-18,-9,2.459333532
12.502056,20,-24,-6,-12,2,73,57,-24,2.459333532
12.502061,-20,-9,-2,-9,-33,6,3,-9,2.459333532
12.514484,4,19,-1,-11,-51,-36,16,28,2.459333532
12.514535,-31,13,4,10,8,19,-29,-17,2.459333532
12.521573,-52,-5,0,-17,-92,-24,13,59,2.459333532
12.521600,41,11,-7,-12,67,-6,-2,-37,2.459333532
12.545656,22,-8,-9,7,-56,41,0,12,2.499118608
12.545701,-17,-7,1,-7,10,-2,12,-4,2.499118608
12.548307,23,24,3,-4,-25,-1,-12,-7,2.499118608
12.548321,14,6,7,-3,-17,3,13,2,2.499118608
12.560219,1,0,-1,12,-65,8,-12,46,2.499118608
12.560242,-90,10,2,33,84,-26,44,30,2.499118608
12.561574,28,6,-5,-6,100,60,-31,-7,2.499118608
12.561585,56,-26,-9,-28,-122,-83,-1,3,2.499118608
12.574658,-45,1,2,-36,81,127,40,-46,2.499118608
12.574683,71,-22,-10,12,59,-48,-38,-14,2.499118608
12.581144,-93,8,-10,-33,-65,-73,-32,-1,2.499118608
12.581163,-21,-1,-1,9,9,-21,1,9,2.499118608
12.597599,11,6,-1,1,-63,-36,-7,-26,2.499118608
12.597659,-19,22,8,0,-62,9,22,28,2.499118608
12.599120,-13,-5,3,2,13,9,3,-24,2.499118608
12.599136,41,-11,-8,-12,-22,2,-23,-16,2.499118608
12.620421,-35,6,-1,17,6,-35,-16,0,2.499118608
12.620448,-29,-15,1,-5,-2,28,4,-47,2.499118608
12.622617,7,3,1,23,-26,-21,17,26,2.499118608
12.622629,-72,0,5,-7,-27,-41,-15,16,2.499118608
12.634479,23,-36,-21,-10,68,80,2,33,2.499118608
12.634510,72,7,-1,13,44,-42,6,17,2.499118608
12.641576,-7,25,-1,-22,-128,-13,-30,-62,2.499118608
12.641709,1,8,-2,22,102,35,47,25,2.499118608
12.659125,-50,-1,3,-12,-41,12,1,11,2.499118608
12.659135,-29,0,-3,-17,-39,-28,-9,-53,2.499118608
12.659139,-41,24,3,-1,-41,26,5,28,2.499118608
12.659141,-12,19,5,9,50,38,-11,0,2.499118608
12.680361,49,-20,-10,5,-28,-111,-13,-26,2.499118608
12.680379,16,-22,-2,-13,-68,31,-10,10,2.499118608
12.682694,-60,15,1,-1,40,-12,4,7,2.499118608
12.682706,-13,-4,0,8,1,3,13,4,2.499118608
12.694450,7,20,0,15,-19,8,13,-38,2.499118608
12.694480,-9,3,2,-24,-78,-73,-24,-76,2.499118608
12.701173,33,-25,9,33,69,74,67,79,2.499118608
12.701190,-19,-24,-6,-16,-85,-4,10,7,2.499118608
12.718244,-1,9,-7,7,16,-59,-50,-18,2.499118608
12.718277,-4,34,11,5,-99,1,-3,47,2.499118608
12.721149,48,-2,-2,-48,14,-28,-42,-6,2.499118608
12.721161,61,18,2,26,-19,-11,47,1,2.499118608
12.740613,-38,-15,-7,-15,13,15,11,45,2.499118608
12.740638,20,18,1,7,-56,15,0,17,2.499118608
12.743796,-21,21,-4,-26,7,-44,-16,-40,2.499118608
12.743802,16,-31,-2,14,-12,-3,-17,-34,2.499118608
12.754658,70,7,2,2,6,5,-23,7,2.499118608
12.754759,-18,-9,-4,1,68,9,2,-48,2.499118608
12.761844,3,5,-1,7,-20,-38,6,9,2.499118608
12.761874,0,9,-4,-33,-32,44,-15,-8,2.499118608
12.777831,-47,-1,9,67,98,-38,7,-31,2.499118608
12.777863,-38,-44,-3,-53,11,63,32,20,2.499118608
12.780387,46,-20,-14,-1,8,-5,33,1,2.499118608
12.780409,-57,4,3,-10,-25,-24,3,5,2.499118608
12.800246,-22,2,-2,-13,-31,-11,-41,-12,2.456341089
12.800274,51,-33,-20,-12,70,40,-5,18,2.456341089
12.801711,0,25,1,4,10,-22,-15,-25,2.456341089
12.801725,-32,2,5,-5,5,4,-3,97,2.456341089
12.815436,-12,12,10,7,-21,-3,24,-23,2.456341089
12.815453,-94,25,10,27,7,-23,-10,42,2.456341089
12.823916,52,-35,-17,-12,-14,9,-5,51,2.456341089
12.823923,42,-8,-5,-3,21,8,-9,3,2.456341089
12.837699,23,5,7,-2,-34,-2,5,72,2.456341089
12.838487,-13,-3,-9,-2,-4,22,-50,-16,2.456341089
12.839058,-13,-13,12,32,13,39,42,14,2.456341089
12.839127,-79,25,-2,-8,6,-61,-8,-42,2.456341089
12.860672,97,-38,-14,3,-1,-9,15,-26,2.456341089
12.860680,-9,-9,0,-4,44,68,19,-25,2.456341089
12.861567,-61,30,-1,-49,-10,-119,-53,-8,2.456341089
12.861583,12,-15,-9,53,38,101,18,-32,2.456341089
12.874168,-33,17,8,-14,-91,-21,3,-29,2.456341089
12.874200,3,16,4,0,-62,6,10,10,2.456341089
12.882785,34,4,3,28,85,-12,-14,-30,2.456341089
12.882805,57,-54,-9,-30,-14,-27,2,15,2.456341089
12.897768,39,-20,-10,-8,-33,27,-17,-74,2.456341089
12.897793,-31,27,9,18,-30,-42,27,23,2.456341089
12.900014,-9,-43,-6,18,18,53,-14,20,2.456341089
12.900029,18,16,-5,-26,-63,22,-12,-76,2.456341089
12.921159,-31,-2,4,-11,-58,-64,-4,14,2.456341089
12.921176,75,14,2,4,18,-92,4,88,2.456341089
12.921652,-52,4,2,-9,-27,-30,-9,-70,2.456341089
12.921659,-11,5,4,12,85,19,-22,0,2.456341089
12.934067,44,22,-12,-22,-5,58,-8,-6,2.456341089
12.934098,-20,18,4,32,29,3,0,-10,2.456341089
12.944393,7,14,3,-2,-124,13,12,10,2.456341089
12.944400,0,11,8,12,10,10,31,49,2.456341089
12.957790,-47,14,5,-16,9,-5,7,55,2.456341089
12.957814,-17,-22,-7,3,-4,-55,-25,-54,2.456341089
12.959006,26,7,-2,1,43,43,-3,26,2.456341089
12.959029,-11,-5,4,-7,-43,-24,-15,-46,2.456341089
12.980310,-13,-22,-9,8,40,-5,21,17,2.456341089
12.980336,82,-35,-6,-33,-107,70,13,1,2.456341089
12.982053,27,10,11,40,80,-35,16,-2,2.456341089
12.982067,-39,11,5,-24,-94,-81,22,61,2.456341089
12.994106,-53,-7,-3,23,127,57,-17,5,2.456341089
12.994138,62,-10,-6,-40,-110,-10,0,-9,2.456341089
13.003566,-17,14,-2,-5,13,24,8,-35,2.456341089
13.003573,16,17,7,31,-94,-97,-40,25,2.456341089
13.017544,6,15,5,-14,-6,10,29,39,2.456341089
13.017594,-55,24,-4,17,54,-6,-4,-1,2.456341089
13.019170,-33,-17,-3,-9,-24,-8,-1,-6,2.456341089
13.019204,-45,15,-1,-1,7,-10,-16,-56,2.456341089
13.040365,10,-27,-6,-11,-50,-6,-15,-37,2.456341089
13.040395,-66,15,4,17,63,20,-6,-4,2.456341089
13.042793,39,-4,1,5,-7,1,16,39,2.456341089
13.042801,-84,22,12,6,52,13,-9,-7,2.456341089
13.053854,88,-15,-9,-12,-43,14,8,-9,2.452605044
13.053870,-10,-34,0,8,-6,-54,1,20,2.452605044
13.064393,-5,-2,-3,-4,34,-26,-17,21,2.452605044
13.064409,25,-3,-3,-43,-23,-19,-24,-39,2.452605044
13.079560,-118,-43,-10,33,88,-21,10,-23,2.452605044
13.079576,14,-1,-6,-12,-61,-47,-1,17,2.452605044
13.079588,23,1,3,7,-113,17,3,-1,2.452605044
13.079590,10,20,10,0,76,-30,25,31,2.452605044
13.100580,-35,19,2,8,-18,-25,-31,-15,2.452605044
13.100613,77,-39,-12,-8,-24,14,-17,-34,2.452605044
13.101957,-115,-3,5,-3,-32,9,6,-4,2.452605044
13.101967,119,-24,-13,-9,27,25,-1,44,2.452605044
13.113950,4,6,5,4,-16,-6,10,-29,2.452605044
13.113975,-27,6,1,4,50,35,13,8,2.452605044
13.125102,48,14,5,-3,48,-16,-24,20,2.452605044
13.125118,5,-22,0,34,-119,-45,13,21,2.452605044
13.138375,33,16,-3,-19,121,101,-28,83,2.452605044
13.138406,-53,-8,-2,-9,15,-27,25,-26,2.452605044
13.141089,50,4,-5,-36,-62,3,11,4,2.452605044
13.141100,-24,7,-16,35,114,36,-46,-16,2.452605044
13.160739,15,-6,4,-22,13,-50,1,4,2.452605044
13.160763,6,19,-3,-3,9,-55,-19,-4,2.452605044
13.163337,-13,3,-2,1,-18,11,3,-1,2.452605044
13.163350,-46,12,4,-19,-37,18,6,-35,2.452605044
13.173814,14,-20,-2,6,-60,-35,10,-26,2.452605044
13.173850,-93,25,15,22,25,51,2,37,2.452605044
13.183747,-47,-26,0,5,27,-123,7,-15,2.452605044
13.183762,49,-41,-23,-52,-95,104,-37,86,2.452605044
13.197799,-32,21,3,11,9,-42,31,77,2.452605044
13.197825,9,-15,2,25,9,22,5,-46,2.452605044
13.199698,-3,-9,12,-13,-32,30,11,24,2.452605044
13.199710,-36,-10,1,11,9,-44,-14,-41,2.452605044
13.220221,-24,-1,-1,3,39,-31,-4,-39,2.452605044
13.220229,42,-7,0,-20,22,-11,-26,-39,2.452605044
13.221586,-51,25,0,23,90,1,15,11,2.452605044
13.221607,83,-15,-13,0,121,40,28,-17,2.452605044
13.234022,-2,7,5,-13,-125,9,-38,-25,2.452605044
13.234033,32,16,7,23,50,52,39,14,2.452605044
13.244367,-69,-2,-4,-16,-44,19,-35,-39,2.452605044
13.244373,39,-54,-11,-18,-2,-36,7,15,2.452605044
13.257925,24,22,4,6,-80,-62,14,20,2.452605044
13.257949,4,-11,-5,-6,-6,32,-8,39,2.452605044
13.259742,-39,1,-3,3,6,31,8,-52,2.452605044
13.259748,-8,24,13,18,-7,12,17,36,2.452605044
13.281563,-29,29,5,8,32,8,-12,-48,2.452605044
13.281581,66,-60,-23,-18,-44,-26,-7,11,2.452605044
13.281802,50,29,-2,45,-80,-62,25,17,2.452605044
13.281816,-16,-6,3,-74,-1,24,-11,-51,2.452605044
13.302685,-8,6,-1,18,29,-28,-21,-30,2.452605044
13.302707,-33,7,3,14,60,-31,0,8,2.452605044
13.305458,39,-11,-4,-7,-67,-35,-17,-8,2.427196314
13.305464,-30,17,5,4,-7,-17,-12,-23,2.427196314
13.317658,-17,4,-1,-13,-54,-12,46,20,2.427196314
13.317678,-5,7,-5,-8,75,59,9,82,2.427196314
13.319150,125,-39,-15,-17,10,-15,-11,-26,2.427196314
13.319186,-102,-16,4,19,-26,-26,6,-8,2.427196314
13.340476,11,-4,-1,-6,5,31,5,23,2.427196314
13.340507,-37,14,11,-2,-105,-44,-20,-5,2.427196314
13.342063,-8,9,8,12,90,25,1,-40,2.427196314
13.342071,28,-5,-4,6,4,35,10,38,2.427196314
13.362617,-3,24,-3,-7,-7,-55,-22,-9,2.427196314
13.362634,-59,-19,-3,-34,0,36,13,-7,2.427196314
13.364299,37,-2,-5,4,10,22,-25,5,2.427196314
13.364326,6,28,18,17,-119,-49,14,8,2.427196314
13.377641,1,-28,-20,43,123,-65,-38,-40,2.427196314
13.377667,-4,-34,-6,-33,-1,-13,9,4,2.427196314
13.381333,-20,-1,-18,-42,-28,-49,-4,2,2.427196314
13.381345,-18,-6,-5,20,-10,58,8,1,2.427196314
13.400261,-16,-22,3,-16,-128,-84,-27,-22,2.427196314
13.400286,40,9,7,28,25,10,2,2,2.427196314
13.402441,-7,-6,0,8,2,29,-7,-4,2.427196314
13.402454,1,8,4,0,6,-20,7,-18,2.427196314
13.422862,-11,43,6,4,50,66,8,31,2.427196314
13.422880,-38,6,-2,4,-13,-7,-18,-22,2.427196314
13.423995,25,0,4,-24,-45,-29,31,74,2.427196314
13.424018,-52,14,-7,30,127,43,-16,-28,2.427196314
13.436889,20,-30,-5,-38,-85,61,-8,-1,2.427196314
13.436905,55,15,-7,18,93,-25,-2,4,2.427196314
13.443977,11,-8,0,28,103,11,-12,3,2.427196314
13.444001,7,4,-2,-22,67,-36,-7,8,2.427196314
13.460427,17,7,3,9,2,30,12,9,2.427196314
13.460452,1,12,3,2,-77,-19,5,-27,2.427196314
13.463124,-36,3,2,-14,-67,6,4,2,2.427196314
13.463136,36,0,2,23,28,-25,-19,-3,2.427196314
13.482675,6,0,10,36,52,-9,32,-62,2.427196314
13.482686,-32,41,11,-46,-91,-100,18,-47,2.427196314
13.484148,20,-40,-19,-28,91,34,-73,7,2.427196314
13.484158,-68,-9,-17,-13,-55,90,-12,-39,2.427196314
13.497592,-49,-73,-17,-16,-115,43,17,80,2.427196314
13.497609,14,14,6,35,-34,-73,43,-24,2.427196314
13.503824,-16,25,10,4,13,-77,-18,-9,2.427196314
13.503848,23,2,1,-11,-22,25,13,-5,2.427196314
13.520096,12,38,8,3,39,19,-6,35,2.427196314
13.520142,42,45,-3,-5,-17,23,-30,-49,2.427196314
13.521568,-18,-46,2,4,-13,15,23,-12,2.427196314
13.521595,81,-22,-10,1,-9,-46,-6,35,2.427196314
13.545369,44,-11,-3,-5,25,18,17,-22,2.427196314
13.545381,12,-15,2,18,90,17,-2,58,2.427196314
13.545385,-26,25,-3,-15,-65,8,22,-30,2.427196314
13.545387,8,6,3,-15,-46,-13,-1,-19,2.427196314
13.557117,11,6,0,6,31,-93,-15,-16,2.427196314
13.557140,27,-19,-4,-19,36,-17,-25,19,2.427196314
13.563941,-26,25,1,38,72,70,40,32,2.428223838
13.563964,-24,4,10,-19,-77,60,37,31,2.428223838
13.580320,6,-24,-22,-48,-13,-23,-51,-39,2.428223838
13.580341,-28,10,-8,1,24,-46,-5,30,2.428223838
13.583372,-10,23,0,2,-6,4,0,-21,2.428223838
13.583384,6,19,3,0,-20,-46,11,-8,2.428223838
13.602574,-8,9,4,6,-81,-1,-2,3,2.428223838
13.602592,-11,-11,-5,-4,6,39,-20,-59,2.428223838
13.604109,23,11,-3,-7,-19,-4,-21,43,2.428223838
13.604145,-55,-37,-8,4,48,-37,-2,-28,2.428223838
13.617182,38,10,7,12,23,32,11,98,2.428223838
13.618457,-30,-29,3,-24,-45,-5,-12,-66,2.428223838
13.623852,22,18,1,38,52,1,32,-20,2.428223838
13.625859,2,15,9,0,-87,-102,-45,80,2.428223838
13.640623,47,-30,0,18,88,117,-28,-58,2.428223838
13.640649,32,13,-4,14,77,-49,2,20,2.428223838
13.641522,-4,55,5,-35,-127,-75,13,17,2.428223838
13.641529,-44,-45,-16,25,127,-47,-21,-38,2.428223838
13.663164,-53,-9,-6,-39,-56,86,19,-11,2.428223838
13.663210,-1,28,8,19,-38,-59,-23,28,2.428223838
13.665123,0,-25,-1,-1,-1,0,-19,-14,2.428223838
13.665132,-15,40,9,-13,-53,-53,4,-6,2.428223838
13.677453,3,7,-1,11,9,-38,-4,-1,2.428223838
13.677487,19,-27,-7,5,14,71,14,16,2.428223838
13.684117,-24,-13,-1,-9,-9,1,15,-8,2.428223838
13.684136,-25,-4,0,5,-19,14,0,3,2.428223838
13.700923,40,11,1,5,69,-40,-20,57,2.428223838
13.700942,32,1,-2,17,66,27,14,-17,2.428223838
13.701930,-40,-37,-1,-11,80,89,-30,-47,2.428223838
13.701947,81,-4,1,-36,-69,-62,32,-5,2.428223838
13.723042,-34,15,-8,46,93,9,16,59,2.428223838
13.723063,-3,4,-1,-15,-72,-11,5,49,2.428223838
13.724467,33,-20,-9,-17,-11,-35,-35,6,2.428223838
13.724473,-7,-18,2,7,-21,127,28,-14,2.428223838
13.736951,-27,10,3,-15,-55,-57,18,-20,2.428223838
13.736968,-28,2,3,-9,-45,3,10,79,2.428223838
13.744151,19,-3,-1,20,-8,14,5,1,2.428223838
13.744180,27,-25,0,14,44,-16,-11,4,2.428223838
13.760518,2,28,-2,-20,2,-32,-3,-15,2.428223838
13.760550,-31,-27,-4,-2,56,64,-15,-30,2.428223838
13.763504,27,23,2,-1,-128,-45,9,-9,2.428223838
13.763519,-57,49,4,1,101,46,2,-7,2.428223838
13.782712,64,-34,-6,-12,-28,14,-11,-17,2.428223838
13.782732,-33,-15,-5,2,-124,-67,-64,-61,2.428223838
13.784202,7,-8,5,-9,103,102,19,109,2.428223838
13.784219,-17,36,0,10,-31,-128,22,-60,2.428223838
13.796611,-127,3,4,-2,79,92,13,-21,2.428223838
13.796630,61,7,3,3,9,-8,37,-14,2.428223838
13.806550,-7,-42,-10,3,-65,-79,-29,-17,2.428223838
13.806561,83,50,5,8,57,24,-16,29,2.428223838
13.820075,-128,-27,4,2,-65,-25,15,-74,2.423712643
13.820097,97,-47,-8,-10,-95,11,13,43,2.423712643
13.821732,-22,2,-1,-2,35,-40,-27,24,2.423712643
13.821804,21,-17,1,-6,-1,30,-3,30,2.423712643
13.842951,23,29,3,-8,-42,-21,1,13,2.423712643
13.842979,-62,14,-5,-9,-26,-34,-1,1,2.423712643
13.844255,-3,-20,-1,11,99,61,1,-33,2.423712643
13.844281,-18,-15,-6,-19,-37,-8,-3,7,2.423712643
13.856846,32,-16,-1,7,-57,-43,7,13,2.423712643
13.856854,-41,4,-7,2,127,-22,-34,-18,2.423712643
13.866986,6,-2,1,-12,-116,-62,9,-64,2.423712643
13.866999,-15,-12,-2,-13,15,42,4,-16,2.423712643
13.880294,8,43,2,-14,-9,41,-18,69,2.423712643
13.880319,28,-15,-7,-14,-39,24,15,-50,2.423712643
13.882359,-8,-2,5,11,42,-66,-3,15,2.423712643
13.882372,43,-18,-8,10,16,61,-15,-45,2.423712643
13.903396,-55,5,8,6,-7,-52,14,42,2.423712643
13.903410,72,-4,-3,-18,-16,6,-5,27,2.423712643
13.904495,-15,16,2,26,65,50,15,41,2.423712643
13.904502,6,-23,-9,-3,-52,-38,-13,-42,2.423712643
13.916278,50,-15,-3,15,21,12,-24,-20,2.423712643
13.916306,-68,39,9,20,-56,36,35,-48,2.423712643
13.931585,-6,-13,2,-25,99,22,19,-15,2.423712643
13.932762,5,10,-2,3,0,-59,-15,-10,2.423712643
13.940515,-10,-66,-10,1,32,34,-33,-26,2.423712643
13.940579,-38,7,12,-17,18,19,42,40,2.423712643
13.941652,28,6,-9,-5,1,-3,-31,18,2.423712643
13.941661,10,6,-1,6,11,-27,19,-11,2.423712643
13.963084,8,10,-1,3,13,-19,-10,-17,2.423712643
13.963112,-2,-8,0,8,-48,78,0,-14,2.423712643
13.965590,24,-11,-2,-20,12,63,3,-1,2.423712643
13.965602,32,8,5,26,13,-78,7,61,2.423712643
13.976453,-65,-4,-8,-45,42,56,25,-62,2.423712643
13.976476,-9,-8,-4,14,14,-24,13,31,2.423712643
13.985580,-23,11,11,7,-51,-7,5,35,2.423712643
13.985590,-27,-6,-7,-15,-30,20,-10,35,2.423712643
14.000107,11,8,7,52,19,-32,13,55,2.423712643
14.000193,-17,1,2,0,85,-57,-12,72,2.423712643
14.001883,-72,-9,-12,22,101,61,-16,-30,2.423712643
14.001909,-3,60,-3,-54,-76,78,2,-11,2.423712643
14.023124,25,1,-3,15,-106,-101,-33,-24,2.423712643
14.023213,-12,7,5,0,106,48,-17,-9,2.423712643
14.025305,-16,-5,-6,-14,-105,-44,12,-25,2.423712643
14.025311,-11,-13,1,8,-21,-50,12,-29,2.423712643
14.036437,96,13,3,10,83,-17,13,30,2.423712643
14.036461,-10,5,-4,-18,-128,-8,-32,-35,2.423712643
14.046628,-13,-3,1,15,9,-44,24,1,2.423712643
14.046646,2,-28,0,8,27,57,-16,-8,2.423712643
14.060334,-12,60,8,-11,-9,-23,-9,17,2.423712643
14.060349,43,-54,-13,4,-1,-32,-3,-22,2.423712643
14.061649,35,13,-1,-2,-7,7,4,21,2.423712643
14.061657,-31,-24,-2,-18,26,3,-14,10,2.423712643
14.082728,-20,19,0,32,112,-33,21,-30,2.426380605
14.082758,-14,36,12,-13,-79,47,-30,-28,2.426380605
14.084939,-58,-36,-20,-62,-56,7,28,-46,2.426380605
14.084946,92,-6,-9,-13,24,-46,9,43,2.426380605
14.096404,-19,-21,-2,-16,-8,19,22,-7,2.426380605
14.096429,-19,5,5,12,22,-32,16,16,2.426380605
14.105554,-17,22,-1,30,114,21,-27,-33,2.426380605
14.105560,35,-29,-7,-2,-5,-5,-3,-2,2.426380605
14.121468,-48,-10,-2,-41,-128,39,16,-10,2.426380605
14.121476,-17,-25,-8,25,3,-38,6,17,2.426380605
14.121620,9,3,4,-13,-100,-21,3,2,2.426380605
14.121628,-45,5,0,18,58,-23,-12,43,2.426380605
14.142745,47,-13,-6,-2,-13,56,17,14,2.426380605
14.142765,40,10,9,17,11,37,6,-3,2.426380605
14.144877,-71,11,2,-49,-71,-104,-24,-24,2.426380605
14.144886,-5,-13,-6,4,-89,-46,-8,-20,2.426380605
14.156780,25,41,1,18,37,6,-8,-40,2.426380605
14.156806,10,5,-3,-13,-22,0,-1,14,2.426380605
14.166115,12,-14,4,19,-62,-28,1,-3,2.426380605
14.166131,-16,-1,1,9,8,3,-2,-76,2.426380605
14.182246,-19,-26,-9,-22,19,12,8,24,2.426380605
14.182258,31,1,-10,-14,26,-13,-24,24,2.426380605
14.182261,28,3,6,16,14,19,1,-45,2.426380605
14.182263,-32,26,11,16,39,24,-6,14,2.426380605
14.203525,11,-40,-4,-10,-35,-25,-4,-19,2.426380605
14.203548,-53,18,2,-13,-10,17,-17,-25,2.426380605
14.206013,-8,6,-1,57,120,23,-15,35,2.426380605
14.206026,48,-3,-5,-42,-82,-48,21,-6,2.426380605
14.225630,-66,-2,6,11,-25,21,-20,-22,2.426380605
14.225662,-85,2,-2,-6,-51,-58,20,18,2.426380605
14.228774,111,-11,-10,-28,-61,-15,-2,-5,2.426380605
14.228788,-32,-3,2,16,23,-45,-11,-22,2.426380605
14.240033,31,-3,5,0,91,73,10,2,2.426380605
14.240064,-19,-9,3,-11,-2,-86,-15,-7,2.426380605
14.246552,-27,7,2,37,16,36,17,20,2.426380605
14.246577,0,-18,-9,-25,-59,47,24,-36,2.426380605
14.262664,49,17,5,-3,40,-17,-33,68,2.426380605
14.262690,39,-25,0,-3,113,29,18,29,2.426380605
14.264415,42,1,-2,-10,-33,-10,3,42,2.426380605
14.264435,-6,20,5,36,-30,17,-13,54,2.426380605
14.285222,-41,-51,6,33,20,-61,0,-35,2.426380605
14.285239,67,28,1,13,43,41,2,-6,2.426380605
14.286714,54,5,-2,-34,14,19,-15,-6,2.426380605
14.286749,-7,-27,-13,-2,107,20,11,-19,2.426380605
14.300168,-15,7,-7,-21,10,-1,-12,25,2.426380605
14.300192,-43,-15,1,-12,-80,3,23,-20,2.426380605
14.302466,41,29,4,17,-34,-5,-14,-56,2.426380605
14.302473,-73,-2,9,6,48,-2,-22,32,2.426380605
14.323915,-27,35,1,-9,-45,-20,21,34,2.426380605
14.323926,86,-46,-19,3,-12,-97,-21,-37,2.426380605
14.324075,-92,-4,-6,-23,-36,48,-3,27,2.426380605
14.324108,-1,19,8,-6,58,47,29,-46,2.426380605
14.345441,56,3,-4,3,-112,-10,-6,-41,2.473529610
14.345466,-26,9,-1,18,29,55,11,-26,2.473529610
14.347269,-9,-5,1,-6,-56,-15,-1,-19,2.473529610
14.347283,-27,-32,-8,17,-67,-44,-27,-6,2.473529610
14.360489,49,3,6,6,-69,17,-1,7,2.473529610
14.360512,1,13,-1,-26,111,60,29,2,2.473529610
14.362991,19,-5,4,17,-16,4,9,12,2.473529610
14.363005,-110,9,8,1,95,21,-7,37,2.473529610
14.383873,21,-16,-15,0,34,-45,-21,-28,2.473529610
14.383881,-27,-30,-1,4,-5,5,11,88,2.473529610
14.384166,-24,-2,-4,-9,-46,-54,-17,-41,2.473529610
14.384202,57,2,2,-30,7,22,12,12,2.473529610
14.405294,-13,9,-2,6,111,-32,-8,-13,2.473529610
14.407102,-8,14,-3,-1,-73,-17,12,-23,2.473529610
14.407116,-32,0,10,20,108,13,5,32,2.473529610
14.407122,-12,-4,-1,-2,-75,-90,7,29,2.473529610
14.419510,53,-17,-5,-14,6,3,7,-23,2.473529610
14.419533,-71,-16,0,-6,-13,6,-3,-53,2.473529610
14.426470,30,-21,0,11,-32,-40,7,63,2.473529610
14.427610,13,37,7,-14,-84,44,20,-20,2.473529610
14.446235,52,-41,-6,5,46,-11,-6,37,2.473529610
14.446255,-1,24,1,-6,12,-18,-19,-42,2.473529610
14.446262,19,-3,-3,-3,54,2,-5,-15,2.473529610
14.446340,-1,-13,-2,9,-31,39,-14,0,2.473529610
14.465142,-45,21,10,-2,-119,-90,16,-28,2.473529610
14.465160,13,5,-4,30,65,75,-21,13,2.473529610
14.466889,21,-14,-6,-11,40,62,-18,-13,2.473529610
14.466937,-13,-2,-2,11,-14,67,34,40,2.473529610
14.480124,-63,15,0,-19,6,-42,9,8,2.473529610
14.480151,84,-61,-13,14,-42,4,-31,4,2.473529610
14.487796,-57,-19,-2,-15,-42,-31,30,-7,2.473529610
14.487818,0,16,-2,8,74,-43,-19,-21,2.473529610
14.502961,-61,8,11,0,-66,42,16,54,2.473529610
14.502979,16,13,1,-6,7,-54,-36,-1,2.473529610
14.504950,21,9,-12,-29,33,11,-10,-4,2.473529610
14.504959,16,-5,-5,13,3,-21,-24,-64,2.473529610
14.525369,-19,4,3,-15,-23,8,-1,-20,2.473529610
14.525443,-35,13,2,8,51,-21,-8,-32,2.473529610
14.526713,-17,1,3,37,78,40,-4,17,2.473529610
14.526733,4,10,-5,-22,-76,-106,-20,-4,2.473529610
14.539516,10,14,-10,-5,99,52,17,-1,2.473529610
14.539526,-11,2,4,-19,20,-14,38,-26,2.473529610
14.546629,-9,20,2,4,-63,-3,-2,-57,2.473529610
14.546660,-27,-12,-4,11,81,24,-22,-15,2.473529610
14.562979,35,-27,-7,2,-43,-17,5,-28,2.473529610
14.563003,39,-7,4,-7,-63,-4,-25,47,2.473529610
14.565398,-13,-1,-2,7,41,-32,32,21,2.473529610
14.565409,6,-3,1,10,47,27,-5,-9,2.473529610
14.585354,5,18,4,-23,-54,20,-9,23,2.466530718
14.585360,-1,29,3,17,55,7,3,30,2.466530718
14.586683,24,-12,-3,-31,-113,-41,-5,-3,2.466530718
14.586690,76,16,-2,50,63,23,-7,-23,2.466530718
14.601191,-12,-44,-16,-19,-25,5,4,75,2.466530718
14.601202,-11,34,9,-19,6,15,13,5,2.466530718
14.606625,-96,-14,-4,-9,-16,-89,28,22,2.466530718
14.606644,45,-16,-11,-29,14,24,10,80,2.466530718
14.623025,-53,15,6,32,78,-14,-27,-51,2.466530718
14.623060,-34,-7,1,7,-100,-4,2,56,2.466530718
14.624777,25,21,1,-22,-47,18,10,13,2.466530718
14.624790,-45,3,3,-1,16,-74,-23,-21,2.466530718
14.647072,74,-23,-10,-20,-28,1,12,-37,2.466530718
14.647085,-18,-38,-9,-4,39,19,0,34,2.466530718
14.647088,37,13,11,21,28,-56,-38,-14,2.466530718
14.647091,-46,-46,-5,-3,38,52,17,0,2.466530718
14.660061,52,17,-1,1,-6,-49,-10,-16,2.466530718
14.660092,-6,22,-9,-36,-30,47,1,-39,2.466530718
14.666488,60,-4,5,18,-23,-38,-23,64,2.466530718
14.666512,0,-3,8,25,23,70,14,1,2.466530718
14.682813,-41,0,0,-32,38,-25,3,10,2.466530718
14.682835,1,-9,-2,25,-31,-18,9,-16,2.466530718
14.684256,-9,57,-4,5,-14,-47,5,-12,2.466530718
14.684274,24,-13,-1,-31,-54,83,3,28,2.466530718
14.705350,-5,-6,0,22,-89,-49,-20,-13,2.466530718
14.705382,20,13,-2,19,-53,3,19,38,2.466530718
14.707821,-16,11,1,-4,84,57,16,-15,2.466530718
14.707827,-51,-4,2,-25,-128,-88,-22,-7,2.466530718
14.719210,-65,-24,-15,-14,100,49,-3,-26,2.466530718
14.719242,7,2,0,20,31,-28,-5,-86,2.466530718
14.730572,24,-28,-10,-38,-102,38,-20,-16,2.466530718
14.730585,-20,29,0,26,77,7,24,49,2.466530718
14.742933,8,2,9,12,32,-25,-57,-3,2.466530718
14.742978,6,37,1,-18,-46,9,-3,28,2.466530718
14.744196,-39,-25,-3,-8,74,7,-4,-18,2.466530718
14.744210,34,5,-4,17,-81,-10,-6,-24,2.466530718
14.765735,-67,29,16,-21,6,6,3,13,2.466530718
14.765753,91,-31,-20,-22,14,52,-1,-16,2.466530718
14.768049,5,-26,5,9,-93,-53,23,-4,2.466530718
14.768061,-9,10,-14,-7,111,70,-27,20,2.466530718
14.778970,1,-29,-12,-32,-73,18,63,-18,2.466530718
14.778989,-60,13,15,5,-7,-37,-28,22,2.466530718
14.788340,4,-16,-6,2,65,16,4,-34,2.466530718
14.788347,51,-7,4,-6,-66,-49,5,66,2.466530718
14.803503,-13,26,3,16,2,14,-6,6,2.466530718
14.803515,-17,-31,-1,10,45,-26,-2,-56,2.466530718
14.804269,21,11,6,15,15,28,-4,6,2.466530718
14.804302,-97,31,15,-1,8,-39,13,-9,2.466530718
14.825409,93,-18,-10,-26,-47,74,-29,16,2.466530718
14.825432,75,-18,-10,33,85,-50,12,-8,2.466530718
14.827322,49,-3,-11,-31,-45,21,-21,69,2.466530718
14.827334,-41,-14,2,17,97,-70,-4,-33,2.466530718
14.839183,-12,11,6,-10,-37,91,37,6,2.466530718
14.839207,-55,17,10,-14,-86,-20,16,4,2.466530718
14.848916,-17,27,1,8,18,25,4,-7,2.482290618
14.848930,53,-9,-5,-8,-30,-28,3,-18,2.482290618
14.863244,-2,-9,3,32,-2,-41,-24,10,2.482290618
14.863288,-13,40,-1,-6,2,-3,-4,-7,2.482290618
14.865437,-12,8,5,17,46,12,-11,-20,2.482290618
14.865449,-7,-27,1,-23,-128,7,-18,73,2.482290618
14.885285,15,7,-13,10,122,-4,13,28,2.482290618
14.885304,32,3,-5,-2,-18,7,34,-19,2.482290618
14.886696,-78,-11,-4,-8,-64,15,-19,44,2.482290618
14.886710,22,5,3,23,-32,-55,12,-24,2.482290618
14.898993,-17,2,8,-2,-51,-8,7,-11,2.482290618
14.899008,-30,-5,-2,-21,-30,-24,-62,6,2.482290618
14.908811,12,-13,-5,16,112,65,78,8,2.482290618
14.908822,-5,21,-1,-3,1,5,1,-52,2.482290618
14.922998,15,36,7,12,-37,-49,2,-6,2.482290618
14.923049,12,-9,3,4,6,-62,8,1,2.482290618
14.924724,-94,-8,8,12,-47,-83,-19,62,2.482290618
14.924729,66,4,-4,-30,93,104,3,-11,2.482290618
14.945827,59,-6,-20,30,11,-13,-28,-40,2.482290618
14.945844,-53,-57,-6,-28,32,16,4,35,2.482290618
14.946865,12,4,-5,-15,-45,-27,-31,-74,2.482290618
14.946885,20,-15,2,2,0,-5,30,16,2.482290618
14.960876,-6,12,11,-11,-45,0,-10,65,2.482290618
14.960886,-35,16,5,27,115,31,23,103,2.482290618
14.969683,36,-34,-11,15,100,73,-6,26,2.482290618
14.969691,-19,-17,-4,-14,-21,-50,-27,-70,2.482290618
14.982917,1,-2,-1,-1,-73,17,5,30,2.482290618
14.982973,-1,11,7,5,-37,12,12,-14,2.482290618
14.984811,-4,-8,8,10,-7,-51,-33,11,2.482290618
14.984816,-8,-1,-9,-5,31,35,-14,-36,2.482290618
15.007173,-43,-6,-3,-47,-53,42,18,-10,2.482290618
15.007179,49,-23,-11,-18,9,-5,-22,-28,2.482290618
15.007182,25,39,0,5,-98,-24,5,-32,2.482290618
15.007185,-85,-9,1,6,40,-44,-17,-33,2.482290618
15.019380,76,-10,-3,25,100,-18,-1,20,2.482290618
15.019467,-76,-3,4,0,-32,-13,-3,-31,2.482290618
15.031486,-17,19,0,-9,-49,14,-12,-29,2.482290618
15.031498,25,39,-5,1,-58,80,32,94,2.482290618
15.043708,-97,3,10,-14,54,-91,19,-50,2.482290618
15.043739,40,22,4,15,-86,77,-4,10,2.482290618
15.045995,47,-21,-18,11,106,-84,5,-69,2.482290618
15.046008,37,7,-2,-1,32,58,0,11,2.482290618
15.065185,-5,-20,0,5,-11,-5,-14,-34,2.482290618
15.065207,-24,8,-9,3,-125,-69,-31,-23,2.482290618
15.066886,1,14,2,-20,103,58,4,-39,2.482290618
15.066904,16,-30,-5,-22,-33,-53,-8,25,2.482290618
15.078995,-3,0,1,22,5,21,4,0,2.482290618
15.079022,-21,21,7,1,2,-45,8,-33,2.482290618
15.088118,-8,-44,-1,-9,-56,25,14,35,2.482290618
15.088134,-1,7,-4,-1,5,-37,-10,-25,2.482290618
15.102715,0,16,9,34,95,-3,13,4,2.469671883
15.102731,28,-28,3,-19,-21,63,-1,64,2.469671883
15.104314,-17,43,-12,-64,-8,-59,-20,7,2.469671883
15.104352,48,-11,0,1,-46,75,-1,-6,2.469671883
15.125684,-12,-1,-4,44,41,-26,-16,33,2.469671883
15.125727,10,5,-6,-15,-7,33,-7,-33,2.469671883
15.127410,-39,-1,13,15,-81,-14,9,28,2.469671883
15.127420,-12,2,-4,-6,41,66,-26,-47,2.469671883
15.139222,89,-38,-6,-15,-28,36,36,-31,2.469671883
15.139255,-11,30,9,19,26,-29,-19,58,2.469671883
15.147852,10,-15,-5,2,-41,-16,9,59,2.469671883
15.147867,-38,20,2,13,-13,-64,-3,-52,2.469671883
15.164348,-14,-10,-2,-11,28,-5,-20,-6,2.469671883
15.164362,20,-3,-7,-3,5,17,17,-6,2.469671883
15.164421,-72,1,4,22,10,23,6,-37,2.469671883
15.164445,-3,-24,-1,-61,-54,-33,-2,37,2.469671883
15.185659,-7,-5,-5,39,3,37,8,18,2.469671883
15.188013,-89,10,1,15,-13,-73,0,-22,2.469671883
15.188027,105,-16,-15,-24,28,112,-88,-10,2.469671883
15.188032,-26,-15,-3,24,19,-36,-1,-22,2.469671883
15.207895,-7,5,0,-17,-68,2,-8,5,2.469671883
15.207911,-19,5,6,-16,76,108,-16,25,2.469671883
15.210240,-10,-5,1,4,-21,-39,30,22,2.469671883
15.210258,-37,-11,-4,8,10,-87,12,-2,2.469671883
15.223307,-20,-14,-15,-48,-13,0,-33,-62,2.469671883
15.223350,33,-15,-1,31,-36,-26,28,40,2.469671883
15.225593,-48,13,12,5,70,-16,-12,-16,2.469671883
15.225609,9,-8,5,19,-27,41,8,55,2.469671883
15.245508,-25,-3,-4,-54,-34,-42,-9,5,2.469671883
15.245559,7,-9,-4,39,-106,-23,-6,-28,2.469671883
15.246958,22,-17,4,-1,73,24,20,-18,2.469671883
15.246982,19,11,-2,-1,-91,-25,-4,2,2.469671883
15.267672,-5,1,-1,21,58,55,26,-4,2.469671883
15.267692,-4,-8,-6,-43,-22,-33,-57,-34,2.469671883
15.269250,-21,-7,-7,-14,35,61,2,-31,2.469671883
15.269273,43,25,6,22,-21,-22,14,71,2.469671883
15.290559,-37,-11,1,7,33,6,-11,-1,2.469671883
15.290571,-29,-16,-5,-51,24,29,71,-9,2.469671883
15.291714,-11,4,5,47,-70,15,19,5,2.469671883
15.291735,48,11,-8,-33,37,5,-15,-36,2.469671883
15.305137,-40,-4,0,-15,-30,-24,0,-6,2.469671883
15.305145,-16,-8,5,57,1,-43,-17,-25,2.469671883
15.306854,22,15,1,-22,-2,56,14,-57,2.469671883
15.306916,1,-24,-2,12,110,-19,1,-10,2.469671883
15.328267,-42,36,17,26,-10,-33,4,28,2.469671883
15.328300,104,-23,-15,-36,10,-5,-20,-62,2.469671883
15.330849,-54,-18,-2,5,-128,-84,19,18,2.469671883
15.330862,-21,-22,-11,-24,60,47,-40,-55,2.469671883
15.342684,18,24,-2,1,-117,-33,45,-7,2.469671883
15.342707,-86,23,3,-7,80,53,-3,25,2.469671883
15.348952,14,-9,4,5,42,-25,5,90,2.469671883
15.348975,4,21,0,4,-98,-36,-9,7,2.469671883
15.365295,-43,-9,0,-9,18,-9,-11,-20,2.473786494
15.365307,57,31,-1,-10,29,-14,12,-4,2.473786494
15.366800,72,-10,-10,3,-9,-30,-15,-29,2.473786494
15.366832,-28,5,8,9,-43,-27,1,11,2.473786494
15.387970,12,5,-4,-5,31,-13,-11,5,2.473786494
15.387992,-26,-14,4,9,-49,47,24,48,2.473786494
15.389793,13,29,4,-8,-68,-42,-12,45,2.473786494
15.389805,28,-40,-1,22,-42,26,16,-20,2.473786494
15.402048,-22,-2,1,-9,-15,-69,-18,-33,2.473786494
15.402064,3,-11,-2,23,34,34,0,12,2.473786494
15.409252,-53,13,-3,-26,-71,-10,57,-42,2.473786494
15.409330,25,16,-2,-10,27,-55,-7,11,2.473786494
15.427452,-22,15,8,13,-90,3,6,-21,2.473786494
15.427460,70,-44,-27,-12,85,-85,-103,-72,2.473786494
15.427463,6,-6,-8,-23,25,58,39,-10,2.473786494
15.427465,-24,3,0,26,24,2,16,15,2.473786494
15.447882,29,36,7,-5,-74,-54,0,25,2.473786494
15.447907,-77,21,9,16,67,54,21,-63,2.473786494
15.449914,33,-43,-8,1,8,42,-42,36,2.473786494
15.449984,-36,-3,-1,-3,99,-35,-41,-14,2.473786494
15.462335,-20,-7,0,-5,-51,75,-9,27,2.473786494
15.462361,-8,1,3,-12,6,-72,26,15,2.473786494
15.469359,0,10,0,4,59,-25,-11,27,2.473786494
15.469384,-27,3,3,-17,-123,56,7,-43,2.473786494
15.485754,0,-10,-4,-20,-66,5,-16,-28,2.473786494
15.485785,24,7,1,19,37,-31,31,-19,2.473786494
15.488253,-19,1,3,31,79,0,-58,-7,2.473786494
15.488263,-38,0,1,-33,-13,79,24,11,2.473786494
15.508086,69,-4,0,1,11,-24,-8,62,2.473786494
15.508109,-7,-4,-12,-30,-60,-10,-11,-16,2.473786494
15.509579,55,-19,3,3,15,-31,-9,23,2.473786494
15.509600,-3,-12,4,11,-41,24,6,1,2.473786494
15.522335,8,-47,-16,15,127,24,31,-25,2.473786494
15.522387,-36,-4,-6,-24,-80,22,-32,28,2.473786494
15.529212,-69,15,-7,-14,-73,4,18,5,2.473786494
15.529241,48,21,2,23,103,2,2,40,2.473786494
15.546012,28,-14,-6,-1,-32,-7,-6,-45,2.473786494
15.546043,7,-21,4,12,-9,22,-5,39,2.473786494
15.548456,-46,52,9,8,29,35,12,-33,2.473786494
15.548468,-23,15,-5,-22,-17,-73,13,-4,2.473786494
15.568045,-8,7,4,11,60,12,14,26,2.473786494
15.568054,30,10,-1,-8,-19,-24,-4,-36,2.473786494
15.569279,-6,-24,-10,6,-61,8,16,-20,2.473786494
15.569299,14,8,8,-11,-71,7,-8,27,2.473786494
15.582954,-5,5,7,42,94,-79,10,15,2.473786494
15.582970,-88,16,7,-12,-16,64,28,-57,2.473786494
15.588916,63,-23,-8,2,30,-37,-15,-28,2.473786494
15.588933,-72,7,-9,12,-35,35,0,26,2.473786494
15.605355,65,-50,-10,-27,46,36,0,9,2.473786494
15.605373,-17,3,10,4,37,-78,-3,114,2.473786494
15.606628,-17,16,13,-7,2,-4,21,19,2.473786494
15.606641,-5,13,-1,13,8,24,-15,-41,2.473786494
15.629745,-2,1,-6,-28,28,-52,-10,-3,2.474250683
15.629770,2,17,-5,2,-34,0,-8,3,2.474250683
15.629777,-2,-31,2,5,10,-1,-9,-16,2.474250683
15.629782,18,28,-5,-29,-29,-21,17,44,2.474250683
15.641887,17,-19,8,20,-35,41,-14,-15,2.474250683
15.641917,-60,11,-9,16,31,-55,-13,-17,2.474250683
15.648992,33,-16,-9,-11,-84,-15,-10,-39,2.474250683
15.649008,0,5,6,-7,9,-5,14,9,2.474250683
15.664893,27,16,3,18,13,34,4,14,2.474250683
15.664918,-43,-9,1,1,-85,-57,-6,-11,2.474250683
15.666535,-62,19,11,-25,-45,114,12,25,2.474250683
15.666546,54,-24,-11,27,112,27,-12,74,2.474250683
15.687029,22,-15,-10,9,-64,-18,-19,-35,2.474250683
15.687046,53,49,8,-20,-37,22,48,11,2.474250683
15.687789,-11,-11,-2,15,28,-34,-11,-8,2.474250683
15.687794,48,-19,-2,-1,53,-50,24,-3,2.474250683
15.701408,-50,3,2,13,18,33,-12,20,2.474250683
15.701435,19,20,0,-12,51,3,-15,51,2.474250683
15.708990,31,4,-2,10,39,-19,2,-35,2.474250683
15.709040,-14,-3,-1,-4,4,35,-17,-35,2.474250683
15.725075,-41,-1,3,-11,-17,1,4,-52,2.474250683
15.725106,22,-45,-9,0,8,-13,-28,5,2.474250683
15.727308,-28,18,8,-5,2,-24,-7,12,2.474250683
15.727313,-14,-27,-11,-14,-67,-10,-38,-53,2.474250683
15.747232,-2,19,-8,-18,65,-2,-9,50,2.474250683
15.749688,-50,8,10,9,-15,-3,21,45,2.474250683
15.749697,82,-2,-3,1,-20,-52,-7,-14,2.474250683
15.749699,-79,-31,-3,-11,-77,41,2,-37,2.474250683
15.769633,-13,41,-1,-9,-36,3,14,-16,2.474250683
15.769640,34,-12,1,-1,-38,7,16,19,2.474250683
15.770306,20,35,7,14,5,-54,25,66,2.474250683
15.770313,-44,13,2,11,55,1,0,-39,2.474250683
15.784551,64,-30,-9,-17,-116,-36,-11,-9,2.474250683
15.784567,56,-27,-4,9,36,62,18,-24,2.474250683
15.785849,-32,-4,-9,-11,-26,33,17,-27,2.474250683
15.785855,34,8,6,40,8,-15,6,36,2.474250683
15.807428,-90,8,-3,-28,-48,-24,-26,2,2.474250683
15.807452,-6,-5,-5,-8,-59,66,-5,-21,2.474250683
15.809315,29,-2,-8,28,51,5,-17,-7,2.474250683
15.809320,-26,-30,3,-29,-54,-56,-1,-34,2.474250683
15.829650,-75,25,1,-7,74,15,3,2,2.474250683
15.829671,88,-19,0,5,-33,-4,-21,-34,2.474250683
15.831537,-30,-19,-13,-22,62,48,-2,59,2.474250683
15.831550,-15,22,4,1,51,4,-17,-46,2.474250683
15.844967,24,5,7,14,7,-65,12,9,2.474250683
15.845000,-21,8,-2,5,22,32,11,-34,2.474250683
15.847916,-67,-13,-3,-21,37,64,-35,17,2.474250683
15.847937,56,39,4,-1,-104,-73,-3,38,2.474250683
15.867033,75,-34,-14,-42,-12,88,1,-23,2.502764521
15.867050,0,-21,-4,46,77,-64,-13,-4,2.502764521
15.867777,4,-2,5,14,55,-26,10,-17,2.502764521
15.867791,19,-2,5,6,-73,-54,20,95,2.502764521
15.889900,-28,21,6,7,26,42,-8,27,2.502764521
15.889932,-22,8,5,-21,-77,-30,10,6,2.502764521
15.891286,-75,1,-4,1,80,16,0,-19,2.502764521
15.891297,65,-44,-11,-6,-25,-31,1,1,2.502764521
15.904770,-3,-3,-8,8,69,-11,-7,14,2.502764521
15.906217,15,-13,-13,-31,-47,-7,-6,-24,2.502764521
15.906227,-64,14,10,5,-86,-56,-6,-2,2.502764521
15.906232,58,-2,-7,-2,39,39,26,-44,2.502764521
15.927547,-13,-12,2,25,14,10,-47,-26,2.502764521
15.927556,1,-3,-2,-26,-51,-11,-15,-2,2.502764521
15.927724,40,3,5,15,43,60,38,-7,2.502764521
15.927759,-23,-17,-9,5,43,13,-41,-4,2.502764521
15.949571,4,0,7,13,34,-23,31,-69,2.502764521
15.949588,-5,-8,5,9,-7,-23,11,23,2.502764521
15.951695,-3,3,-1,-13,-85,-37,-26,-26,2.502764521
15.951703,-1,17,4,-5,97,-6,19,-65,2.502764521
15.964687,-36,-28,-9,-12,-26,91,-5,59,2.502764521
15.966165,-44,43,5,5,83,-36,-39,-8,2.502764521
15.966174,113,-35,-10,-7,-19,-21,2,-32,2.502764521
15.966176,52,-31,-4,-2,14,35,27,-10,2.502764521
15.987442,41,14,9,9,-99,-74,18,47,2.502764521
15.987478,-12,12,0,19,18,108,-24,-17,2.502764521
15.989970,-128,-23,-3,-58,40,-100,-20,19,2.502764521
15.989978,44,6,-8,10,24,35,41,26,2.502764521
16.009947,52,6,-1,-10,-86,-13,8,23,2.502764521
16.009976,-12,-15,-1,28,127,-37,31,19,2.502764521
16.010600,-13,3,5,-33,-115,19,-5,-12,2.502764521
16.010621,-3,29,1,13,-5,-36,-46,-8,2.502764521
16.024970,-121,-1,2,-4,58,30,8,-14,2.502764521
16.025049,83,3,-8,-9,-52,2,38,-21,2.502764521
16.026668,21,8,-4,7,6,-35,-23,97,2.502764521
16.026673,-54,-4,2,-15,-29,44,43,40,2.502764521
16.047243,16,22,2,13,-12,-22,-24,-24,2.502764521
16.047266,-72,-4,2,-3,1,-20,9,-45,2.502764521
16.049002,71,-3,8,10,-102,-69,-3,-17,2.502764521
16.049008,-42,-25,-9,-19,-44,84,1,-7,2.502764521
16.070217,30,-7,1,53,-10,-45,3,-4,2.502764521
16.070240,0,-6,1,-9,-81,22,25,12,2.502764521
16.070973,9,-9,-4,27,22,-6,21,-38,2.502764521
16.070994,-38,24,5,0,73,-7,-29,-3,2.502764521
16.084813,13,-4,3,-33,-13,-26,-10,1,2.502764521
16.084843,0,-32,-9,-9,-10,-6,-30,5,2.502764521
16.085744,-6,-26,-4,46,78,47,1,-17,2.502764521
16.085765,-16,14,3,-24,-53,-39,-22,21,2.502764521
16.107258,-1,-8,-7,-8,-60,22,22,-58,2.502764521
16.107280,35,17,9,-14,52,-33,-22,72,2.502764521
16.109945,-43,30,2,-5,-24,92,30,29,2.502764521
16.109951,10,-7,9,36,-26,-61,-37,72,2.502764521
16.129797,33,-39,-26,-24,-57,-27,-16,-6,2.471483574
16.129824,-9,1,-3,-9,-74,-8,-11,-64,2.471483574
16.131367,-48,8,6,10,24,-8,11,25,2.471483574
16.131378,-9,-5,6,16,-29,-63,17,-44,2.471483574
16.147652,-18,29,-9,-16,-5,94,-25,32,2.471483574
16.147665,-1,-24,-1,19,47,37,9,-31,2.471483574
16.147667,11,24,3,-46,-88,-25,-34,-10,2.471483574
16.147670,-74,-11,-1,31,69,43,-7,-38,2.471483574
16.167282,16,17,2,-2,54,-49,4,-8,2.471483574
16.167307,11,2,-5,-11,32,4,30,2,2.471483574
16.169215,-5,1,1,18,11,18,-38,-21,2.471483574
16.169221,-9,-45,-2,-11,-67,-25,18,6,2.471483574
16.189833,10,19,9,-36,-55,-11,-12,-10,2.471483574
16.189864,-13,-3,-5,34,89,-2,-4,-27,2.471483574
16.192308,-29,-14,-1,42,88,-36,3,37,2.471483574
16.192316,33,20,0,-32,-77,20,4,-3,2.471483574
16.204627,57,-4,-4,-18,-17,-38,-8,3,2.471483574
16.204658,-50,-14,-3,-16,-10,5,9,58,2.471483574
16.208024,19,9,-1,-11,-34,-41,-17,-64,2.471483574
16.208035,-67,13,2,2,93,-80,27,16,2.471483574
16.227323,71,-15,-7,-3,-71,70,-1,85,2.471483574
16.227361,-26,6,4,-13,47,-46,6,13,2.471483574
16.228069,40,6,-11,-12,-49,-20,-4,-11,2.471483574
16.228112,-36,10,0,-3,81,29,1,-6,2.471483574
16.249580,-12,10,12,36,70,3,28,25,2.471483574
16.249598,32,-3,-4,2,-16,14,-18,33,2.471483574
16.251172,21,10,2,2,3,20,14,5,2.471483574
16.251185,-20,19,7,-17,-46,-4,-11,-9,2.471483574
16.264687,-26,-21,3,45,106,-49,4,-56,2.471483574
16.264715,41,-13,-27,-33,-65,66,-12,42,2.471483574
16.267193,0,15,5,-15,-10,-8,-2,3,2.471483574
16.267201,19,3,-9,-12,-32,18,8,-20,2.471483574
16.287142,-34,-6,-1,19,69,-52,-15,2,2.471483574
16.287149,-12,11,12,-12,-94,42,1,10,2.471483574
16.287893,4,1,-7,4,11,20,24,-46,2.471483574
16.287971,45,12,1,5,7,-12,-25,21,2.471483574
16.309799,-105,-6,3,6,23,10,11,-8,2.471483574
16.309822,69,28,15,-13,-79,-72,-4,-13,2.471483574
16.312247,-49,-63,-25,25,97,44,-17,-47,2.471483574
16.312261,32,29,-3,-6,-52,-51,0,-17,2.471483574
16.324788,2,-24,1,-21,28,60,9,-48,2.471483574
16.324812,-71,-49,-7,12,123,74,0,-18,2.471483574
16.326353,3,8,5,-13,-128,-52,19,-11,2.471483574
16.326365,10,-9,1,11,108,54,14,-3,2.471483574
16.348447,-23,9,0,-1,-50,-28,-6,-17,2.471483574
16.348459,-1,26,3,10,7,-37,4,-5,2.471483574
16.348462,22,-9,3,0,34,26,-4,10,2.471483574
16.348464,-94,-8,5,-29,-79,12,-10,10,2.471483574
16.370130,119,-3,-17,25,-15,-83,7,8,2.471483574
16.370146,-44,-8,-11,-33,111,-54,-2,-31,2.471483574
16.372006,-13,-8,-2,-5,-82,48,32,17,2.471483574
16.372019,23,1,-10,-21,59,58,-16,-18,2.471483574
16.384866,-76,-10,-1,-1,-35,44,32,-3,2.489307541
16.384882,-31,13,3,12,-43,-90,-30,2,2.489307541
16.386640,48,6,-1,-11,10,-21,-3,5,2.489307541
16.386647,-29,0,-1,5,-14,-2,4,-5,2.489307541
16.407538,10,7,6,-4,16,5,4,-13,2.489307541
16.407570,39,-6,-3,18,13,2,-8,-10,2.489307541
16.410281,-20,15,5,-10,-8,-3,-3,32,2.489307541
16.410293,37,-10,2,20,1,3,7,48,2.489307541
16.429723,-2,12,8,2,-7,-22,-3,58,2.489307541
16.429750,-75,39,14,10,-57,-34,-26,-8,2.489307541
16.430604,65,-51,-24,-11,49,96,-22,7,2.489307541
16.430624,23,19,-12,-18,-26,-75,-15,-66,2.489307541
16.444877,-15,-42,-6,-26,-73,80,-3,11,2.489307541
16.444894,-2,28,12,25,-74,1,25,36,2.489307541
16.446868,3,4,9,23,103,41,-12,-1,2.489307541
16.446880,18,-4,-3,-6,-16,-64,-11,20,2.489307541
16.467463,-24,22,1,-23,15,-13,-6,-30,2.489307541
16.467495,33,-5,5,8,-6,-61,-5,-4,2.489307541
16.469919,26,48,3,19,-106,4,58,-21,2.489307541
16.469927,-85,-26,-5,-29,67,49,9,-55,2.489307541
16.489773,70,1,-3,-4,34,6,-6,-25,2.489307541
16.489783,-70,0,-1,3,13,7,2,-6,2.489307541
16.490414,88,-39,-14,-10,16,-43,-11,-18,2.489307541
16.490448,15,-14,10,27,32,15,17,18,2.489307541
16.504777,-40,-12,-1,-1,-48,-38,-2,38,2.489307541
16.504794,14,-8,-11,-13,0,12,-26,-46,2.489307541
16.506118,-58,17,3,-22,-26,-21,-12,53,2.489307541
16.506131,47,-11,2,29,-11,1,6,-12,2.489307541
16.527363,-4,17,2,7,25,-35,4,-2,2.489307541
16.527448,55,3,0,8,13,52,3,47,2.489307541
16.530293,-59,39,7,0,49,20,-3,8,2.489307541
16.530304,-6,-41,-7,2,-36,12,38,108,2.489307541
16.549633,9,10,8,-24,2,-82,-2,-7,2.489307541
16.549644,32,-16,-21,-8,66,103,-28,-4,2.489307541
16.550303,22,38,12,25,22,-128,31,-1,2.489307541
16.550311,10,-12,-5,-3,-10,78,-28,-27,2.489307541
16.565169,-80,-19,1,-3,-42,29,-7,-7,2.489307541
16.565182,109,-21,-14,-21,-25,-1,22,-10,2.489307541
16.565385,-37,-25,-1,-12,-6,-42,-17,-30,2.489307541
16.565418,-10,13,0,3,-12,-37,-22,-18,2.489307541
16.587246,13,10,-5,-3,-18,-18,-15,-60,2.489307541
16.587264,-43,-4,3,3,-16,-19,1,-21,2.489307541
16.588267,4,-2,-2,9,24,47,16,44,2.489307541
16.588273,-22,18,1,4,3,-13,-18,-5,2.489307541
16.612579,10,7,1,-22,47,-1,4,-13,2.489307541
16.612601,-27,18,3,16,21,7,-9,-35,2.489307541
16.612606,15,-8,3,-13,-18,75,23,50,2.489307541
16.612611,42,-12,4,0,13,-51,-5,-10,2.489307541
16.626187,-59,-11,-22,-2,63,-54,-28,-10,2.489307541
16.626203,22,-23,2,-2,-17,-9,29,2,2.489307541
16.626209,54,-11,8,5,-35,-30,-1,7,2.489307541
16.626214,2,-9,-7,4,20,-32,6,-18,2.489307541
16.647339,32,-22,-5,9,-25,77,-9,23,2.480573568
16.647484,-57,-3,-2,-11,-51,-8,15,-70,2.480573568
16.648121,-14,21,-6,-13,-18,-5,-14,10,2.480573568
16.648141,-26,8,-4,-16,-48,-63,-11,-19,2.480573568
16.669548,37,51,4,12,20,67,1,35,2.480573568
16.669569,-68,-51,0,2,-37,-21,7,18,2.480573568
16.670623,-12,-3,8,11,-85,-67,4,5,2.480573568
16.670636,-15,28,-23,-35,42,19,-50,-30,2.480573568
16.684096,6,8,16,11,28,-1,2,39,2.480573568
16.684116,-4,2,4,11,45,45,5,42,2.480573568
16.692615,17,-6,-5,-16,-76,21,5,-23,2.480573568
16.692638,-11,-11,-2,10,62,-38,-27,4,2.480573568
16.707033,51,38,0,0,-18,72,3,-20,2.480573568
16.707065,-75,-7,-7,-20,-30,-14,-8,27,2.480573568
16.707931,-5,-14,-8,-11,9,-42,-25,-31,2.480573568
16.707962,1,-13,5,7,-62,40,29,-17,2.480573568
16.729747,-44,21,6,17,21,20,19,6,2.480573568
16.729773,10,15,1,2,14,-35,-13,19,2.480573568
16.731417,-66,1,-6,13,26,-14,-7,-18,2.480573568
16.731424,34,-7,2,-1,52,92,3,65,2.480573568
16.744369,-48,4,11,1,-123,-128,17,27,2.480573568
16.744394,57,4,-7,-6,-2,104,-4,-54,2.480573568
16.752355,-74,20,-12,-56,6,-11,-33,-38,2.480573568
16.752377,-41,-21,0,23,-30,-19,15,13,2.480573568
16.767116,59,-31,-3,2,40,-37,-14,-20,2.480573568
16.767127,-11,16,11,35,12,40,15,-6,2.480573568
16.767899,31,4,-2,-28,120,37,-10,18,2.480573568
16.768000,-29,-6,-1,-15,-48,-17,-13,-24,2.480573568
16.789721,-30,-30,-11,-15,3,-2,-10,-38,2.480573568
16.789744,20,-2,5,-2,-74,-55,-1,17,2.480573568
16.791808,-24,9,0,38,41,4,6,0,2.480573568
16.791814,59,18,14,2,13,49,9,59,2.480573568
16.804361,-61,7,-3,0,120,63,-11,1,2.480573568
16.804376,64,-12,-11,-20,39,-103,2,8,2.480573568
16.814152,-7,14,6,42,-19,1,4,46,2.480573568
16.814166,5,-24,6,-9,-38,-104,33,-63,2.480573568
16.829506,28,-12,-16,23,80,84,-48,-2,2.480573568
16.829521,-33,5,-4,-31,22,0,14,-16,2.480573568
16.829524,-17,-42,-9,-16,-38,-6,-6,17,2.480573568
16.829526,104,38,5,9,-1,-35,28,7,2.480573568
16.849758,-49,1,1,9,-55,8,-5,-8,2.480573568
16.849782,18,15,7,2,10,-19,-14,3,2.480573568
16.850714,-35,-20,1,21,63,14,-19,-63,2.480573568
16.850723,-16,-24,-7,-23,-84,35,0,21,2.480573568
16.864214,11,-13,-1,-8,5,-27,19,-4,2.480573568
16.864242,13,23,3,-3,-10,19,-1,71,2.480573568
16.872868,10,17,9,14,60,-21,12,-14,2.480573568
16.872908,-82,12,0,-16,-75,44,-12,-27,2.480573568
16.887387,25,-3,-5,-30,-86,-23,2,-24,2.480573568
16.887412,9,-4,-6,20,127,-37,-7,-7,2.480573568
16.888706,32,1,2,-3,-101,-15,-17,15,2.480573568
16.888719,-29,-43,-8,16,103,-17,-16,3,2.480573568
16.909939,27,-1,-1,-19,-48,58,-7,-40,2.435146119
16.909962,-74,27,10,0,-10,-62,20,51,2.435146119
16.910592,92,1,0,0,-43,81,-17,71,2.435146119
16.910612,62,-16,-20,-9,43,11,-16,-26,2.435146119
16.924312,-57,17,10,14,-38,-47,20,17,2.435146119
16.924357,-7,-1,5,-18,-44,14,-10,-24,2.435146119
16.932249,-26,-29,-3,24,22,-1,5,-24,2.435146119
16.932270,-12,-7,5,1,-28,-38,17,24,2.435146119
16.947359,30,-9,-10,-17,-24,62,9,1,2.435146119
16.947380,21,-22,-6,4,-55,-37,-7,-31,2.435146119
16.948374,5,27,-1,-19,-21,26,-1,-17,2.435146119
16.948383,-9,5,6,8,37,-16,15,11,2.435146119
16.970479,9,9,4,-3,-127,-128,-15,-13,2.435146119
16.970490,26,-18,-16,-9,103,127,1,-31,2.435146119
16.970493,60,15,-1,23,-41,-63,7,20,2.435146119
16.970495,-39,-27,-2,0,-17,-20,-39,-54,2.435146119
16.984488,-10,5,-7,-29,76,-29,39,17,2.435146119
16.984519,41,24,3,2,-35,1,4,16,2.435146119
16.992133,-89,-20,3,-7,-15,-17,-26,29,2.435146119
16.992152,-9,61,-1,9,-11,33,13,-33,2.435146119
17.007512,71,-14,6,26,35,-26,-24,29,2.435146119
17.007537,-4,-18,2,-1,-21,-1,13,54,2.435146119
17.009540,80,-25,-15,-12,14,4,7,-74,2.435146119
17.009546,-3,49,8,-37,-114,-23,-3,32,2.435146119
17.031762,-40,-34,-2,68,113,28,-6,-14,2.435146119
17.031805,7,45,9,-7,-70,41,24,-62,2.435146119
17.031808,-35,9,4,-3,1,-31,-19,-21,2.435146119
17.031811,-7,-4,-14,-31,-84,-57,8,-5,2.435146119
17.044274,-29,32,3,-1,27,28,5,20,2.435146119
17.044296,94,-40,-6,19,5,-18,9,-14,2.435146119
17.052693,-54,14,-6,-64,69,32,30,12,2.435146119
17.054317,-75,-15,-2,31,74,-30,-38,20,2.435146119
17.067344,60,-30,-8,-29,-3,19,-15,-36,2.435146119
17.067363,-19,18,2,35,-12,-26,15,59,2.435146119
17.068008,-26,19,3,-19,-61,-102,-24,-2,2.435146119
17.068050,-10,28,5,13,50,52,-9,29,2.435146119
17.090055,37,2,0,5,-18,-7,22,7,2.435146119
17.090086,-26,-10,-2,-4,-6,-18,-39,-26,2.435146119
17.092336,39,11,4,13,8,27,9,8,2.435146119
17.092342,-3,-1,8,-4,-69,7,16,39,2.435146119
17.112976,-34,-9,-3,23,75,21,-13,9,2.435146119
17.112997,0,-7,-4,-30,3,21,-7,-9,2.435146119
17.113856,-39,-15,-6,1,-69,74,26,34,2.435146119
17.113912,27,-14,-2,13,13,-11,-2,-4,2.435146119
17.127405,30,-45,-13,-36,-18,-11,-17,-15,2.435146119
17.127420,-15,6,3,2,12,-37,-33,2,2.435146119
17.128343,-68,5,21,25,-75,-3,33,10,2.435146119
17.128371,80,-17,-8,-14,93,-58,-1,10,2.435146119
17.149794,-48,-15,-19,8,-53,-13,-13,-72,2.449761319
17.149812,-12,11,7,35,92,35,0,18,2.449761319
17.151199,12,-25,-2,-11,-93,-94,39,-14,2.449761319
17.151211,6,71,6,-22,10,127,18,26,2.449761319
17.174448,-27,7,-1,7,23,15,7,48,2.449761319
17.174456,-1,-37,-4,4,32,-27,-6,-33,2.449761319
17.174459,-6,-20,-2,-4,-34,-6,14,-14,2.449761319
17.174461,0,-14,1,31,37,6,-5,-27,2.449761319
17.189232,-25,35,5,-20,-56,-16,12,-2,2.449761319
17.189238,-16,10,2,-9,-59,-17,-6,0,2.449761319
17.189241,1,-6,0,8,75,19,-17,2,2.449761319
17.189243,44,-27,-6,1,-30,-3,18,11,2.449761319
17.209983,-57,30,9,4,-10,-2,-25,27,2.449761319
17.210005,94,-30,-18,-40,-113,8,-3,-11,2.449761319
17.211156,-17,-14,-8,2,7,-16,-8,-44,2.449761319
17.211163,-54,-22,-2,23,-8,72,6,-17,2.449761319
17.234349,-14,23,9,-13,63,33,-11,15,2.449761319
17.234368,-68,13,3,-9,108,31,18,18,2.449761319
17.234370,24,-1,-2,3,3,10,-18,15,2.449761319
17.234373,4,-12,1,-3,-38,-37,1,-9,2.449761319
17.247338,10,-8,6,3,-87,-14,18,24,2.449761319
17.247358,-11,40,-3,4,52,-18,-19,-14,2.449761319
17.249577,39,-27,1,8,74,38,28,10,2.449761319
17.249590,-45,-6,-7,-39,-105,-66,-28,-65,2.449761319
17.269685,55,22,8,64,67,-80,17,80,2.449761319
17.269703,-22,-24,-12,-11,-107,0,16,47,2.449761319
17.270400,8,12,-4,-15,32,34,-27,-11,2.449761319
17.270417,-18,42,4,9,4,-21,17,-8,2.449761319
17.293599,34,-10,2,7,14,-54,17,-20,2.449761319
17.293631,-46,-6,0,-17,37,35,-15,2,2.449761319
17.295807,37,14,6,-6,18,-36,8,-18,2.449761319
17.295827,-13,-9,9,28,25,5,7,61,2.449761319
17.307491,-26,2,-4,-13,12,15,11,33,2.449761319
17.307525,-70,-11,-9,-9,-96,-35,-17,-51,2.449761319
17.309030,59,-57,-17,-17,-36,-60,-81,6,2.449761319
17.309040,-57,-27,-9,-6,39,-2,-9,-34,2.449761319
17.329894,-21,3,-2,-7,-10,-20,-3,-4,2.449761319
17.330101,6,25,17,26,-6,-28,27,8,2.449761319
17.330569,-30,-6,-2,-24,-5,50,6,-3,2.449761319
17.330583,26,31,4,23,-84,-5,4,21,2.449761319
17.353329,12,-12,-2,-7,60,4,-17,72,2.449761319
17.353363,-3,-13,2,6,-8,-75,15,14,2.449761319
17.355633,-50,8,-1,9,-19,32,-1,-52,2.449761319
17.355639,71,-3,0,-5,23,-32,-16,38,2.449761319
17.367394,31,-8,-1,-24,-78,-5,-9,-8,2.449761319
17.367425,44,-42,-13,-3,8,-15,-26,-26,2.449761319
17.370328,4,-18,-5,15,27,15,11,49,2.449761319
17.370334,-16,8,0,-19,-20,3,11,-41,2.449761319
17.390793,-41,2,-5,-4,21,-4,-9,-99,2.449761319
17.390800,18,13,0,-5,-38,-13,-4,18,2.449761319
17.390802,-6,33,10,-1,-45,50,13,-21,2.449761319
17.390805,27,-18,-5,11,65,-77,0,26,2.449761319
17.412873,-14,-15,0,9,51,51,-19,-66,2.451861436
17.412897,-7,22,17,1,-110,0,50,12,2.451861436
17.415270,61,28,0,9,100,-104,7,-27,2.451861436
17.415289,-80,-33,-10,6,-65,82,-15,-28,2.451861436
17.427335,13,11,0,13,-61,-36,16,2,2.451861436
17.427353,22,-27,-10,-16,-65,37,-19,-63,2.451861436
17.430143,-75,22,3,-20,-4,1,-28,-15,2.451861436
17.430155,35,0,1,8,66,72,5,-14,2.451861436
17.449898,-11,1,-4,-20,-64,-58,12,14,2.451861436
17.449923,-35,0,3,10,40,1,-3,0,2.451861436
17.452448,-14,-28,-3,6,21,-11,-8,49,2.451861436
17.452461,-8,9,3,-9,-9,3,6,-23,2.451861436
17.473146,-24,-4,-1,-3,-68,46,1,52,2.451861436
17.473173,29,2,-5,-25,81,-33,-3,2,2.451861436
17.473676,-9,-13,0,57,36,17,4,-6,2.451861436
17.473698,25,28,-2,-24,-110,25,41,4,2.451861436
17.487200,-10,-28,-3,2,-2,57,-21,-31,2.451861436
17.487217,-9,9,10,-3,-95,-73,27,26,2.451861436
17.487807,43,17,-4,-4,2,60,26,63,2.451861436
17.487821,-54,-76,-12,-26,-1,-60,-21,-6,2.451861436
17.509862,-35,5,-6,-24,26,-16,-10,-24,2.451861436
17.509893,63,11,-4,35,90,3,-16,-4,2.451861436
17.511774,-7,-11,3,-7,-57,-13,30,-45,2.451861436
17.511781,-8,29,0,-3,-31,6,-37,9,2.451861436
17.533308,-26,-3,4,-2,-12,4,8,45,2.451861436
17.533350,-69,-18,-7,-11,31,11,-10,12,2.451861436
17.533976,44,20,2,-8,-5,16,5,12,2.451861436
17.534013,47,1,-2,27,74,-68,-8,-4,2.451861436
17.547191,18,-4,-1,0,19,50,-4,-28,2.451861436
17.547217,-38,16,4,2,-9,-41,-20,26,2.451861436
17.549166,-23,2,9,-3,-112,-29,4,-7,2.451861436
17.549176,2,17,5,4,3,59,-27,4,2.451861436
17.569943,40,-24,-19,-51,-108,-40,-36,-29,2.451861436
17.569966,-58,-2,1,34,54,-7,36,54,2.451861436
17.571999,42,34,-6,3,79,-15,-33,13,2.451861436
17.572005,17,10,1,-9,9,4,-20,10,2.451861436
17.594222,-73,27,11,10,-52,-62,21,-40,2.451861436
17.594229,55,-41,-16,-23,35,100,-4,-51,2.451861436
17.594231,-72,2,-6,-15,-17,-100,-17,-74,2.451861436
17.594233,5,-7,1,11,2,1,23,12,2.451861436
17.610204,-9,-9,3,-1,35,12,12,-20,2.451861436
17.610217,3,21,-4,-3,-75,-23,-12,10,2.451861436
17.610220,-21,-1,3,15,96,25,3,71,2.451861436
17.610222,-53,9,-2,-34,28,73,19,-43,2.451861436
17.630014,102,9,-6,15,-13,-31,-15,15,2.451861436
17.630048,-16,-19,-7,0,13,20,12,-17,2.451861436
17.631349,-2,-2,-2,17,-41,-81,-32,-10,2.451861436
17.631359,-35,8,7,-4,96,-88,-21,19,2.451861436
17.653316,-34,25,4,-11,-22,6,8,21,2.451861436
17.653350,27,23,-2,-6,-25,-7,17,-26,2.451861436
17.655405,-7,-9,-3,-11,-117,23,-37,67,2.451861436
17.655413,-9,-5,-3,7,-47,-55,31,49,2.451861436
17.666695,63,1,1,7,95,48,6,-33,2.451901997
17.666713,-23,-13,-1,-8,-88,-28,-30,2,2.451901997
17.675081,17,-24,-8,-8,-49,-22,0,-54,2.451901997
17.675099,21,7,2,-12,-38,22,13,1,2.451901997
17.690006,22,-12,-7,18,54,12,-3,90,2.451901997
17.690029,-56,-20,3,33,69,25,20,20,2.451901997
17.690332,-11,-4,-7,-17,22,-14,5,2,2.451901997
17.690352,7,-11,-2,-3,-45,81,1,-3,2.451901997
17.713037,-34,50,8,29,41,74,19,-25,2.451901997
17.713062,5,-10,3,-27,105,-33,-65,-35,2.451901997
17.714406,-3,-17,-9,-4,113,57,67,5,2.451901997
17.714415,8,-6,-8,-12,9,-32,4,-33,2.451901997
17.727012,-8,-5,2,-12,-35,4,1,7,2.451901997
17.727042,24,30,5,22,-7,-40,5,31,2.451901997
17.734900,-30,28,-2,0,-24,-53,-14,-21,2.451901997
17.734924,19,-18,-4,-22,-35,41,22,6,2.451901997
17.749712,-7,-34,-2,14,36,-54,16,66,2.451901997
17.749724,85,0,-7,-4,-1,23,5,-27,2.451901997
17.750363,35,-10,-3,-10,-65,-5,-7,-42,2.451901997
17.750370,22,9,7,21,14,-42,8,36,2.451901997
17.773273,2,19,3,3,-93,-57,-15,-44,2.451901997
17.773304,-90,41,6,-25,21,14,1,18,2.451901997
17.775460,-34,-32,-1,6,41,31,37,-34,2.451901997
17.775466,4,-4,-2,28,-9,-73,-28,-37,2.451901997
17.787181,-16,-18,-3,3,15,-22,12,-25,2.451901997
17.787213,0,-8,11,6,18,-89,14,16,2.451901997
17.795307,47,30,0,11,65,80,-27,-20,2.451901997
17.797090,4,-7,-14,-33,-27,-19,-8,37,2.451901997
17.813379,-21,-42,-10,-9,-67,-10,-4,4,2.451901997
17.813392,20,28,2,-11,-22,18,3,-4,2.451901997
17.813395,5,9,12,25,2,-10,-10,24,2.451901997
17.813398,-12,14,1,-2,-40,-31,1,-6,2.451901997
17.833004,-38,11,1,19,21,-2,10,-8,2.451901997
17.833042,-58,-15,-7,-8,-59,31,-25,11,2.451901997
17.833716,-31,22,3,-8,6,23,9,78,2.451901997
17.833738,39,-46,-8,31,108,-44,11,16,2.451901997
17.846701,1,-17,0,-41,4,71,18,-17,2.451901997
17.846719,-11,19,-4,-4,-19,18,-2,-10,2.451901997
17.855719,-45,-8,-4,-11,-105,-4,-11,-16,2.451901997
17.855747,-44,0,1,34,87,-23,-26,-54,2.451901997
17.869801,22,17,-1,-17,-42,-89,-4,-4,2.451901997
17.869818,-19,-22,-7,10,46,51,22,-5,2.451901997
17.872271,23,-7,-5,-13,34,92,26,11,2.451901997
17.872283,11,20,11,-7,-90,-24,11,-4,2.451901997
17.893535,19,9,15,25,-55,12,0,17,2.451901997
17.893563,32,-19,-19,-34,-58,44,-75,-51,2.451901997
17.893963,-43,-79,-30,-45,-101,-114,-17,-47,2.451901997
17.893984,63,-10,-6,14,100,122,-10,11,2.451901997
17.906644,-1,8,-3,1,-26,-49,-4,38,2.451901997
17.906680,-14,-1,15,19,23,-39,25,-2,2.451901997
17.914948,-21,11,7,11,16,16,2,-42,2.464236812
17.914966,-11,13,5,-11,-36,0,-6,-6,2.464236812
17.929854,-2,-9,2,-2,22,34,20,-5,2.464236812
17.929880,12,-2,3,11,0,-40,-1,4,2.464236812
17.931717,19,0,-2,-13,-12,-22,-14,-13,2.464236812
17.931729,-25,6,-1,11,1,6,16,-12,2.464236812
17.953346,9,6,0,29,-34,-122,-51,-18,2.464236812
17.953352,27,-14,-3,-45,-10,112,45,-3,2.464236812
17.953532,39,18,11,-25,-115,-103,0,57,2.464236812
17.953539,-95,12,18,68,84,127,51,39,2.464236812
17.967809,50,-59,-29,-65,-24,64,-41,-58,2.464236812
17.967820,51,-24,-7,48,-9,-95,-41,-10,2.464236812
17.974930,-23,-3,-4,-19,-48,-23,-7,0,2.464236812
17.976636,-14,0,2,-19,-49,-74,8,-4,2.464236812
17.990042,-26,23,7,5,61,18,11,16,2.464236812
17.990063,-2,5,3,5,-36,2,11,12,2.464236812
17.992542,17,37,4,20,90,14,-9,-31,2.464236812
17.992549,-1,1,-1,-4,24,-17,-35,16,2.464236812
18.013143,-12,-2,-4,-9,-6,24,44,66,2.464236812
18.013163,39,4,-5,-13,-45,-17,-18,21,2.464236812
18.015549,-12,19,10,19,-31,-53,-9,42,2.464236812
18.015566,-52,-37,-9,7,74,28,-22,-14,2.464236812
18.035639,39,-20,1,-8,-81,3,49,46,2.464236812
18.035718,30,6,-3,-59,33,-80,2,71,2.464236812
18.036199,-58,-33,-15,64,7,7,-13,-33,2.464236812
18.036275,87,-1,-12,-17,-25,77,15,-18,2.464236812
18.049703,-18,-10,0,8,-25,-21,-15,-16,2.464236812
18.049791,-5,23,3,7,-17,-49,13,7,2.464236812
18.050596,-18,50,10,17,-34,-26,13,-12,2.464236812
18.050616,-29,-15,4,-40,12,0,-1,18,2.464236812
18.073191,-50,19,-4,3,11,23,-7,-65,2.464236812
18.073223,-5,-6,5,11,18,47,9,26,2.464236812
18.074886,69,-25,-10,-25,71,16,-15,20,2.464236812
18.074898,51,-8,-5,20,-76,-53,2,26,2.464236812
18.095970,44,24,2,4,37,12,-2,-29,2.464236812
18.095986,-41,29,-2,-2,60,-20,-10,-17,2.464236812
18.096186,-13,-16,-1,-15,59,68,-18,-21,2.464236812
18.096194,-8,38,3,-14,6,-105,-25,-10,2.464236812
18.110758,-11,-13,2,13,83,38,42,-8,2.464236812
18.110772,0,3,-1,-1,-85,93,34,9,2.464236812
18.110778,21,6,-10,22,-24,50,-26,-2,2.464236812
18.110783,-30,-23,-4,-44,9,15,-44,-20,2.464236812
18.133091,13,9,-3,-4,-27,-10,2,12,2.464236812
18.133111,-33,-23,5,30,67,-41,-2,13,2.464236812
18.134396,38,0,1,-11,-37,0,19,26,2.464236812
18.134408,20,-2,-1,10,-16,-17,7,54,2.464236812
18.157652,-27,19,2,-3,-10,-15,-16,44,2.464236812
18.157660,0,-46,-4,3,-28,12,-13,-34,2.464236812
18.157662,-77,14,8,-3,35,-36,-16,-5,2.464236812
18.157665,-91,3,-1,-10,-63,37,18,-9,2.464236812
18.170120,77,8,11,14,-11,-13,-24,-36,2.456972025
18.170171,-17,-39,-25,-23,-77,-83,-8,-17,2.456972025
18.172364,79,-18,-2,11,127,34,-22,-16,2.456972025
18.172374,7,6,3,-21,61,55,24,51,2.456972025
18.193541,-47,4,-6,7,-76,15,-3,-16,2.456972025
18.193572,-58,62,11,-13,104,-23,3,-16,2.456972025
18.194151,24,-8,2,-4,-39,-3,32,23,2.456972025
18.194168,37,14,-10,-1,-63,-14,-10,-17,2.456972025
18.215580,-9,-8,-5,-11,54,-32,-8,-27,2.456972025
18.217219,44,0,9,14,-3,25,-3,3,2.456972025
18.217232,-58,6,2,11,2,-64,24,32,2.456972025
18.217235,9,20,2,-1,-48,-5,12,19,2.456972025
18.229901,38,-1,3,-8,17,22,-1,-10,2.456972025
18.229930,-44,-11,6,14,2,-44,-6,-51,2.456972025
18.232235,55,-18,0,-15,-56,31,44,-24,2.456972025
18.232243,-24,32,7,10,-91,17,23,-15,2.456972025
18.252958,28,-33,-11,3,87,25,-83,-32,2.456972025
18.252993,9,-1,-2,-4,-13,36,48,7,2.456972025
18.253686,17,0,-2,7,61,5,0,8,2.456972025
18.253721,46,-25,-4,-15,-75,-11,5,-19,2.456972025
18.275850,-40,31,-5,-10,91,26,5,8,2.456972025
18.275879,-14,8,2,8,0,15,-6,-13,2.456972025
18.278072,-38,-3,0,-3,-23,-16,-11,19,2.456972025
18.278085,23,-4,5,10,9,-45,10,-72,2.456972025
18.290120,-16,-11,-3,-6,-12,0,-4,-45,2.456972025
18.290151,-24,2,-9,2,-34,33,-15,69,2.456972025
18.291617,-47,-2,1,-13,-33,-14,-3,2,2.456972025
18.291629,47,29,-5,5,20,-8,-19,-21,2.456972025
18.313270,-16,-32,-5,-19,-114,-40,6,85,2.456972025
18.313287,52,25,0,22,103,-42,-21,5,2.456972025
18.313859,-9,-15,-4,-31,81,29,-7,-28,2.456972025
18.313876,-3,21,13,5,40,-39,22,21,2.456972025
18.335470,-97,23,4,9,120,64,-22,-8,2.456972025
18.335495,90,-46,-14,-17,-97,-3,2,26,2.456972025
18.337424,-13,48,-3,-1,-50,0,-20,-53,2.456972025
18.337432,44,-44,0,-2,-59,-119,-7,50,2.456972025
18.349951,-81,-12,-3,7,39,89,37,-26,2.456972025
18.349982,4,30,6,-9,-44,-6,-11,-33,2.456972025
18.352202,12,-25,-8,18,49,-23,0,6,2.456972025
18.352215,61,-8,-5,2,-57,4,-1,-1,2.456972025
18.374353,43,5,4,-2,-42,-44,3,31,2.456972025
18.374371,-17,0,5,10,-3,23,0,50,2.456972025
18.374376,14,3,3,-6,-22,4,5,16,2.456972025
18.374381,-47,-15,-6,4,127,20,-25,-64,2.456972025
18.395753,81,-19,0,-2,-19,-20,11,38,2.456972025
18.395779,-28,1,3,-2,-64,19,-27,-49,2.456972025
18.398262,-13,6,2,19,-65,-8,40,79,2.456972025
18.398278,6,-4,-1,-12,-16,48,-35,-5,2.456972025
18.409999,7,-26,-18,8,81,-71,1,-26,2.456972025
18.410025,2,8,-5,-9,-28,-33,9,-2,2.456972025
18.411738,5,7,0,-13,19,43,17,-6,2.456972025
18.411747,-69,9,3,18,25,25,4,52,2.456972025
18.432985,-58,-25,0,-8,-90,-37,-18,-58,2.432744052
18.433005,50,-2,4,0,-33,-55,11,7,2.432744052
18.435711,-51,-40,-16,-26,0,32,-25,-72,2.432744052
18.435720,2,9,-2,6,-43,34,35,2,2.432744052
18.455644,23,25,5,-6,-21,30,5,23,2.432744052
18.455667,-63,-1,8,16,18,-18,12,1,2.432744052
18.456305,63,-7,3,8,-24,-58,-18,-14,2.432744052
18.456325,14,-32,-6,-13,4,10,-14,-4,2.432744052
18.469835,-13,6,-3,2,-50,4,-14,-3,2.432744052
18.469854,-15,-25,-4,-2,26,-16,-14,-7,2.432744052
18.470369,-41,31,14,32,59,35,41,9,2.432744052
18.470395,16,4,-4,-20,-43,56,0,8,2.432744052
18.493326,-92,-47,-16,34,75,-22,-14,-6,2.432744052
18.493350,-16,-18,-9,-58,7,60,2,-46,2.432744052
18.496454,3,14,-1,-17,-51,-52,-47,58,2.432744052
18.496469,-54,-3,0,14,95,-18,14,-10,2.432744052
18.515548,-17,19,16,-19,-23,-11,28,107,2.432744052
18.515567,109,9,-6,47,77,40,-11,-53,2.432744052
18.516361,2,-25,-11,-13,-31,-38,-7,-13,2.432744052
18.516377,-16,16,-3,-26,-64,-19,-4,-48,2.432744052
18.530206,27,2,9,27,19,-14,-3,10,2.432744052
18.530257,-59,-1,-4,1,65,72,-9,-26,2.432744052
18.530455,49,5,5,-4,-25,-26,3,34,2.432744052
18.530462,15,-10,-3,1,-85,-46,-13,-15,2.432744052
18.553231,61,22,0,-13,38,52,10,-34,2.432744052
18.553254,-65,-5,-2,-16,-1,-67,0,16,2.432744052
18.555671,-27,-12,-8,8,123,68,-20,-62,2.432744052
18.555684,14,0,-3,14,-34,-33,-9,57,2.432744052
18.576566,14,9,6,36,-32,-62,10,-49,2.432744052
18.576573,-5,21,9,-38,-95,-98,-9,37,2.432744052
18.576576,-63,-40,-6,-15,26,54,13,1,2.432744052
18.576578,22,2,-9,-13,46,7,3,3,2.432744052
18.589341,17,-5,0,-16,-58,-62,-22,26,2.432744052
18.589372,52,-24,-10,3,-5,43,-7,23,2.432744052
18.599918,39,19,0,15,47,-91,-7,-36,2.432744052
18.599938,-14,3,6,-2,13,20,6,14,2.432744052
18.613285,-21,2,0,-8,-42,0,2,-26,2.432744052
18.613310,-31,15,8,22,17,62,13,-15,2.432744052
18.614909,-14,-2,2,-2,-62,13,8,32,2.432744052
18.614923,-17,-9,-4,-45,-66,-13,-13,-53,2.432744052
18.635640,48,5,-2,51,68,4,22,3,2.432744052
18.635666,-45,-12,-2,3,-17,54,4,29,2.432744052
18.636992,38,-12,-5,19,34,-58,0,-10,2.432744052
18.637016,2,-49,-14,-41,38,-71,-1,5,2.432744052
18.649193,-23,4,-4,-22,78,38,-2,30,2.432744052
18.649216,0,10,-2,-4,4,-60,2,-42,2.432744052
18.660655,7,31,12,13,-36,21,-2,31,2.432744052
18.660668,-30,13,7,20,-42,-105,17,25,2.432744052
18.673320,78,-5,-14,-25,-39,97,-7,-11,2.432744052
18.673357,-45,-26,-5,6,92,17,8,5,2.432744052
18.674427,5,-28,0,-2,-46,-15,-10,-13,2.432744052
18.674448,-16,37,-2,9,59,9,-4,17,2.432744052
18.695700,-24,12,10,-40,-127,-28,8,22,2.444164006
18.695754,-17,25,10,55,58,-42,20,82,2.444164006
18.697835,49,-1,-8,4,8,74,-20,-9,2.444164006
18.697848,-81,-12,-3,-36,92,-48,2,-17,2.444164006
18.709389,-7,-13,-8,35,74,-36,-15,15,2.444164006
18.709413,15,17,3,-5,8,24,12,-24,2.444164006
18.718608,-29,-3,3,0,-57,-63,3,5,2.444164006
18.718620,28,-5,10,35,12,69,-1,-20,2.444164006
18.732979,-41,16,6,-19,-1,-46,2,-54,2.444164006
18.732994,-3,8,-4,-22,-121,-63,16,-6,2.444164006
18.734532,16,9,-2,-1,110,-11,-21,11,2.444164006
18.734546,-71,-17,-4,11,-46,35,-5,-40,2.444164006
18.755743,57,-10,-7,-11,-5,-23,-15,10,2.444164006
18.755765,20,-8,2,11,-70,13,-11,2,2.444164006
18.759218,16,8,-3,-20,-79,-47,-18,20,2.444164006
18.759226,-57,38,11,-8,-89,78,25,21,2.444164006
18.769375,-15,-33,-5,18,46,-43,-4,25,2.444164006
18.769399,-29,27,8,-14,-9,42,5,-36,2.444164006
18.779875,65,-79,-19,23,81,-47,37,15,2.444164006
18.779889,58,8,-6,-19,-17,82,5,-8,2.444164006
18.796024,-37,4,0,14,-9,7,1,-12,2.444164006
18.796042,7,6,3,-2,-4,-8,-5,12,2.444164006
18.796046,-15,31,9,-33,-99,-9,-17,68,2.444164006
18.796049,-22,-9,3,47,43,3,-11,31,2.444164006
18.815675,40,5,0,-21,-92,-14,8,-35,2.444164006
18.815697,-8,-34,-19,11,101,8,-47,-6,2.444164006
18.817079,2,25,0,-39,-8,49,5,-67,2.444164006
18.817098,63,-2,2,18,65,-44,-5,33,2.444164006
18.829367,-40,9,3,-17,-20,16,-8,20,2.444164006
18.829385,-34,0,2,0,-77,-8,20,-25,2.444164006
18.840701,56,-9,-4,-8,-22,-35,8,-12,2.444164006
18.840718,16,6,-8,20,74,52,-48,13,2.444164006
18.852981,-76,0,5,18,0,-36,25,11,2.444164006
18.852998,18,8,4,14,-66,-19,-4,7,2.444164006
18.854610,34,-12,-7,-1,108,93,-8,-3,2.444164006
18.854619,29,7,0,-18,-12,-99,21,65,2.444164006
18.875770,-52,-10,-12,-34,-17,59,-28,-43,2.444164006
18.875794,45,1,-3,-13,-29,8,7,26,2.444164006
18.876907,-128,32,8,-7,-33,-5,-5,3,2.444164006
18.876927,43,-13,1,21,-43,11,7,-54,2.444164006
18.889224,41,-5,-4,-3,-18,-21,-4,53,2.444164006
18.889270,36,9,10,-26,4,-62,1,-44,2.444164006
18.898921,-84,-11,-5,42,86,62,-15,84,2.444164006
18.898932,-9,1,-14,-32,-85,-53,-45,-17,2.444164006
18.913193,71,-38,-6,1,32,-14,15,-7,2.444164006
18.913218,-61,0,3,19,102,41,-7,15,2.444164006
18.915039,66,1,2,-21,-128,-71,15,6,2.444164006
18.915057,-45,7,7,24,40,-23,11,-52,2.444164006
18.935558,77,16,2,-16,76,3,-21,12,2.444164006
18.935594,6,-16,-10,-14,-32,93,55,0,2.444164006
18.937027,-23,8,5,12,-22,7,9,-35,2.431036017
18.937034,-7,-22,-3,-7,1,1,3,-5,2.431036017
18.959101,-87,29,8,14,-43,-59,11,-7,2.431036017
18.959133,33,-29,-8,-20,-41,1,-2,-14,2.431036017
18.961043,-6,5,9,44,-103,8,2,-51,2.431036017
18.961049,25,-11,-5,-20,49,17,28,36,2.431036017
18.973087,-26,13,0,8,-2,-20,6,-31,2.431036017
18.973114,-13,-4,-4,-12,-26,11,-4,65,2.431036017
18.974561,-6,9,-1,-14,-25,-23,-12,-33,2.431036017
18.974580,17,-1,1,20,72,-27,-17,-9,2.431036017
18.996637,-80,-5,3,-2,-57,39,16,-34,2.431036017
18.996659,96,32,8,-1,-30,-41,-6,49,2.431036017
18.997376,-29,-17,-7,-2,8,-15,-4,-8,2.431036017
18.997402,61,-24,-9,2,-30,-35,-6,-23,2.431036017
19.018384,23,-2,3,-39,57,19,12,1,2.431036017
19.018411,-8,8,-5,45,-62,47,-26,-37,2.431036017
19.019564,-87,19,6,2,109,-38,-12,19,2.431036017
19.020864,23,0,-6,-12,-63,61,-15,-1,2.431036017
19.032998,61,-10,-1,-2,-50,-53,-27,45,2.431036017
19.033064,-19,10,-6,-21,7,4,-10,5,2.431036017
19.035977,53,9,4,-2,18,78,24,13,2.431036017
19.035983,-105,7,9,11,-27,-50,9,-30,2.431036017
19.055803,-29,-2,-8,4,-66,-4,-5,-27,2.431036017
19.055835,16,-26,-8,0,127,6,-40,30,2.431036017
19.058628,13,1,-4,0,-8,-42,-10,46,2.431036017
19.058637,-41,-4,4,-44,-65,27,13,5,2.431036017
19.078348,-82,-12,3,36,27,19,-1,8,2.431036017
19.078393,-33,-2,-3,10,81,-42,3,-55,2.431036017
19.079699,32,-4,-5,-17,-4,-3,11,-28,2.431036017
19.079718,-38,-29,4,11,-52,45,26,-1,2.431036017
19.092395,-13,-14,5,26,66,-80,-42,32,2.431036017
19.092431,37,-10,-4,-11,41,18,51,-26,2.431036017
19.099141,23,11,-2,-20,16,19,9,4,2.431036017
19.099159,-27,20,1,9,-86,5,7,-6,2.431036017
19.115715,-20,23,3,13,127,1,8,-7,2.431036017
19.115736,21,-21,3,3,-109,-128,-51,-19,2.431036017
19.117791,41,-4,1,-14,73,89,21,16,2.431036017
19.117804,-4,23,0,-16,-23,19,-7,25,2.431036017
19.138555,112,19,6,3,-83,8,20,31,2.431036017
19.138569,26,-26,-17,20,30,2,7,-39,2.431036017
19.139423,-6,-17,0,1,-37,-27,-11,-10,2.431036017
19.139429,0,10,-7,-5,30,-7,-16,3,2.431036017
19.154386,53,-4,-3,-19,-83,0,26,34,2.431036017
19.154394,-13,1,7,-12,-44,30,20,-3,2.431036017
19.159288,-51,46,1,-6,-25,-62,-39,-21,2.431036017
19.159305,59,-19,-5,56,83,45,12,16,2.431036017
19.175845,-30,14,2,-33,-54,-68,12,-82,2.431036017
19.176532,37,-6,3,19,-47,25,13,25,2.431036017
19.176907,-2,3,-5,-33,34,-85,-8,22,2.431036017
19.176929,2,20,0,-17,33,70,-10,-12,2.431036017
19.205870,0,-4,-2,-10,-19,2,10,24,2.429792170
19.205892,-46,1,-1,-11,5,10,-39,21,2.429792170
19.208154,-56,-12,-3,36,-77,-75,28,4,2.429792170
19.208161,58,-4,-6,-7,19,-34,20,-20,2.429792170
19.212647,15,-8,-1,-2,35,23,-47,-20,2.429792170
19.212663,-2,5,1,-11,25,5,21,2,2.429792170
19.219585,-32,-27,-2,18,-10,8,-6,25,2.429792170
19.219612,25,-11,4,5,74,6,-3,16,2.429792170
19.236078,-38,5,-14,-32,-127,30,-6,-77,2.429792170
19.236104,-16,12,3,24,109,-82,-3,52,2.429792170
19.237057,18,8,3,-8,48,107,-24,31,2.429792170
19.237071,-3,-8,2,22,-2,-62,1,-12,2.429792170
19.258344,39,-14,-5,-24,3,64,17,30,2.429792170
19.258368,-111,16,5,39,-8,73,-26,-42,2.429792170
19.260194,63,-4,-2,-37,-25,-72,-1,-11,2.429792170
19.260200,-13,-9,-4,10,22,-54,-11,7,2.429792170
19.272891,11,18,10,-9,80,8,-14,23,2.429792170
19.272923,7,-24,-12,-21,7,-59,1,31,2.429792170
19.279321,4,7,-7,7,-56,89,-9,14,2.429792170
19.279348,50,-37,-11,-17,-17,-51,-32,15,2.429792170
19.295632,-22,1,2,23,11,-25,7,-14,2.429792170
19.295658,-15,14,0,-5,21,6,0,16,2.429792170
19.297251,-34,17,11,-1,-82,18,20,-15,2.429792170
19.297279,29,6,-3,9,36,-18,-5,37,2.429792170
19.318149,21,-15,2,25,-3,35,10,24,2.429792170
19.318171,19,24,1,6,53,49,-6,-28,2.429792170
19.319550,3,-25,-2,10,55,25,5,-45,2.429792170
19.319563,-38,26,-2,-20,-121,62,0,7,2.429792170
19.332516,-35,-19,-8,-3,28,25,3,-17,2.429792170
19.332533,28,6,6,-23,-14,-81,-25,-1,2.429792170
19.339385,6,2,-4,-7,-1,58,21,43,2.429792170
19.339408,2,-9,0,1,-18,-48,-12,-12,2.429792170
19.357123,-17,6,-3,5,18,32,-20,80,2.429792170
19.357139,-54,-3,2,-11,-21,1,2,-61,2.429792170
19.357145,-9,5,2,0,4,-20,27,-4,2.429792170
19.357151,-50,-7,5,1,-10,-3,-2,-33,2.429792170
19.378434,32,8,-4,1,-102,-24,-32,28,2.429792170
19.378456,14,-2,5,16,80,-22,-5,11,2.429792170
19.380302,-16,5,3,-2,-24,41,23,4,2.429792170
19.380323,12,15,-2,18,42,17,-36,-33,2.429792170
19.393028,-10,-2,5,-4,74,1,5,-6,2.429792170
19.393055,19,-11,-9,-33,-128,31,56,-26,2.429792170
19.399219,44,-3,-8,9,41,-67,-49,-21,2.429792170
19.399243,-5,13,10,-16,16,59,27,-19,2.429792170
19.415594,38,-9,-8,3,94,-7,-9,27,2.429792170
19.415613,-25,-8,-4,0,-16,-10,2,5,2.429792170
19.417218,16,-9,2,3,22,17,13,-58,2.429792170
19.417237,-33,-1,-4,-4,-9,-17,-3,43,2.429792170
19.438730,26,2,2,3,-21,-49,13,-30,2.429792170
19.438769,-34,20,-3,0,15,60,9,1,2.429792170
19.440504,-37,-28,-4,-2,-12,-27,-14,5,2.429792170
19.440510,23,8,3,18,8,-24,-5,14,2.429792170
19.452172,-61,-18,-7,-45,-102,22,2,-67,2.408218637
19.452189,28,8,0,9,36,24,-13,34,2.408218637
19.463061,-33,11,-1,13,-53,-58,-31,-3,2.408218637
19.463075,-27,-11,-9,-27,0,15,9,18,2.408218637
19.476094,-8,-1,-1,8,15,54,2,-20,2.408218637
19.476184,29,-20,-1,-4,8,23,52,-22,2.408218637
19.481670,-13,-5,3,-2,29,0,-37,-9,2.408218637
19.481691,5,-2,0,2,-29,-48,-22,-73,2.408218637
19.498195,-4,-7,-1,0,43,-72,0,27,2.408218637
19.498212,22,-26,-15,-18,18,63,-16,-42,2.408218637
19.499531,56,-3,-5,3,3,-11,3,10,2.408218637
19.499550,-13,6,6,-3,27,6,5,-42,2.408218637
19.512879,-13,31,13,29,12,29,27,-16,2.408218637
19.512895,-57,-2,-6,-41,-117,-62,-53,-1,2.408218637
19.520881,50,-10,-5,14,95,4,9,-4,2.408218637
19.520891,-4,-4,-6,-7,94,28,-1,-16,2.408218637
19.535560,37,9,3,2,-71,-39,3,9,2.408218637
19.535620,-46,-13,5,36,114,63,52,25,2.408218637
19.536927,-58,0,2,8,14,35,10,-22,2.408218637
19.536951,-1,-4,-10,-14,-34,44,3,36,2.408218637
19.560548,83,7,1,-2,-15,41,26,-9,2.408218637
19.560565,-55,-7,6,11,-25,-100,-15,5,2.408218637
19.560572,21,-3,-6,-9,-21,41,-12,55,2.408218637
19.560577,12,3,5,9,5,21,45,45,2.408218637
19.571856,-48,-11,-7,-4,2,-26,-13,-53,2.408218637
19.571880,50,-12,-5,-14,-32,-54,-24,-40,2.408218637
19.580785,17,-2,-4,-13,-14,-21,8,14,2.408218637
19.580805,18,6,3,14,42,-11,-15,-17,2.408218637
19.595875,-19,-5,-3,5,-92,15,-4,-18,2.408218637
19.595895,-73,-8,10,-17,79,-48,-5,16,2.408218637
19.597151,82,1,-8,-2,-11,52,15,35,2.408218637
19.599407,4,0,0,20,-98,-41,-26,-9,2.408218637
19.618165,-42,4,0,-5,-50,14,67,24,2.408218637
19.618182,73,7,4,15,-28,-19,-32,6,2.408218637
19.619629,-7,6,2,25,-94,81,9,-22,2.408218637
19.619640,-13,7,6,-20,99,-113,24,26,2.408218637
19.631836,25,-5,-6,6,39,45,-37,-5,2.408218637
19.631862,15,30,-3,-29,-83,5,6,-41,2.408218637
19.641953,5,-12,-1,-4,-22,-55,18,4,2.408218637
19.641966,15,-2,-2,4,-16,-3,-30,67,2.408218637
19.655945,34,-2,8,16,118,-27,10,36,2.408218637
19.655954,-80,20,-4,-12,-76,64,10,36,2.408218637
19.657007,78,-31,-11,-13,54,-118,-50,-39,2.408218637
19.657028,9,3,-8,6,34,43,5,-12,2.408218637
19.678559,1,-9,-2,-23,14,2,-25,-19,2.408218637
19.678584,24,-4,1,12,-78,9,13,24,2.408218637
19.680574,-38,32,6,68,68,22,10,18,2.408218637
19.680586,-37,-22,-3,-81,-93,30,-56,-61,2.408218637
19.691822,-20,-9,-1,14,112,13,29,10,2.408218637
19.691845,37,13,-1,26,23,-25,-12,-20,2.408218637
19.701402,-49,-16,2,-57,-85,-31,4,-2,2.408218637
19.701410,41,16,-7,24,96,77,7,-34,2.408218637
19.717405,-87,-1,4,15,-18,-22,-19,15,2.411120943
19.717417,53,-4,-13,-19,34,0,-23,0,2.411120943
19.717421,48,5,2,8,7,-33,15,90,2.411120943
19.717424,-85,4,3,-29,-30,21,-38,-70,2.411120943
19.738702,-89,-27,-5,-9,-128,-86,-6,-1,2.411120943
19.738731,26,3,-8,14,16,-46,15,13,2.411120943
19.741115,-7,-13,1,-7,98,34,-20,-31,2.411120943
19.741121,-13,-43,2,38,-38,22,40,27,2.411120943
19.752557,33,6,-1,-24,4,20,-25,4,2.411120943
19.752582,3,-2,5,-5,9,20,-4,-12,2.411120943
19.763912,-10,10,4,-1,-10,-19,14,-21,2.411120943
19.763924,24,9,4,-1,-50,-39,4,-3,2.411120943
19.776703,5,5,-7,12,-14,0,-24,6,2.411120943
19.776716,-17,-13,2,0,-60,-47,-3,-4,2.411120943
19.778383,-36,-29,-3,-9,29,34,3,-39,2.411120943
19.778394,16,59,5,9,-24,-41,11,31,2.411120943
19.798358,-19,-4,-2,-7,17,73,-26,-32,2.411120943
19.798384,16,13,-3,-3,87,-67,-44,14,2.411120943
19.799647,-23,-40,-8,-28,-98,-9,-10,-10,2.411120943
19.799665,0,-4,-5,32,14,-13,22,38,2.411120943
19.811822,24,14,1,-47,-66,-60,11,65,2.411120943
19.811860,3,12,7,31,52,96,33,-18,2.411120943
19.822006,-31,12,-4,-10,77,-42,-29,-19,2.411120943
19.822019,-5,3,-4,-35,-78,41,31,7,2.411120943
19.835984,19,-9,-6,36,93,-21,-31,-33,2.411120943
19.836016,-37,-14,4,-14,106,-44,12,28,2.411120943
19.838582,5,23,3,10,-85,70,26,-1,2.411120943
19.838595,51,-10,-1,14,-22,-42,-15,-48,2.411120943
19.858323,-81,-33,5,-5,2,24,3,-37,2.411120943
19.858331,64,-8,1,-2,-18,2,6,34,2.411120943
19.859497,-63,22,7,9,-58,-33,24,-61,2.411120943
19.859511,73,-21,-4,-19,-16,-29,-20,34,2.411120943
19.871801,28,9,1,27,27,-49,11,15,2.411120943
19.871812,4,-28,-3,1,-28,57,-4,-20,2.411120943
19.882192,-20,-2,1,-3,10,29,16,-9,2.411120943
19.882205,-28,2,8,-11,-35,3,6,31,2.411120943
19.895162,47,-7,-11,1,53,-29,-4,-18,2.411120943
19.895186,53,-28,-12,-14,12,1,-19,-25,2.411120943
19.901782,-62,2,-7,-15,-28,4,-15,20,2.411120943
19.901813,-16,-14,-2,7,11,3,-5,22,2.411120943
19.918532,-14,19,11,11,-42,-2,18,20,2.411120943
19.918540,-41,3,-5,-15,79,-21,-25,50,2.411120943
19.919571,-21,10,10,-40,-84,77,7,-1,2.411120943
19.919578,16,0,-3,42,127,64,51,-3,2.411120943
19.940850,10,-25,-4,14,-107,-62,-54,-11,2.411120943
19.940872,-46,43,9,6,-60,97,50,-4,2.411120943
19.943445,31,15,5,11,58,-73,-18,42,2.411120943
19.943458,-36,-24,-3,-12,-27,-31,-18,-18,2.411120943
19.955679,42,45,-1,-21,41,11,15,65,2.411120943
19.955696,10,-17,-2,16,-53,-33,-2,-9,2.411120943
19.957766,-40,-3,2,3,19,-81,-4,-25,2.411120943
19.957773,35,-3,-8,-5,19,-1,17,20,2.411120943
19.980959,94,-12,-3,2,63,20,3,-31,2.440964255
19.980972,-13,7,-3,-10,-58,3,-8,-5,2.440964255
19.980975,17,-27,-1,12,74,-20,4,-6,2.440964255
19.980978,-32,3,6,17,-13,-11,-1,7,2.440964255
20.008977,-27,12,1,-70,-70,-16,12,-38,2.440964255
20.008993,-13,-6,-5,9,-73,9,16,101,2.440964255
