timestamp,emg1,emg2,emg3,emg4,emg5,emg6,emg7,emg8,label
10.005466,-36,31,10,11,-73,30,15,14,2.076156579
10.005544,-4,-18,-11,-8,60,-6,-17,0,2.076156579
10.005548,25,48,-1,-17,-102,-4,-12,30,2.076156579
10.025518,-14,-58,-6,29,17,-12,1,-9,2.076156579
10.025532,-30,21,4,2,127,24,21,31,2.076156579
10.031132,-11,3,0,3,-38,32,0,4,2.076156579
10.031155,-11,25,-1,-12,-62,-47,-8,-3,2.076156579
10.040704,9,-2,-2,-7,12,-30,0,-34,2.076156579
10.040717,-18,-2,1,-12,-16,-28,-26,-16,2.076156579
10.046017,-16,17,-1,11,31,-6,12,11,2.076156579
10.046036,54,0,9,9,15,37,18,-7,2.076156579
10.062402,44,-77,-18,15,-43,-62,-46,-8,2.076156579
10.062420,28,-29,-7,-29,-1,80,3,-27,2.076156579
10.064127,-12,31,-4,-17,-50,12,5,0,2.076156579
10.064132,-21,-4,-5,7,16,-47,-33,-47,2.076156579
10.085109,-23,17,5,-9,42,121,35,-38,2.076156579
10.085141,-9,18,-1,-6,-44,-86,-33,28,2.076156579
10.088508,-25,-16,2,11,59,44,21,-2,2.076156579
10.088520,24,-4,-4,3,7,-21,-6,43,2.076156579
10.099510,34,-31,0,-8,53,-10,-25,-69,2.076156579
10.099537,-11,11,-3,7,14,-7,16,-13,2.076156579
10.106253,-10,9,-1,-40,-37,18,-14,76,2.076156579
10.106377,-52,-11,10,22,3,6,13,-10,2.076156579
10.122486,38,10,-4,2,76,52,7,25,2.076156579
10.122504,56,25,15,17,-60,-87,6,64,2.076156579
10.123873,61,-30,-19,-3,102,27,-19,-67,2.076156579
10.123890,16,-15,-10,-28,46,109,12,10,2.076156579
10.144807,-70,-3,-1,-6,-45,-29,3,14,2.076156579
10.145990,24,10,-1,0,-18,-14,-13,-18,2.076156579
10.146275,-42,28,4,11,7,23,21,-9,2.076156579
10.146349,15,-36,-4,-6,-68,-127,16,22,2.076156579
10.159140,36,31,5,13,42,22,-3,26,2.076156579
10.159163,-29,-10,-4,-7,28,20,5,-41,2.076156579
10.167846,-36,18,7,11,-41,-17,5,-1,2.076156579
10.167855,-30,-2,-3,14,51,-38,-40,-40,2.076156579
10.183897,22,-2,-5,-15,21,41,6,-21,2.076156579
10.183907,-7,0,5,-2,-32,18,11,-11,2.076156579
10.183910,-28,11,0,1,-5,-7,1,50,2.076156579
10.183913,-48,10,-3,-8,-52,-13,6,0,2.076156579
10.204932,-54,-32,4,6,-33,16,9,-13,2.076156579
10.204962,-10,-2,-6,8,74,-4,1,91,2.076156579
10.207091,16,-3,-3,-16,-87,35,0,-43,2.076156579
10.207098,6,29,11,59,74,-55,38,1,2.076156579
10.219727,-5,14,-9,-43,-32,19,-18,58,2.076156579
10.219751,1,-4,2,15,-51,4,51,5,2.076156579
10.226206,24,-23,-5,-20,67,-39,-21,-11,2.078905657
10.226232,1,-19,0,-6,14,31,11,20,2.078905657
10.242444,17,-46,-1,16,71,-53,-17,-4,2.078905657
10.242476,-32,25,0,2,-23,3,-16,-37,2.078905657
10.245618,-1,-29,-1,-1,-22,-34,7,-5,2.078905657
10.245629,30,15,-3,-9,-74,-19,-21,-16,2.078905657
10.265200,-33,25,3,-8,-34,-63,9,37,2.078905657
10.265250,-4,3,-4,-13,33,37,-11,-23,2.078905657
10.266321,36,-6,-2,26,51,8,3,12,2.078905657
10.266342,-5,-14,-3,2,-47,-20,-15,-35,2.078905657
10.278599,18,31,7,-22,-68,46,65,-6,2.078905657
10.278656,-64,-53,-5,23,123,-8,-50,-13,2.078905657
10.290009,-45,-29,-3,-15,-67,-107,-12,-6,2.078905657
10.290022,8,4,1,1,32,26,10,79,2.078905657
10.302383,19,13,2,7,-47,33,-14,-37,2.078905657
10.302414,0,0,-3,-5,11,25,6,-17,2.078905657
10.309328,3,19,6,4,-43,-5,4,17,2.078905657
10.309344,9,-20,-4,-11,10,-2,-11,29,2.078905657
10.325042,-68,14,-3,7,-14,-65,-15,-24,2.078905657
10.325052,35,21,-7,-29,-34,73,-11,-4,2.078905657
10.325054,-41,6,-4,21,27,-4,0,28,2.078905657
10.325057,93,5,-3,7,-42,-24,1,1,2.078905657
10.346688,-8,19,-2,-14,10,98,10,34,2.078905657
10.346701,13,6,-4,11,6,-60,29,-27,2.078905657
10.349444,23,3,4,-34,-57,49,3,1,2.078905657
10.349451,-26,15,4,-4,-91,-73,-3,-35,2.078905657
10.361979,-11,-10,0,18,127,42,-79,8,2.078905657
10.362003,23,-10,8,15,-98,-57,42,27,2.078905657
10.362381,-10,-22,-1,15,-7,84,-4,3,2.078905657
10.362422,3,0,-5,-9,16,-3,-5,43,2.078905657
10.384804,19,-21,-5,-40,-39,14,10,-10,2.078905657
10.384847,3,23,-2,-2,31,-18,-11,-17,2.078905657
10.388905,6,9,1,1,-5,-36,-12,-2,2.078905657
10.388918,-28,-1,9,1,24,20,15,9,2.078905657
10.406597,-2,-1,0,20,-6,-52,-5,-10,2.078905657
10.406614,-28,12,1,-1,30,37,4,-5,2.078905657
10.407380,8,18,-4,30,9,-46,9,-22,2.078905657
10.407401,-12,-45,-14,-53,8,101,-5,-27,2.078905657
10.421949,16,-15,-1,30,54,-126,-70,-77,2.078905657
10.423161,-36,14,1,-10,-32,4,-18,49,2.078905657
10.423175,-11,-4,0,9,37,-36,16,-8,2.078905657
10.423178,8,33,6,-4,-2,-18,21,-8,2.078905657
10.444527,0,-9,-9,-13,-31,66,8,-2,2.078905657
10.445097,-5,-26,-1,2,44,-13,-8,-6,2.078905657
10.446874,20,16,8,-6,-33,-27,-11,-9,2.078905657
10.446880,-15,9,2,12,18,17,-11,-6,2.078905657
10.466512,12,31,-3,0,-10,-21,17,-2,2.078905657
10.466521,69,-43,-5,-2,-61,-9,-18,-21,2.078905657
10.467174,-84,6,2,21,64,2,42,5,2.078905657
10.467181,46,-16,-13,-91,34,-4,-82,-89,2.078905657
10.481791,17,4,11,53,-88,91,75,84,2.063497277
10.481805,12,13,2,-12,-15,-32,-52,31,2.063497277
10.483046,4,-11,-8,-11,-29,17,-9,-61,2.063497277
10.483059,-49,15,7,31,43,27,34,-7,2.063497277
10.504494,15,-1,0,-20,-48,-43,14,45,2.063497277
10.504513,-20,-3,-2,0,8,21,11,-57,2.063497277
10.506694,-19,1,10,3,-6,14,5,-9,2.063497277
10.506706,27,-13,-4,15,-38,-9,-8,7,2.063497277
10.526879,-12,-14,-14,-19,-7,-9,-19,-26,2.063497277
10.526889,28,-6,-2,0,-29,6,32,-5,2.063497277
10.527359,-10,20,-5,-31,-45,-18,-39,0,2.063497277
10.527396,5,-7,1,56,58,11,19,15,2.063497277
10.541682,-5,-6,2,-19,46,-38,5,15,2.063497277
10.541701,8,8,0,-16,-4,47,15,-7,2.063497277
10.542791,-19,-13,0,-6,-85,-50,-25,-12,2.063497277
10.542805,-59,0,-1,6,-68,99,13,20,2.063497277
10.564297,65,20,-2,0,16,-96,-17,-49,2.063497277
10.564314,-20,-29,1,-15,-36,78,15,13,2.063497277
10.566059,44,0,-1,3,-10,9,1,23,2.063497277
10.566073,-14,4,-1,17,-23,-17,-6,16,2.063497277
10.589227,-6,-8,-4,-5,7,-10,-17,-14,2.063497277
10.589241,-30,39,-1,1,-82,-80,-7,-5,2.063497277
10.589243,30,-13,3,18,126,113,5,27,2.063497277
10.589245,30,-9,-9,-22,30,-80,-41,-86,2.063497277
10.604278,-28,0,4,17,-18,-39,-3,121,2.063497277
10.604291,62,11,-2,-18,53,1,7,48,2.063497277
10.604294,-21,-35,-8,21,13,-61,-24,-7,2.063497277
10.604296,-11,12,1,-17,-9,68,16,-17,2.063497277
10.624246,15,16,-7,-16,-25,26,15,-30,2.063497277
10.624269,-3,-3,10,28,22,14,4,-24,2.063497277
10.626186,17,-4,-2,-6,50,-60,-31,-7,2.063497277
10.626201,1,26,-1,-8,-50,-19,0,18,2.063497277
10.646709,9,-4,6,23,-19,22,0,-5,2.063497277
10.646740,-26,10,1,10,76,34,28,14,2.063497277
10.648925,14,-28,-10,-40,-31,32,23,26,2.063497277
10.648933,-34,-12,-4,-19,-59,-98,-18,13,2.063497277
10.661573,69,-24,-1,-11,8,-4,-10,-28,2.063497277
10.661590,-37,-4,-4,5,0,44,3,3,2.063497277
10.662440,45,6,-6,-24,-70,-32,-2,-19,2.063497277
10.663397,-23,-56,-10,6,16,12,-10,1,2.063497277
10.684882,-4,5,2,5,37,-5,2,-20,2.063497277
10.684906,-9,11,-4,1,-9,-28,-12,80,2.063497277
10.684914,-16,1,6,15,17,39,12,-13,2.063497277
10.684920,28,32,6,4,-34,-16,0,16,2.063497277
10.706700,-39,12,0,-25,2,-2,4,-17,2.063497277
10.706720,12,6,-4,35,40,-38,-29,-40,2.063497277
10.708691,3,-5,-1,13,62,29,33,7,2.063497277
10.708703,1,13,3,-18,-71,-47,0,77,2.063497277
10.721974,-18,-3,7,18,114,-32,-19,51,2.063497277
10.723979,-12,-7,-8,-27,-110,-23,6,-38,2.063497277
10.723988,-41,25,-1,-11,-23,81,29,84,2.063497277
10.723991,1,-29,-1,6,22,-58,14,-37,2.063497277
10.745098,15,10,-4,-3,-55,33,7,-40,2.077175091
10.745106,-6,3,-1,6,26,-30,-31,48,2.077175091
10.745109,23,5,1,0,-1,-11,12,-21,2.077175091
10.745112,-4,5,2,14,3,19,7,24,2.077175091
10.766757,3,6,-4,-3,5,31,-8,-8,2.077175091
10.766774,19,0,-3,5,74,-10,1,-19,2.077175091
10.769305,-43,-6,-4,-12,-20,-1,-7,-24,2.077175091
10.769313,56,11,3,16,33,11,9,1,2.077175091
10.782293,-41,-9,-2,15,-53,-22,-5,-12,2.077175091
10.782324,-3,-5,1,-19,1,60,18,-27,2.077175091
10.784095,-19,-24,0,-5,-8,-80,-26,-7,2.077175091
10.784101,49,67,-5,-7,67,68,2,-28,2.077175091
10.806180,6,-16,0,34,-35,64,12,16,2.077175091
10.806191,-3,-11,0,-2,4,-28,-9,2,2.077175091
10.806195,19,9,-2,-7,-25,-5,8,-39,2.077175091
10.806199,-37,11,-1,-12,-63,30,15,-70,2.077175091
10.826711,-7,-21,5,-6,-11,8,-10,17,2.077175091
10.826735,-1,23,-2,8,-8,-40,6,-2,2.077175091
10.827441,-8,-1,2,3,-6,-23,-47,-26,2.077175091
10.827455,-34,-22,-5,-11,71,10,-16,-33,2.077175091
10.841822,-19,8,-9,19,-41,-4,28,29,2.077175091
10.841847,7,6,4,-9,-76,15,-8,31,2.077175091
10.843442,-30,-12,-7,-8,-14,-2,-5,-32,2.077175091
10.843454,-2,-35,2,0,25,12,5,20,2.077175091
10.864954,18,12,-2,-12,-3,13,-8,13,2.077175091
10.864985,-35,35,2,14,68,-78,-18,-75,2.077175091
10.867081,-4,-11,-6,-16,-54,27,38,-13,2.077175091
10.867092,9,-5,4,43,98,-28,-26,53,2.077175091
10.886711,-4,-18,1,-38,-25,57,43,0,2.077175091
10.886724,3,36,-2,0,-11,46,-9,-1,2.077175091
10.887561,81,-23,-6,-8,2,-52,-11,13,2.077175091
10.887586,5,-11,-6,-7,-69,6,15,55,2.077175091
10.902216,-34,-1,-2,8,-2,-41,-25,-65,2.077175091
10.902246,7,-35,-9,-11,71,79,3,20,2.077175091
10.905687,8,16,10,26,127,-16,10,59,2.077175091
10.905700,-22,-5,2,-14,-21,4,7,5,2.077175091
10.924163,-1,15,5,4,-28,-46,10,-15,2.077175091
10.924187,-28,-82,-9,-18,-75,-31,-51,-5,2.077175091
10.926662,-5,34,6,32,46,58,26,33,2.077175091
10.926669,13,-1,-2,-9,-117,-72,13,-40,2.077175091
10.946721,-10,0,-10,-21,127,4,-24,25,2.077175091
10.946775,9,-6,-2,-20,-13,-10,15,-43,2.077175091
10.947372,6,15,-2,14,11,-14,-25,34,2.077175091
10.947378,6,-23,0,-30,-75,45,13,-17,2.077175091
10.961774,-20,30,0,17,14,-47,-21,9,2.077175091
10.961791,12,-42,1,28,34,26,27,9,2.077175091
10.964724,16,-6,1,-28,-42,5,-23,-12,2.077175091
10.964730,18,51,-4,14,20,41,8,55,2.077175091
10.993407,0,-29,7,-6,-96,-58,-6,3,2.077175091
10.993421,16,2,-10,-11,58,19,10,-3,2.077175091
10.993424,-51,6,3,-9,-88,-25,17,-28,2.077175091
10.993426,42,-33,-1,11,126,4,-18,-15,2.077175091
11.009180,-9,23,0,-18,-72,50,21,-10,2.084971668
11.009194,6,-7,-4,5,-15,-14,-3,30,2.084971668
11.009237,4,11,0,-18,-75,-40,15,-46,2.084971668
11.009243,-22,19,-1,8,95,42,-4,-8,2.084971668
11.021892,-7,-15,-2,-1,-15,6,-8,31,2.084971668
11.021915,-5,11,10,8,-9,27,17,4,2.084971668
11.024356,3,-17,-13,-18,62,-32,7,-19,2.084971668
11.024370,26,6,2,1,-116,-18,-47,6,2.084971668
11.044385,-7,-33,-5,-2,79,3,28,-4,2.084971668
11.044411,-13,23,1,-14,-90,-28,-6,-71,2.084971668
11.044973,-5,-19,2,15,51,28,-19,33,2.084971668
11.044993,-27,35,1,33,57,1,25,-19,2.084971668
11.067039,2,-12,-2,-22,-3,-30,-60,-17,2.084971668
11.067063,-21,9,3,26,53,53,17,23,2.084971668
11.068812,79,0,-4,-7,-29,-37,-22,24,2.084971668
11.068825,-49,-1,7,-8,-21,-114,9,10,2.084971668
11.082026,14,13,-1,-14,22,69,4,21,2.084971668
11.082050,-7,-15,-5,0,70,-45,13,-19,2.084971668
11.083530,-43,26,1,0,-25,10,-14,-27,2.084971668
11.083540,-9,-44,-9,13,6,-5,-4,-29,2.084971668
11.112736,-1,9,-2,-23,-53,-30,19,-1,2.084971668
11.112767,0,-5,2,3,-3,-4,-15,34,2.084971668
11.116102,-11,6,6,43,91,17,14,-40,2.084971668
11.116109,-52,-20,-7,-55,-112,36,-12,-31,2.084971668
11.126959,-11,-29,-4,-10,-20,13,5,-16,2.084971668
11.126990,-24,16,4,28,65,-29,-13,7,2.084971668
11.129684,-22,-24,-9,-13,-90,30,4,31,2.084971668
11.129691,-24,5,4,28,127,3,12,9,2.084971668
11.144098,21,-11,0,12,-26,33,3,24,2.084971668
11.144110,-4,17,3,1,7,-113,-21,-42,2.084971668
11.144113,48,-13,1,-70,-67,30,18,13,2.084971668
11.144116,-15,2,-3,31,103,16,-4,57,2.084971668
11.164166,-4,17,-1,13,55,10,-3,-16,2.084971668
11.164203,0,-20,-6,-20,-66,-16,-5,23,2.084971668
11.164751,19,7,1,24,54,-41,-14,-14,2.084971668
11.164773,-2,-1,3,-28,-128,56,10,-17,2.084971668
11.186850,-30,-1,7,-3,48,-54,2,-7,2.084971668
11.188852,89,-49,-4,13,40,40,28,25,2.084971668
11.188865,5,5,-2,-6,-42,-41,-64,58,2.084971668
11.188867,46,-12,-9,-7,-89,-7,4,5,2.084971668
11.202029,-21,10,1,20,85,-16,-6,49,2.084971668
11.202765,47,24,4,-23,-89,71,11,-12,2.084971668
11.202769,-2,3,-6,16,4,-6,28,-19,2.084971668
11.202772,16,-9,-1,-6,-40,47,-10,12,2.084971668
11.224737,-7,-11,-10,-12,-29,-49,-3,-29,2.084971668
11.224772,9,22,5,-18,-8,-4,40,2,2.084971668
11.227191,-19,13,6,53,78,-32,2,-7,2.084971668
11.227204,-25,-47,-5,-14,-2,-40,-41,-44,2.084971668
11.246751,26,26,3,5,20,-1,11,-23,2.084971668
11.246770,-30,-12,-10,-6,-1,-16,-31,-1,2.084971668
11.247417,-14,-10,-4,-15,-46,25,32,40,2.084971668
11.249773,-57,-1,-4,-14,46,-51,-47,-89,2.064691553
11.261694,28,30,2,11,-18,48,9,66,2.064691553
11.261712,4,-3,-2,3,45,-8,7,-13,2.064691553
11.262379,6,7,8,-7,-25,32,-5,-2,2.064691553
11.262417,-23,10,0,19,111,13,34,16,2.064691553
11.284465,10,-23,-3,-7,-25,12,-20,-25,2.064691553
11.284496,-23,24,3,23,-61,-24,-5,-1,2.064691553
11.286456,-12,-5,0,-58,2,2,-29,-50,2.064691553
11.286461,46,41,-1,29,77,77,30,47,2.064691553
11.306650,-22,-37,-8,-4,30,-41,-13,49,2.064691553
11.306665,-13,-12,0,-19,63,10,-5,0,2.064691553
11.307608,-94,38,4,42,-26,-35,1,1,2.064691553
11.307684,59,-31,-7,-33,-33,21,-32,-27,2.064691553
11.321176,13,5,-4,-9,-103,16,-1,1,2.064691553
11.321200,-8,-2,-2,-18,70,10,-18,-20,2.064691553
11.329958,-16,-19,-2,11,30,25,13,9,2.064691553
11.329995,8,27,5,13,-17,-56,27,20,2.064691553
11.344617,7,-5,2,-7,-47,9,-4,-4,2.064691553
11.344649,-8,-2,-4,-6,-32,19,-15,-44,2.064691553
11.347760,-2,5,2,9,15,58,8,13,2.064691553
11.347766,59,-12,-2,-4,-29,-26,9,32,2.064691553
11.367730,19,30,-1,6,6,-37,9,-80,2.064691553
11.367738,22,-19,0,-6,-18,32,28,25,2.064691553
11.367741,31,-3,-6,-3,76,69,-11,-3,2.064691553
11.367744,-32,-1,3,-15,59,11,15,-18,2.064691553
11.382165,1,29,1,6,-25,-36,-12,-19,2.064691553
11.382174,-35,-4,1,2,-78,24,10,19,2.064691553
11.389388,0,-18,-9,0,-22,-70,-54,-35,2.064691553
11.389407,5,-2,6,-12,-15,67,32,-21,2.064691553
11.404416,-15,-17,-1,35,127,-20,5,-4,2.064691553
11.404438,-25,18,-4,-13,-20,-14,-39,-10,2.064691553
11.406934,22,14,1,-6,-45,-45,15,11,2.064691553
11.406946,2,18,2,3,-71,-12,-11,39,2.064691553
11.427004,-74,-20,3,-22,-38,-34,-2,-7,2.064691553
11.427021,25,-1,-4,4,44,18,0,-6,2.064691553
11.428162,29,-28,-14,-14,78,82,6,1,2.064691553
11.428168,15,25,1,1,0,-63,-30,30,2.064691553
11.441185,-42,7,9,7,-23,26,36,13,2.064691553
11.441370,-10,29,13,2,-14,-67,6,-25,2.064691553
11.449611,22,-61,-19,-21,19,37,-12,-11,2.064691553
11.449633,-17,-37,-4,0,6,-5,-9,-30,2.064691553
11.464465,9,8,-2,9,18,5,25,30,2.064691553
11.464485,-25,10,4,19,-57,6,-39,-16,2.064691553
11.466255,14,2,12,14,80,-50,32,36,2.064691553
11.466263,19,4,-2,2,-41,9,-15,-2,2.064691553
11.487346,15,23,-1,-14,53,-42,10,-24,2.064691553
11.487372,-3,8,-4,-18,-18,100,-1,12,2.064691553
11.489907,-36,17,6,20,-49,-15,-1,16,2.064691553
11.489920,7,4,-2,-22,-6,-16,0,21,2.064691553
11.501195,28,-3,1,7,-46,30,-11,7,2.064691553
11.501216,-31,-5,-10,-21,-85,-74,27,0,2.064691553
11.509297,71,-19,-1,6,30,17,6,45,2.068864751
11.509315,-72,33,1,10,-29,-19,-5,-16,2.068864751
11.524256,20,-26,-8,-3,-13,-7,-14,-5,2.068864751
11.524276,0,-14,1,3,-17,16,11,19,2.068864751
11.524965,-28,-3,-1,-6,-70,-20,4,-13,2.068864751
11.524979,-4,22,2,6,13,-2,6,-7,2.068864751
11.546843,-32,13,-1,24,67,-41,-5,-7,2.068864751
11.546875,10,-22,-4,-18,-10,17,-31,43,2.068864751
11.548248,-9,37,8,9,-27,-86,1,-15,2.068864751
11.548259,37,-41,-1,-31,-99,90,31,19,2.068864751
11.561476,-12,2,0,5,-44,1,-12,-1,2.068864751
11.561506,45,-2,-9,12,95,-8,1,-36,2.068864751
11.569398,33,12,-1,4,44,-10,18,34,2.068864751
11.569428,-16,-1,3,1,-27,-39,11,10,2.068864751
11.584316,-46,-18,-1,-6,1,-27,-20,-9,2.068864751
11.584331,-15,-21,-4,5,-7,-27,14,-29,2.068864751
11.584978,20,16,1,-22,-54,66,0,36,2.068864751
11.584990,12,8,1,16,96,-12,5,5,2.068864751
11.606865,-62,-31,2,-4,-35,64,3,-5,2.068864751
11.606888,29,20,-4,3,-11,-58,-13,23,2.068864751
11.608166,-8,33,1,-8,-8,26,-18,-40,2.068864751
11.608179,-3,-25,-2,4,15,13,4,16,2.068864751
11.621192,15,36,1,-41,-118,-9,-10,1,2.068864751
11.621213,2,6,4,70,127,11,-4,-3,2.068864751
11.629278,8,-5,3,-8,-51,-102,-43,-7,2.068864751
11.629297,-22,-1,-5,-1,-49,50,-25,-14,2.068864751
11.644371,30,-10,0,-11,-24,-20,23,8,2.068864751
11.644406,17,5,2,-16,24,-6,7,20,2.068864751
11.646752,-52,0,-5,-8,2,10,14,8,2.068864751
11.646760,41,0,1,15,-34,-45,-12,36,2.068864751
11.667262,37,-4,-2,10,21,9,-17,-40,2.068864751
11.667281,-14,-78,-10,-25,-75,-3,4,-16,2.068864751
11.669950,-47,4,1,10,70,-13,3,-80,2.068864751
11.669959,-19,7,0,-3,1,24,3,0,2.068864751
11.690020,24,4,2,-2,-31,-69,-18,-21,2.068864751
11.690043,5,17,2,5,102,53,31,35,2.068864751
11.692025,-11,-17,-8,-10,94,49,20,-42,2.068864751
11.692036,-26,15,-3,-1,-9,35,16,-17,2.068864751
11.704756,34,-27,0,-6,82,14,4,47,2.068864751
11.704798,-24,-6,-4,27,-40,-11,-14,-15,2.068864751
11.707374,-22,-55,-10,-56,22,22,7,34,2.068864751
11.707387,-46,5,-7,13,19,-26,-3,-9,2.068864751
11.726695,33,-4,2,4,68,49,1,1,2.068864751
11.726714,-41,29,1,-27,-67,-2,-5,-12,2.068864751
11.727651,-3,-2,-6,7,-21,9,13,8,2.068864751
11.727713,-24,19,3,9,56,-37,-8,5,2.068864751
11.750136,-15,-10,0,-18,-33,38,-9,-7,2.068864751
11.750160,28,-6,-7,17,39,-53,5,-60,2.068864751
11.751871,19,-7,1,14,-16,18,-10,20,2.068864751
11.751878,35,16,6,-16,64,-42,-11,-4,2.068864751
11.764584,-76,4,-1,19,78,-10,0,-13,2.079847558
11.764616,40,7,10,-6,-59,-54,18,18,2.079847558
11.765856,20,17,-4,-16,19,88,-4,-11,2.079847558
11.765869,-3,-30,-10,9,7,-61,-24,-40,2.079847558
11.788013,7,24,-1,4,-12,83,1,8,2.079847558
11.788043,-44,4,3,-10,4,-14,16,7,2.079847558
11.788049,47,-32,0,7,-98,-4,1,-1,2.079847558
11.788054,38,-11,-4,-7,-23,-27,-2,1,2.079847558
11.810172,-36,16,-5,-3,26,-46,1,-26,2.079847558
11.810196,0,-9,2,3,-9,64,12,-3,2.079847558
11.812387,-42,3,0,-4,-116,-85,-13,-21,2.079847558
11.812393,21,-7,0,5,-5,-18,24,-7,2.079847558
11.824405,38,-7,-4,9,13,28,-5,12,2.079847558
11.824429,1,22,2,-21,-53,-29,12,11,2.079847558
11.826406,-5,17,5,-3,-11,-18,-1,-23,2.079847558
11.826413,18,-15,-2,0,24,5,17,-23,2.079847558
11.848367,7,-16,-4,9,-42,-42,-22,25,2.079847558
11.848374,-12,1,-1,-13,83,59,-12,-13,2.079847558
11.848377,-21,20,4,39,39,-44,-45,-18,2.079847558
11.848379,-27,-31,5,-12,-93,-73,-13,7,2.079847558
11.870326,6,-20,-9,-11,52,82,24,10,2.079847558
11.870353,78,21,-3,-8,-27,20,-9,-10,2.079847558
11.872874,-19,4,-1,15,20,-46,17,23,2.079847558
11.872886,36,5,0,0,-9,49,0,44,2.079847558
11.884681,-1,-7,0,-33,-35,-41,-7,-46,2.079847558
11.884711,-16,3,-2,29,77,44,-3,-32,2.079847558
11.887755,3,10,-1,-4,-54,71,28,52,2.079847558
11.887776,-9,-7,3,-10,-59,-21,-13,-9,2.079847558
11.907038,9,4,-1,4,15,-9,4,18,2.079847558
11.907064,-29,-6,2,-17,-92,-35,-20,-1,2.079847558
11.909987,29,-8,0,20,119,18,-29,13,2.079847558
11.909998,-1,-3,-7,-1,-33,-47,-20,22,2.079847558
11.930247,5,-4,2,4,24,-22,17,-9,2.079847558
11.930271,-51,-7,0,-7,-54,50,-12,-6,2.079847558
11.931065,88,-10,-3,-6,-43,0,30,47,2.079847558
11.931088,-31,12,1,4,66,-23,9,8,2.079847558
11.944261,27,-10,-9,-3,9,37,-43,-24,2.079847558
11.944302,4,-11,-1,7,-48,-106,7,21,2.079847558
11.944942,-54,22,0,-19,-1,-50,-8,-28,2.079847558
11.944981,12,7,1,9,95,59,22,5,2.079847558
11.974968,-3,5,-1,-24,-84,-34,12,-21,2.079847558
11.974981,-19,-17,1,22,127,-28,-6,44,2.079847558
11.975662,-20,-36,-5,-15,37,45,-18,-79,2.079847558
11.975682,-6,9,1,-1,-44,2,22,42,2.079847558
11.989945,2,6,1,11,-24,16,12,22,2.079847558
11.989963,-5,1,1,-37,-36,-5,4,20,2.079847558
11.990679,1,0,1,25,-2,11,-5,6,2.079847558
11.990689,-21,17,-4,1,-7,-2,-17,-74,2.079847558
12.004286,16,-12,-5,-11,-19,-1,5,19,2.079847558
12.004306,62,14,6,2,-124,4,-11,16,2.079847558
12.005216,-4,-23,-5,-3,84,-21,12,-16,2.079847558
12.005234,0,-15,-3,-22,36,14,-15,45,2.079847558
12.026753,-24,25,4,38,10,-25,2,0,2.053938585
12.026772,14,-17,-3,-8,75,2,-18,7,2.053938585
12.027926,-2,14,10,8,41,-17,9,-25,2.053938585
12.027942,-10,-7,-5,-37,-57,-5,-10,-28,2.053938585
12.050149,-4,-33,2,28,20,14,-11,35,2.053938585
12.050163,39,-3,-4,7,8,16,27,-13,2.053938585
12.050547,-45,0,10,13,16,-2,8,35,2.053938585
12.050569,32,-19,-23,-47,-77,-40,-46,-22,2.053938585
12.064804,29,-11,-4,24,9,-39,28,2,2.053938585
12.064818,-58,11,4,12,34,3,-14,6,2.053938585
12.064824,0,6,9,3,-15,28,3,75,2.053938585
12.064829,46,4,3,5,32,-69,18,4,2.053938585
12.087593,-49,-5,-10,3,54,85,1,-87,2.053938585
12.087617,-12,-13,-11,-55,-20,-24,-30,1,2.053938585
12.087622,11,5,-3,-12,25,-29,13,-3,2.053938585
12.087627,-44,19,8,46,25,69,16,10,2.053938585
12.111894,18,3,1,-20,0,6,-16,14,2.053938585
12.111900,11,6,1,29,29,-22,16,-10,2.053938585
12.111903,-39,-9,-1,0,-44,11,-26,-40,2.053938585
12.111906,-14,18,-1,-14,-82,68,15,-21,2.053938585
12.124456,34,-35,-4,-14,-16,-34,-5,-13,2.053938585
12.124499,-11,8,-1,-14,-60,-11,-8,-34,2.053938585
12.126759,46,5,-3,5,0,7,5,55,2.053938585
12.126769,-16,-18,1,20,35,-22,1,11,2.053938585
12.146755,-10,30,6,-23,-70,41,14,-35,2.053938585
12.146809,-21,8,6,31,29,-32,5,18,2.053938585
12.147563,1,2,-3,11,24,-43,-26,-24,2.053938585
12.147578,-21,-18,-1,-5,-36,-7,-26,42,2.053938585
12.170772,10,25,2,-22,78,39,19,36,2.053938585
12.170791,35,-3,-4,9,-20,62,16,28,2.053938585
12.173117,-6,19,-1,11,39,-66,-4,-35,2.053938585
12.173133,-8,-39,-2,-14,22,111,25,4,2.053938585
12.183927,-15,10,4,-14,-10,-72,-17,-52,2.053938585
12.183951,-4,4,0,30,94,-21,43,20,2.053938585
12.191919,40,10,-7,-6,-62,3,-23,-7,2.053938585
12.191943,0,27,8,5,-8,-13,-12,-3,2.053938585
12.206676,17,-9,2,13,-46,17,-11,15,2.053938585
12.206693,30,-19,-6,-6,101,-47,3,8,2.053938585
12.207342,-23,-4,2,-28,-33,55,12,-43,2.053938585
12.207352,-10,-1,2,10,47,-36,6,17,2.053938585
12.230192,-11,1,-5,1,-24,-11,-12,19,2.053938585
12.230223,5,-5,-3,16,5,20,-24,-12,2.053938585
12.232099,-66,8,0,-12,0,81,-2,-17,2.053938585
12.232106,35,3,-5,-18,-73,-5,1,-11,2.053938585
12.245380,0,11,-1,16,77,1,18,-14,2.053938585
12.245412,-33,16,7,-14,-7,24,-26,-44,2.053938585
12.252013,10,-16,-4,-10,-79,-109,6,45,2.053938585
12.252028,-24,0,-2,36,90,56,-10,-54,2.053938585
12.267036,10,44,15,-3,-15,-68,3,27,2.053938585
12.267056,11,-11,-4,-23,-80,-9,-16,15,2.053938585
12.268853,-10,4,-1,2,67,5,10,11,2.053938585
12.268861,3,-5,-1,6,65,27,-9,-9,2.053938585
12.290100,7,-24,-9,-14,15,-5,-9,10,2.066178759
12.290125,-15,9,0,-1,-31,22,17,-8,2.066178759
12.291299,14,-1,0,-1,-49,-10,23,36,2.066178759
12.291311,-25,22,5,-12,12,-34,18,22,2.066178759
12.304040,43,-28,-7,9,3,-4,-10,-4,2.066178759
12.304061,-28,-2,-3,-3,23,92,0,10,2.066178759
12.311869,15,-26,-4,-9,3,3,-8,-27,2.066178759
12.312635,-16,22,0,32,-43,-82,2,-13,2.066178759
12.326941,-49,-1,1,-18,-44,32,11,0,2.066178759
12.326972,10,-10,-2,-26,49,-68,-47,-26,2.066178759
12.328861,32,5,-2,22,31,40,33,-28,2.066178759
12.328874,24,-9,-4,4,-50,46,-36,0,2.066178759
12.350322,3,16,0,-20,66,47,-13,1,2.066178759
12.350344,-15,-14,-4,4,-92,-98,-19,16,2.066178759
12.351088,16,10,-8,-23,-55,78,15,15,2.066178759
12.351108,-18,-27,-2,-20,-34,-12,6,26,2.066178759
12.363754,-18,7,-3,33,29,23,3,-14,2.066178759
12.363790,2,3,0,11,39,-4,11,14,2.066178759
12.372229,25,-5,4,-9,19,-39,-7,2,2.066178759
12.372249,-39,4,-3,-11,-47,-38,16,-22,2.066178759
12.387623,19,-5,-6,-8,10,16,-7,29,2.066178759
12.387667,22,4,8,5,-81,38,17,26,2.066178759
12.387673,6,-16,-13,-21,36,-22,-55,-49,2.066178759
12.387678,-8,15,2,17,106,-8,38,-2,2.066178759
12.410047,24,-17,-2,-3,-66,-53,15,83,2.066178759
12.410086,-8,6,-2,-6,90,3,-22,-34,2.066178759
12.410683,-26,-43,4,24,-68,-70,21,-10,2.066178759
12.410717,4,-3,-6,-36,44,96,-46,-41,2.066178759
12.425335,7,-7,5,25,-41,-77,9,-1,2.066178759
12.425342,3,1,-4,-16,19,41,21,72,2.066178759
12.432114,7,21,3,1,-8,0,-10,31,2.066178759
12.432134,13,-13,-4,1,11,-30,-10,-15,2.066178759
12.446883,-24,17,1,-3,-5,4,5,-48,2.066178759
12.446900,3,-6,4,2,-26,12,-4,-36,2.066178759
12.449180,-107,9,3,17,12,-30,-22,12,2.066178759
12.449186,104,16,-7,-21,-59,-4,8,15,2.066178759
12.472193,-33,-12,-7,-18,31,-5,-8,-20,2.066178759
12.472208,0,-1,3,46,-6,-57,11,-14,2.066178759
12.472211,-3,9,-2,-19,76,27,10,2,2.066178759
12.472213,-41,0,4,14,91,-35,12,22,2.066178759
12.484114,29,1,-3,1,-38,52,-10,-5,2.066178759
12.484145,14,7,-7,-35,33,28,7,-61,2.066178759
12.491918,-3,-12,-4,4,-2,0,19,11,2.066178759
12.491977,9,-10,2,11,-44,29,10,17,2.066178759
12.506781,7,-13,-1,6,31,-70,-13,-4,2.066178759
12.506845,3,-2,5,-20,-76,33,13,90,2.066178759
12.507479,-26,9,-1,37,28,23,-21,-78,2.066178759
12.507531,8,6,0,-7,80,-48,7,22,2.066178759
12.529986,22,-14,1,2,-20,-8,2,66,2.095995036
12.531076,9,10,-6,-4,-3,19,3,-11,2.095995036
12.531086,17,28,0,12,-16,-86,-18,23,2.095995036
12.531092,-14,-19,-4,-20,-128,97,7,22,2.095995036
12.544075,-29,6,5,1,120,-42,-9,-13,2.095995036
12.544120,-20,-2,0,3,-1,-89,-35,42,2.095995036
12.552075,-8,-3,-8,-34,-10,15,-3,-15,2.095995036
12.552103,-3,3,-3,8,127,24,3,8,2.095995036
12.566903,-20,1,4,11,-32,-2,15,0,2.095995036
12.566918,27,0,-4,-26,-76,61,-1,-46,2.095995036
12.567406,64,-56,-11,-23,-26,2,-7,-64,2.095995036
12.567420,-8,8,5,26,-44,-54,3,31,2.095995036
12.590054,-5,-12,-5,-9,-28,26,7,-12,2.095995036
12.590095,-8,7,3,20,54,-27,-12,7,2.095995036
12.592799,1,11,1,-24,-100,29,2,38,2.095995036
12.592807,-47,-1,6,17,-39,-19,-2,-29,2.095995036
12.603606,42,-1,-12,-15,59,113,24,16,2.095995036
12.603629,-27,-17,-7,-53,-90,-112,-36,59,2.095995036
12.611882,16,2,3,74,126,34,21,23,2.095995036
12.611899,-7,-12,-5,-37,-104,36,-18,15,2.095995036
12.627869,-21,33,18,42,-78,-109,51,-6,2.095995036
12.627878,-17,-8,-12,-36,54,123,-5,-23,2.095995036
12.627880,18,-35,-2,-23,-34,-18,-16,-2,2.095995036
12.627883,-28,-3,4,17,21,-91,-4,-20,2.095995036
12.650082,29,-17,-4,3,-20,-28,-10,-19,2.095995036
12.652407,-7,40,6,18,25,22,29,0,2.095995036
12.652420,37,4,-2,-15,-70,-37,2,7,2.095995036
12.652426,-2,1,-4,6,34,23,-15,-4,2.095995036
12.672667,-21,-40,-4,-22,3,-10,-21,-12,2.095995036
12.672693,-6,21,2,19,11,-21,4,-5,2.095995036
12.675050,-40,-16,3,4,8,22,-4,20,2.095995036
12.675063,29,3,6,16,85,45,10,-23,2.095995036
12.687355,62,26,-3,-17,-109,-4,-16,10,2.095995036
12.687397,-34,-34,-11,13,79,-103,-42,-79,2.095995036
12.690494,12,16,-2,-38,39,49,33,1,2.095995036
12.690513,-5,-19,-3,8,63,91,14,12,2.095995036
12.710190,-13,7,4,-4,-4,-48,0,-15,2.095995036
12.710209,0,32,-3,13,-4,25,21,-6,2.095995036
12.710893,-16,-15,2,1,-128,-58,-9,-50,2.095995036
12.710905,-66,14,2,-13,36,-47,-9,19,2.095995036
12.732666,-31,12,-3,1,32,54,-20,-46,2.095995036
12.732690,12,-28,-1,3,-52,-47,-2,-70,2.095995036
12.734427,-16,-13,-1,6,75,40,7,13,2.095995036
12.734438,31,42,-4,8,-66,-36,0,-12,2.095995036
12.747056,-55,-6,8,-4,81,-32,-11,-27,2.095995036
12.747086,-20,-20,-10,-11,-76,60,24,-21,2.095995036
12.748527,17,12,-1,-8,92,-77,-14,21,2.095995036
12.748536,39,-18,0,-9,-91,-26,-3,-16,2.095995036
12.771209,-38,30,-3,1,96,61,28,28,2.095995036
12.771243,52,-30,-3,13,47,-43,-2,24,2.095995036
12.771248,-12,15,-10,-5,-93,91,-21,20,2.095995036
12.771338,3,2,3,-17,-50,-46,5,-41,2.095995036
12.792742,-36,-1,-6,20,4,-14,-27,10,2.093944490
12.792774,7,-6,4,4,39,38,7,9,2.093944490
12.795938,5,12,2,5,-40,7,30,6,2.093944490
12.795945,-47,-8,-1,-10,39,-56,-15,16,2.093944490
12.807484,44,11,-4,-10,-94,62,-12,-93,2.093944490
12.807508,54,-8,-3,9,76,-4,-12,40,2.093944490
12.810217,-70,7,-5,1,-87,-63,14,-3,2.093944490
12.810225,18,-34,1,-2,114,13,17,9,2.093944490
12.829970,-36,13,2,20,21,-19,-1,73,2.093944490
12.830005,-23,13,8,-42,-83,-65,-3,-14,2.093944490
12.830784,23,1,-3,8,127,108,14,36,2.093944490
12.830818,37,-10,-5,22,93,77,37,5,2.093944490
12.852613,-16,-10,3,-10,-92,-106,-46,-1,2.093944490
12.854057,7,8,0,21,108,38,15,-4,2.093944490
12.854075,-17,-6,-1,-22,6,72,-13,-3,2.093944490
12.854078,7,12,3,-2,-26,-45,1,57,2.093944490
12.867164,53,4,0,0,25,18,-29,7,2.093944490
12.867185,-41,11,-9,8,-22,14,58,-25,2.093944490
12.869293,-27,-53,1,-6,-16,-40,-15,-35,2.093944490
12.869300,1,2,-4,-4,-63,-38,-29,-18,2.093944490
12.890230,-23,7,1,-3,39,-9,11,14,2.093944490
12.892538,-10,22,18,42,86,110,-2,58,2.093944490
12.892548,58,-3,-1,-1,-3,-73,-6,100,2.093944490
12.892551,15,39,-6,-36,-106,-28,7,-56,2.093944490
12.913125,30,-17,-7,4,86,36,-3,21,2.093944490
12.913152,1,-7,2,25,-19,-12,-8,-12,2.093944490
12.915195,-3,17,4,3,79,-10,-24,37,2.093944490
12.915202,-7,-26,7,8,-19,-29,8,-5,2.093944490
12.926876,-40,36,-11,-17,-78,62,16,-54,2.093944490
12.926940,34,-23,-8,-15,-26,-40,-28,21,2.093944490
12.927557,6,17,4,3,-33,-11,-2,-33,2.093944490
12.927565,9,-21,-5,-12,-33,13,24,-21,2.093944490
12.950139,-9,-29,-6,-9,50,-34,-6,-9,2.093944490
12.950230,-46,11,2,6,9,-48,-28,-27,2.093944490
12.951831,31,-27,-5,-21,26,57,31,33,2.093944490
12.951843,12,4,-1,13,6,-7,-22,-64,2.093944490
12.972556,-7,-10,1,-20,-77,48,15,16,2.093944490
12.972579,-27,22,3,-7,46,26,4,12,2.093944490
12.973349,49,-10,-1,0,-46,-72,-9,-20,2.093944490
12.973369,-15,18,-3,25,115,29,9,31,2.093944490
12.986937,1,-14,1,-1,40,51,-16,19,2.093944490
12.986964,-21,-27,-5,-26,-116,-22,19,59,2.093944490
12.990175,-17,69,7,29,75,-22,-4,-95,2.093944490
12.990207,1,-25,-3,-29,-33,45,12,89,2.093944490
13.010112,7,3,11,43,13,-114,-9,19,2.093944490
13.010137,-38,-4,-3,-19,61,96,35,-33,2.093944490
13.011738,-5,24,-6,-15,1,9,-43,-13,2.093944490
13.011759,-26,22,0,6,-40,-5,-9,-18,2.093944490
13.032480,11,-7,3,-5,-9,-40,5,-46,2.093944490
13.032495,13,-15,-3,9,36,43,-15,11,2.093944490
13.033112,-18,6,2,8,-48,12,14,-19,2.093944490
13.033123,3,0,1,-11,75,-44,-9,-1,2.093944490
13.047143,14,-6,-3,-14,-113,-6,18,80,2.097671525
13.047165,17,-16,-2,10,66,-40,-9,-30,2.097671525
13.047525,-31,16,-2,-27,0,-24,0,-12,2.097671525
13.047533,18,-17,0,34,17,45,-1,-22,2.097671525
13.070152,8,13,1,1,67,42,-13,-8,2.097671525
13.070176,-43,-1,0,-11,-31,-24,-4,-28,2.097671525
13.071201,64,0,-2,17,-62,40,45,57,2.097671525
13.071213,-22,3,-4,-45,-67,-56,-35,-1,2.097671525
13.092549,45,-12,-10,-21,-72,19,-7,-31,2.097671525
13.092579,12,10,2,6,35,-17,4,30,2.097671525
13.094881,-11,-21,3,4,39,32,-5,-68,2.097671525
13.094890,-24,36,-4,-10,-21,-22,-17,4,2.097671525
13.106865,5,-27,-4,10,-6,38,12,-7,2.097671525
13.106884,43,24,1,-2,16,-37,-24,4,2.097671525
13.108000,9,-31,-3,-5,-32,-19,-4,-2,2.097671525
13.108011,12,-6,1,2,7,-4,19,14,2.097671525
13.130034,-25,-2,3,9,-38,-12,1,-6,2.097671525
13.130086,3,9,-1,8,47,44,8,-11,2.097671525
13.130758,-48,-16,-10,-19,-18,36,-51,15,2.097671525
13.130784,18,12,2,-12,-47,26,2,-2,2.097671525
13.152609,-23,-42,-4,-17,44,4,2,8,2.097671525
13.152634,9,-17,-3,4,-103,-49,-19,-5,2.097671525
13.154382,0,39,2,2,7,-58,8,22,2.097671525
13.154394,-30,7,-1,2,37,26,-20,13,2.097671525
13.167237,60,-38,-5,-14,17,-22,-5,-18,2.097671525
13.167268,-14,-3,5,4,-37,-20,-27,-23,2.097671525
13.170771,-16,-10,-1,6,24,4,28,91,2.097671525
13.170786,-2,-43,3,-4,-30,-37,-9,-73,2.097671525
13.190147,15,31,0,10,-20,-11,9,-31,2.097671525
13.190184,30,-31,-10,-23,55,-27,8,-35,2.097671525
13.190753,-12,-3,9,32,77,16,7,-22,2.097671525
13.190760,-25,16,3,-39,-84,-78,-16,13,2.097671525
13.212673,-31,-11,-2,47,85,54,-10,-5,2.097671525
13.212696,34,4,-7,2,-54,82,7,-24,2.097671525
13.214493,1,-29,0,-13,-9,-56,-26,-8,2.097671525
13.214501,15,31,3,15,0,-47,17,3,2.097671525
13.226304,-46,15,0,-23,-2,48,-2,14,2.097671525
13.226325,32,-3,3,13,-37,-53,-12,23,2.097671525
13.235223,46,15,0,2,20,9,-4,26,2.097671525
13.235260,-6,-7,-5,-2,-72,47,28,-34,2.097671525
13.251924,-39,15,8,2,25,-31,38,22,2.097671525
13.251932,-14,-24,-9,5,26,22,-50,-18,2.097671525
13.251934,19,53,-2,-27,-69,19,9,-53,2.097671525
13.251937,-17,-82,-6,-16,26,-33,-15,-64,2.097671525
13.272613,-23,9,-1,1,-99,-90,-7,-15,2.097671525
13.272632,-10,19,6,16,-8,102,25,-3,2.097671525
13.273850,-3,1,-3,18,92,-5,-21,-57,2.097671525
13.275694,22,0,1,8,-17,-69,-6,49,2.097671525
13.286806,15,15,-1,-24,-14,19,-34,0,2.097671525
13.286842,-14,-24,-4,-12,12,-2,10,0,2.097671525
13.295312,-35,-18,3,3,-64,-23,25,7,2.097671525
13.295319,-2,-2,-9,-2,32,48,-25,-10,2.097671525
13.310682,19,-9,-3,14,19,-31,28,35,2.092560935
13.310725,-13,16,4,6,-20,-54,7,6,2.092560935
13.313020,-22,-19,1,7,-26,40,-4,5,2.092560935
13.313029,78,16,3,13,68,56,13,39,2.092560935
13.333032,32,4,0,1,-7,-50,-26,-19,2.092560935
13.333058,-6,-22,2,-5,49,8,27,-19,2.092560935
13.334043,-23,-1,1,6,-32,-54,0,21,2.092560935
13.334063,3,-4,-5,-14,21,12,1,20,2.092560935
13.346165,-66,8,3,11,25,-8,4,-8,2.092560935
13.346217,70,3,0,-9,7,7,-16,15,2.092560935
13.362590,-39,-13,-4,-7,-18,-15,19,45,2.092560935
13.362611,-42,-55,-5,10,11,27,-11,-38,2.092560935
13.371017,-11,-3,-4,-6,-70,44,45,29,2.092560935
13.371062,-34,24,6,-7,30,-92,-16,-9,2.092560935
13.373907,5,3,-2,3,38,9,-1,-62,2.092560935
13.373919,-2,21,-8,3,-33,-35,-2,-28,2.092560935
13.392601,3,7,4,4,66,49,8,11,2.092560935
13.392613,-5,-20,0,-18,-39,12,-3,-13,2.092560935
13.394092,-3,8,0,-6,-89,54,2,6,2.092560935
13.394107,-15,9,5,12,75,-26,-27,-11,2.092560935
13.406612,-59,-23,-6,-17,75,18,-5,-21,2.092560935
13.406625,-23,-27,-5,4,-35,-25,-10,40,2.092560935
13.416303,-3,1,2,-29,-23,-41,1,-49,2.092560935
13.416310,46,6,-5,49,87,49,18,46,2.092560935
13.429981,-3,-1,-5,-24,-37,33,-11,-5,2.092560935
13.430005,-39,5,-4,13,-86,-14,19,41,2.092560935
13.431981,16,-32,-8,-23,-3,-44,12,27,2.092560935
13.431994,23,22,11,18,56,58,-6,-22,2.092560935
13.454180,35,16,2,-1,-41,-92,13,34,2.092560935
13.454198,-27,11,0,-10,25,54,-5,12,2.092560935
13.454328,-1,9,-4,3,20,44,-2,-2,2.092560935
13.454330,-4,-40,3,-35,-128,-30,-6,6,2.092560935
13.466618,115,-8,-9,37,108,13,-14,-25,2.092560935
13.466649,-48,0,7,-14,-128,-52,9,-6,2.092560935
13.475969,16,3,2,19,48,3,-36,11,2.092560935
13.475982,-48,4,-6,10,79,16,7,-44,2.092560935
13.490525,-15,10,1,-30,-108,19,4,43,2.092560935
13.490545,31,10,2,14,108,1,14,60,2.092560935
13.491893,-23,-27,-4,-2,-28,-18,-16,-45,2.092560935
13.491906,77,-13,-3,-9,-57,-5,18,52,2.092560935
13.512822,-73,39,1,4,13,-26,-36,-28,2.092560935
13.512840,32,15,-1,12,-4,-2,22,-33,2.092560935
13.514217,-9,13,4,-22,-20,17,21,8,2.092560935
13.514300,-35,-5,1,5,9,26,4,-11,2.092560935
13.526436,6,8,-3,-7,-22,-17,-42,-21,2.092560935
13.526467,30,-11,-6,4,-48,-72,1,10,2.092560935
13.538638,5,27,5,-4,27,44,9,60,2.092560935
13.538649,-30,-32,0,-1,14,22,3,-12,2.092560935
13.550113,-38,-6,5,-15,1,-53,7,21,2.092560935
13.550139,66,19,-11,-9,46,-4,-10,-33,2.092560935
13.551546,25,-12,-1,3,-14,-27,-11,-3,2.092560935
13.551561,14,28,2,-2,-13,0,6,3,2.092560935
13.572733,0,-17,0,8,-3,10,3,-5,2.086562526
13.572757,-23,-9,-3,-13,-9,9,-1,22,2.086562526
13.574035,30,10,5,21,14,-30,22,0,2.086562526
13.574084,-44,11,-1,3,-53,48,5,71,2.086562526
13.595272,-3,-31,-8,-21,72,-7,-2,-44,2.086562526
13.595280,16,22,3,-32,-35,29,-2,-9,2.086562526
13.596562,-42,-4,-4,17,116,68,-6,-55,2.086562526
13.596582,-52,19,2,-8,-49,21,17,8,2.086562526
13.610213,23,-14,-3,11,-7,-20,6,-37,2.086562526
13.610231,-16,-8,0,2,-36,-45,-7,-19,2.086562526
13.611709,14,1,-3,4,-71,66,17,34,2.086562526
13.611734,13,10,0,-27,-30,-36,-9,29,2.086562526
13.640696,-23,6,4,21,30,8,17,45,2.086562526
13.640710,-12,-25,-1,6,55,26,-25,-2,2.086562526
13.641695,-1,20,-4,0,-42,-84,-19,-16,2.086562526
13.641713,9,7,-8,-15,41,17,9,-3,2.086562526
13.655830,17,23,1,-25,-128,8,21,23,2.086562526
13.655842,-17,-11,3,31,124,18,0,20,2.086562526
13.656764,-13,-11,0,11,-22,-16,-15,5,2.086562526
13.656783,9,7,4,5,107,-61,-4,-7,2.086562526
13.672101,38,-16,-5,-29,-68,1,-10,-35,2.086562526
13.672121,-5,-2,-1,30,79,-7,9,80,2.086562526
13.672127,14,13,-3,-13,-59,86,12,5,2.086562526
13.672133,2,2,-1,5,-5,-41,-16,42,2.086562526
13.692758,-28,18,5,28,9,-15,-1,39,2.086562526
13.692781,26,-58,-3,-47,-61,-56,-6,0,2.086562526
13.693979,-7,-7,2,49,59,15,-13,15,2.086562526
13.693993,-83,3,-1,-9,-45,-25,0,-37,2.086562526
13.715505,-6,-11,3,3,-3,16,1,28,2.086562526
13.715537,13,23,-6,-10,-80,-7,6,-60,2.086562526
13.717894,20,-13,-6,-10,34,-34,-9,2,2.086562526
13.717904,-15,-11,-5,15,45,20,-13,-27,2.086562526
13.729043,12,3,4,-11,-26,0,-15,-11,2.086562526
13.729059,-18,12,-4,-6,-16,-18,-5,-5,2.086562526
13.739532,7,0,4,-22,-31,-12,-3,3,2.086562526
13.739544,-26,-22,-2,17,32,-17,10,-57,2.086562526
13.752878,-7,26,1,10,-3,3,-14,7,2.086562526
13.752900,20,33,12,18,-47,-39,3,-1,2.086562526
13.754115,-27,-4,-9,-26,27,21,-6,-2,2.086562526
13.754132,53,10,4,19,4,11,-36,-2,2.086562526
13.775417,-7,-12,6,7,-13,-22,0,-35,2.086562526
13.775449,-32,3,-6,-18,21,75,-11,55,2.086562526
13.777921,-85,27,-1,-14,62,-83,43,7,2.086562526
13.777929,88,-19,-9,2,-12,-32,0,-75,2.086562526
13.789540,-18,-3,-8,-16,-20,18,-1,32,2.086562526
13.789571,13,4,0,-1,-45,-9,-6,2,2.086562526
13.796278,-2,10,5,18,11,-6,-27,1,2.086562526
13.796299,-11,8,0,-11,1,26,8,34,2.086562526
13.812573,7,-13,3,18,48,-39,3,-42,2.088500405
13.812580,-6,-38,-4,-27,-43,4,8,-23,2.088500405
13.814023,-7,-5,-4,16,16,37,8,-1,2.088500405
13.814057,39,-9,0,-22,8,4,-42,12,2.088500405
13.835690,-15,-28,-1,10,2,3,2,-49,2.088500405
13.835722,69,49,-8,5,51,-24,-27,1,2.088500405
13.837130,49,21,5,-6,38,-2,13,-1,2.088500405
13.837142,-80,-4,-2,-32,-62,-31,8,-8,2.088500405
13.849566,26,7,0,33,60,61,15,17,2.088500405
13.849590,-12,-11,1,-16,-30,33,1,-14,2.088500405
13.856364,-19,-14,2,27,10,-31,4,17,2.088500405
13.856382,-10,19,-2,-5,-35,22,6,13,2.088500405
13.872725,60,-6,-3,-14,-9,-39,-49,0,2.088500405
13.872787,-16,-4,-3,3,10,10,28,-5,2.088500405
13.874204,5,-5,-1,-10,-53,-23,-10,-16,2.088500405
13.874276,23,-22,-8,-4,-36,-5,-2,16,2.088500405
13.895601,-9,-6,-6,-3,6,50,-5,7,2.088500405
13.895630,-8,4,3,3,54,36,0,-1,2.088500405
13.898096,16,-8,6,15,-50,16,11,-7,2.088500405
13.898108,-20,-15,-9,-9,-31,64,-39,24,2.088500405
13.910139,-34,-3,5,-36,-64,1,85,-24,2.088500405
13.910158,-1,-31,-15,34,64,14,-29,-27,2.088500405
13.916676,-1,7,4,-46,-128,-35,-3,-10,2.088500405
13.916703,34,9,6,45,85,23,-14,77,2.088500405
13.933109,23,2,-7,-9,80,-75,13,25,2.088500405
13.933141,-49,-9,5,-5,-19,113,-7,72,2.088500405
13.935684,21,4,1,-2,60,-45,11,13,2.088500405
13.935696,-54,2,-1,10,-47,-60,-23,-42,2.088500405
13.955348,58,-39,-9,-17,-15,20,14,-16,2.088500405
13.955373,-5,23,9,17,3,-56,0,-29,2.088500405
13.956621,40,-17,-7,8,11,-8,-19,25,2.088500405
13.956637,10,41,5,-14,38,56,19,-10,2.088500405
13.970004,-15,-4,-3,44,-104,-67,-16,46,2.088500405
13.970050,-8,3,5,-69,-45,-43,30,-53,2.088500405
13.976372,14,-18,-4,16,-101,-35,-12,47,2.088500405
13.976392,8,4,-6,-3,-34,34,30,24,2.088500405
13.992895,23,35,4,3,31,39,-29,-17,2.088500405
13.992926,-26,-47,-4,18,-31,-85,-1,2,2.088500405
13.995449,-72,11,5,-4,6,90,-2,-9,2.088500405
13.995456,44,-2,1,-11,-46,-56,27,-18,2.088500405
14.015035,58,6,-9,2,11,29,-30,13,2.088500405
14.015069,-14,15,5,8,42,-28,-1,38,2.088500405
14.016586,-8,-5,-4,-14,3,-29,1,-3,2.088500405
14.016607,-30,2,-2,4,22,-20,-25,-3,2.088500405
14.029312,-53,-14,-1,-26,-44,21,-9,-50,2.088500405
14.029323,-17,30,0,43,59,-6,14,-74,2.088500405
14.037030,16,-38,0,2,-89,0,-37,51,2.088500405
14.037063,24,4,4,-23,-26,-56,29,-10,2.088500405
14.053227,-24,8,-1,12,3,18,-16,7,2.088500405
14.053271,9,13,0,-45,-83,13,24,-1,2.088500405
14.055540,-11,-2,-3,73,127,88,17,-14,2.088500405
14.055553,23,16,-4,0,-31,-55,6,0,2.088500405
14.076845,6,10,1,-3,24,-64,0,57,2.097694055
14.076854,-12,-21,3,-29,-71,87,2,-16,2.097694055
14.076857,-30,-61,-7,-12,1,-75,-39,-96,2.097694055
14.076860,0,-4,-4,1,-27,33,2,26,2.097694055
14.089106,-3,12,8,1,28,-10,-4,-12,2.097694055
14.089139,-29,2,-7,18,-5,-9,-7,32,2.097694055
14.104304,-4,18,4,-15,32,-1,14,-9,2.097694055
14.104333,2,-6,1,42,41,-1,-15,4,2.097694055
14.113288,20,-15,-9,-47,-112,-57,14,-22,2.097694055
14.113306,-13,3,2,-9,112,2,-36,-13,2.097694055
14.114837,16,-18,-11,-18,-88,78,33,-47,2.097694055
14.114842,-32,3,1,-19,1,37,-14,11,2.097694055
14.135232,-24,0,3,54,127,29,24,7,2.097694055
14.135256,-17,18,-6,-14,-8,-15,-1,-3,2.097694055
14.138267,51,41,4,-38,-35,50,19,23,2.097694055
14.138281,17,-51,-10,24,28,-17,-21,-60,2.097694055
14.148961,-18,15,1,-13,-22,37,28,47,2.097694055
14.148984,-14,-4,-3,5,-16,-19,-11,-67,2.097694055
14.167604,15,5,7,7,18,-78,4,48,2.097694055
14.167611,-15,17,5,-4,-16,17,8,-24,2.097694055
14.172685,-1,3,2,-3,24,11,-14,36,2.097694055
14.172710,32,-41,3,18,-13,-15,4,-33,2.097694055
14.174229,-26,-12,-12,3,100,-45,-13,-12,2.097694055
14.174242,-15,12,6,-31,7,-7,-12,77,2.097694055
14.195229,-66,-8,-1,8,-44,-26,17,-55,2.097694055
14.195252,85,1,-6,7,15,106,4,30,2.097694055
14.197426,-16,10,-4,-3,45,-61,-49,-9,2.097694055
14.197439,-21,9,3,8,-43,-32,11,-33,2.097694055
14.209212,-31,-26,1,-7,66,-39,-13,-9,2.097694055
14.209244,-7,5,1,9,-40,16,-14,34,2.097694055
14.218797,11,13,-4,-9,-1,-6,0,-24,2.097694055
14.218804,5,1,2,0,6,-59,15,-1,2.097694055
14.233526,12,-2,-1,3,-30,8,-10,-42,2.097694055
14.233540,-3,28,6,-13,-37,17,22,-6,2.097694055
14.234032,-28,18,2,-33,81,-7,-26,-25,2.097694055
14.234038,33,-20,-5,52,44,-24,22,11,2.097694055
14.255299,-6,10,-7,1,15,10,-12,-20,2.097694055
14.255324,-39,-11,-1,-2,-60,-56,3,-56,2.097694055
14.257608,-4,12,-1,-19,-49,8,16,45,2.097694055
14.257620,5,8,6,7,24,70,9,-12,2.097694055
14.269347,6,7,2,-15,-35,-56,9,4,2.097694055
14.269372,-1,5,4,20,-39,-35,-28,80,2.097694055
14.279465,28,-25,-8,5,53,66,7,24,2.097694055
14.279474,2,-47,7,27,-30,36,7,5,2.097694055
14.292813,8,-20,-10,-51,79,68,-3,-26,2.097694055
14.292845,54,21,0,17,55,-103,-5,48,2.097694055
14.294894,-79,-31,-15,-6,55,67,11,-38,2.097694055
14.294905,39,2,-11,-30,-97,90,-16,6,2.097694055
14.315401,-19,-5,2,-15,-21,-33,24,31,2.097694055
14.315436,36,6,7,17,-11,-26,-1,5,2.097694055
14.316969,-4,-1,-3,18,39,-48,-54,-17,2.097694055
14.316982,-22,-12,-2,-10,17,-8,14,6,2.097694055
14.328716,0,7,-3,4,-9,-4,-18,5,2.094160809
14.328732,11,-4,-7,-10,0,26,3,23,2.094160809
14.339995,33,6,6,18,-65,-26,16,-22,2.094160809
14.340009,-33,12,-1,-22,-8,-29,-12,-45,2.094160809
14.353147,-21,-2,1,22,-79,-30,-26,-28,2.094160809
14.353199,14,-10,-15,-40,113,69,-23,-43,2.094160809
14.356845,-26,-47,16,27,5,-70,20,-2,2.094160809
14.356858,33,48,-10,-36,27,-45,22,5,2.094160809
14.375196,-15,-15,-3,-5,26,-27,-21,39,2.094160809
14.375235,-42,10,2,-10,-21,-37,4,-9,2.094160809
14.376819,34,31,-5,17,34,101,26,-45,2.094160809
14.376840,-81,7,0,-1,-3,-24,-13,-29,2.094160809
14.388897,62,33,3,5,-28,-8,27,23,2.094160809
14.388917,-55,-34,-1,-4,-71,4,-31,-1,2.094160809
14.398429,50,30,-5,-10,-29,-47,7,41,2.094160809
14.398442,9,-8,6,8,13,-6,12,18,2.094160809
14.412674,17,-2,-5,6,-22,30,-4,11,2.094160809
14.413907,-48,10,-3,5,21,-21,-3,-24,2.094160809
14.414071,11,19,9,7,2,-29,14,61,2.094160809
14.414115,45,0,-5,-4,-47,-10,13,-11,2.094160809
14.436857,-81,-7,6,-13,61,-23,1,-20,2.094160809
14.436869,39,-16,2,11,-58,3,-9,-34,2.094160809
14.437399,-2,29,-3,-39,-77,13,-15,22,2.094160809
14.437415,3,-24,5,38,98,-21,-13,67,2.094160809
14.449300,8,-21,-7,6,47,92,-5,-9,2.094160809
14.449540,10,38,5,4,-23,-58,49,12,2.094160809
14.458885,35,-5,3,1,-42,-34,-13,-3,2.094160809
14.458893,-34,42,-4,-19,-16,0,-22,-71,2.094160809
14.472758,17,4,-1,13,5,51,-7,-17,2.094160809
14.472782,23,-17,-1,1,20,3,-4,15,2.094160809
14.474177,0,-10,-1,-1,-38,13,8,-7,2.094160809
14.474205,-14,-42,-5,-4,38,1,-7,2,2.094160809
14.495562,-1,1,2,6,19,-17,5,4,2.094160809
14.495581,17,3,-6,-4,57,29,16,-16,2.094160809
14.497477,-1,1,3,-21,-79,46,10,-4,2.094160809
14.497485,24,-23,-6,36,67,-96,-19,4,2.094160809
14.518235,-6,-8,7,-17,-126,87,-9,29,2.094160809
14.518264,-2,-37,-13,13,74,77,0,34,2.094160809
14.521036,-13,17,8,4,53,30,42,18,2.094160809
14.521052,-14,-19,-10,-43,-62,40,-21,-52,2.094160809
14.532986,74,24,-1,6,-49,-70,8,-64,2.094160809
14.533015,66,-28,-11,-5,40,17,-1,55,2.094160809
14.534469,-43,-26,-1,6,-30,12,-11,6,2.094160809
14.534474,-37,-13,8,7,-31,-28,14,18,2.094160809
14.555695,27,-2,1,0,28,-3,-11,-29,2.094160809
14.555721,-20,29,7,5,-20,-29,15,-22,2.094160809
14.558112,34,-9,-11,-31,58,-19,-18,10,2.094160809
14.558126,18,-41,-3,50,49,-8,13,-22,2.094160809
14.578203,-33,-45,-9,-50,-72,-12,-15,16,2.105756526
14.578216,-31,16,10,9,50,-91,50,13,2.105756526
14.579514,9,-8,2,9,-37,-45,-22,-7,2.105756526
14.579528,-2,22,-12,5,35,-19,-53,-6,2.105756526
14.593020,-50,-10,3,-19,51,-71,17,-8,2.105756526
14.593032,2,2,0,1,-126,-1,-46,-3,2.105756526
14.594301,3,-10,-6,-5,11,15,9,-43,2.105756526
14.594322,-14,37,10,-10,-48,19,12,23,2.105756526
14.615240,56,4,-15,4,16,7,-23,12,2.105756526
14.615265,-38,2,3,-6,-14,3,1,83,2.105756526
14.617105,40,5,1,3,-9,-74,-9,-77,2.105756526
14.617118,13,10,3,-15,-41,59,8,57,2.105756526
14.639424,-12,-3,10,41,-26,-11,-4,-4,2.105756526
14.639440,-34,58,-3,-22,-47,7,29,-70,2.105756526
14.639444,-40,-58,-11,23,21,70,15,63,2.105756526
14.639446,-24,1,3,0,6,68,24,20,2.105756526
14.654056,28,28,3,0,87,-34,26,14,2.105756526
14.654072,-10,11,3,16,16,5,-44,-14,2.105756526
14.654226,-42,10,2,-8,-31,-46,4,-38,2.105756526
14.654235,46,3,-5,-18,-29,-37,-4,19,2.105756526
14.675360,-24,-2,-7,5,-16,44,14,3,2.105756526
14.675614,10,-18,2,-4,32,7,13,-35,2.105756526
14.676841,-66,41,-5,-14,-79,-36,-30,-8,2.105756526
14.676858,25,-52,-1,-20,22,-12,-3,24,2.105756526
14.698177,21,2,-2,25,72,10,-10,-26,2.105756526
14.700260,7,9,-6,-4,-69,86,0,-44,2.105756526
14.700271,6,21,5,30,-10,-27,10,55,2.105756526
14.700273,66,39,-3,-13,87,52,30,-3,2.105756526
14.712509,-49,23,9,9,-96,-35,-1,4,2.105756526
14.712539,30,-83,-4,0,48,-27,0,7,2.105756526
14.719169,20,-27,-7,-16,42,42,-12,-35,2.105756526
14.719194,5,19,6,-1,0,-24,-2,-2,2.105756526
14.735734,-7,-11,-1,-7,-68,7,17,12,2.105756526
14.735761,-9,9,4,11,89,10,-13,13,2.105756526
14.736640,14,10,-3,-9,-29,-42,-14,20,2.105756526
14.736651,-44,-18,-1,-1,3,-31,-10,-17,2.105756526
14.757616,9,16,-1,-2,29,20,-5,3,2.105756526
14.757633,-38,-51,-5,-7,-49,-45,-15,-12,2.105756526
14.759272,14,14,2,15,-51,-5,1,4,2.105756526
14.759336,-20,-20,-4,-44,-118,46,-8,0,2.105756526
14.772274,6,-16,2,20,5,26,-7,17,2.105756526
14.772298,40,14,-5,3,-13,-93,-39,36,2.105756526
14.778862,-8,0,3,-33,1,69,-8,31,2.105756526
14.778878,52,7,11,39,74,2,-23,68,2.105756526
14.795258,53,4,3,1,-48,1,21,91,2.105756526
14.795294,-69,-29,1,-6,50,15,-14,-30,2.105756526
14.796595,50,15,-8,3,4,-34,-17,-14,2.105756526
14.796627,-13,-36,0,0,-29,-17,37,-64,2.105756526
14.817836,-29,-2,-2,-16,10,-12,-24,-44,2.105756526
14.817855,21,25,4,18,-22,32,36,16,2.105756526
14.820304,-26,3,5,0,79,-34,-13,33,2.105756526
14.820312,-24,34,-7,-24,-41,47,22,-9,2.105756526
14.832425,1,-11,-7,15,44,-19,7,-21,2.105756526
14.832456,-27,-18,-6,-53,-95,88,-19,-44,2.105756526
14.838914,5,-12,-3,64,56,-51,5,24,2.134072072
14.838932,2,17,-2,-22,-53,-9,-15,-29,2.134072072
14.856911,-23,-20,-1,10,49,-8,3,-11,2.134072072
14.856923,-13,34,2,-7,-83,-9,1,25,2.134072072
14.856927,-32,-44,-13,-22,38,29,5,-30,2.134072072
14.856930,-59,19,8,15,-9,-44,-14,10,2.134072072
14.877829,21,-22,-5,-2,-41,3,-2,-31,2.134072072
14.877856,34,31,-3,-7,39,-115,-15,13,2.134072072
14.880208,-10,13,-6,-10,-34,91,16,33,2.134072072
14.880215,-17,-21,-6,2,81,-86,-8,21,2.134072072
14.892043,-36,15,-2,-22,-31,-2,-7,-35,2.134072072
14.892063,31,13,0,7,48,-62,14,1,2.134072072
14.899251,-17,-27,8,43,-34,-4,-15,-36,2.134072072
14.899280,32,22,-5,-83,-109,5,-10,-15,2.134072072
14.915568,46,2,-2,66,102,4,-13,36,2.134072072
14.915600,-5,-26,-6,-27,-46,29,37,35,2.134072072
14.918489,2,10,-2,24,61,47,1,-2,2.134072072
14.918499,-47,-43,-2,-5,-59,16,3,-33,2.134072072
14.938195,-4,-3,5,-8,5,-124,-8,-53,2.134072072
14.938237,-7,19,-10,-6,-65,127,11,-10,2.134072072
14.940288,-25,5,8,-17,24,-8,18,36,2.134072072
14.940301,5,-13,-4,13,23,-21,-6,-38,2.134072072
14.952189,19,40,-4,-30,-33,11,-28,-31,2.134072072
14.952406,-19,-35,6,59,121,-29,5,25,2.134072072
14.958841,-18,35,1,-23,-83,-75,-15,-30,2.134072072
14.958860,30,9,-3,30,40,42,8,-5,2.134072072
14.975435,-57,8,10,-13,-61,0,9,-3,2.134072072
14.975467,-21,20,-16,-21,-39,67,1,6,2.134072072
14.977685,92,-26,1,-2,-6,-24,23,24,2.134072072
14.977691,3,12,6,2,-34,-32,21,23,2.134072072
14.997801,-6,4,1,25,62,14,-4,30,2.134072072
14.997818,3,-14,7,25,-14,68,55,-13,2.134072072
14.999093,-6,36,-5,-26,41,-65,-53,-60,2.134072072
14.999100,5,-3,-6,8,-47,-6,-7,21,2.134072072
15.012979,-20,6,-5,-41,2,45,13,22,2.134072072
15.012986,1,-4,4,18,66,-51,-27,-30,2.134072072
15.021885,7,-10,-3,-4,-27,-95,1,70,2.134072072
15.021898,-13,26,4,17,-3,80,27,-33,2.134072072
15.035268,12,-24,-4,-17,-15,24,-7,24,2.134072072
15.035292,-8,-17,0,20,47,-29,-13,-22,2.134072072
15.037558,-29,-16,2,-22,-3,75,7,2,2.134072072
15.037573,67,6,-4,10,5,-98,10,12,2.134072072
15.059686,-4,1,-10,-32,-12,34,-19,-21,2.134072072
15.059702,-33,20,8,8,-80,-66,6,29,2.134072072
15.059705,81,-3,2,-17,4,6,22,17,2.134072072
15.059708,-67,-17,-3,4,52,-25,21,25,2.134072072
15.071663,7,-4,-1,33,96,-3,-22,-35,2.134072072
15.071703,-25,12,5,-36,-91,-8,-4,35,2.134072072
15.082676,-15,-17,-4,37,88,62,29,-1,2.134072072
15.082683,37,-34,-2,-13,-20,24,-28,15,2.134072072
15.095300,32,1,-2,-7,-27,-19,15,44,2.132309956
15.095319,4,10,1,3,2,-37,-18,-24,2.132309956
15.096978,-52,-41,1,-2,-77,9,10,-16,2.132309956
15.096985,-15,15,-2,8,46,-6,-9,-6,2.132309956
15.117887,-48,0,0,8,18,-10,-30,-16,2.132309956
15.117911,36,-16,-7,-22,-3,-22,-22,-18,2.132309956
15.119997,2,19,-2,11,-92,8,-4,-29,2.132309956
15.120010,-9,-4,-1,-25,91,-40,-10,-9,2.132309956
15.131703,-55,-4,1,18,67,44,15,-2,2.132309956
15.131727,76,19,4,-14,24,27,9,28,2.132309956
15.141186,-15,-11,-10,1,81,-78,-68,-3,2.132309956
15.141199,-1,-14,-3,10,14,58,16,17,2.132309956
15.155284,-8,-52,-2,-11,-81,-22,-5,-8,2.132309956
15.155301,-47,3,-7,-7,55,33,-11,-34,2.132309956
15.156944,12,19,5,10,-33,-19,15,7,2.132309956
15.156961,-49,1,11,14,41,-2,-24,-31,2.132309956
15.178142,73,16,-11,-22,-26,-26,5,55,2.132309956
15.178178,-33,-2,2,14,-57,-31,3,7,2.132309956
15.180489,52,30,5,-13,-94,-45,-7,22,2.132309956
15.180502,26,3,-6,35,-92,44,5,4,2.132309956
15.191388,1,11,2,-21,20,-49,11,1,2.132309956
15.191406,17,-30,-10,11,23,30,10,-21,2.132309956
15.200997,-34,19,6,-11,50,1,-7,-3,2.132309956
15.201004,-12,7,0,-10,-39,18,17,-20,2.132309956
15.215493,41,-2,3,6,81,17,1,-1,2.132309956
15.215557,-6,17,2,2,-52,-66,-17,-2,2.132309956
15.216665,-15,-20,-3,3,74,81,31,-23,2.132309956
15.216697,12,13,-1,-4,15,-42,-3,64,2.132309956
15.238001,-32,-24,3,21,-36,38,-2,-20,2.132309956
15.238025,11,20,0,-29,10,-4,-27,12,2.132309956
15.239288,-24,1,4,21,38,21,19,-9,2.132309956
15.239316,85,-8,-16,-54,-82,61,-37,-31,2.132309956
15.251826,-22,10,-2,29,0,33,3,16,2.132309956
15.251890,43,-2,2,7,71,23,11,-13,2.132309956
15.260867,-14,0,-2,8,-107,-28,-13,6,2.132309956
15.260880,-25,7,2,6,90,47,9,50,2.132309956
15.276775,-27,-4,-5,-29,-40,-66,13,-57,2.132309956
15.276791,0,-19,-4,2,8,-2,26,33,2.132309956
15.276841,-10,2,0,-7,-16,-9,-6,-38,2.132309956
15.276861,-22,-20,7,13,1,-21,2,-14,2.132309956
15.298775,71,-37,-7,-9,-42,24,0,16,2.132309956
15.298806,-1,-2,-4,4,5,-18,7,-21,2.132309956
15.305605,18,3,-2,-27,16,-9,8,5,2.132309956
15.305656,-32,12,-2,27,8,-55,-16,-11,2.132309956
15.311578,-18,14,4,14,-32,-9,26,43,2.132309956
15.311597,28,-3,-7,-33,-41,-23,-11,-3,2.132309956
15.323043,1,-19,-1,20,0,-24,22,34,2.132309956
15.323056,-2,1,-1,-23,48,-33,-34,-50,2.132309956
15.335814,-29,14,-2,10,-4,61,19,7,2.132309956
15.335841,-4,-5,-4,8,-52,33,-30,-50,2.132309956
15.338995,2,-12,-8,-28,-4,22,-11,-1,2.132309956
15.339008,10,22,3,5,-26,-58,4,8,2.132309956
15.357659,-48,-33,-2,-17,6,-13,-8,-17,2.102092587
15.357680,-37,3,13,7,-34,-17,17,7,2.102092587
15.359525,46,5,-11,-25,41,41,-33,-2,2.102092587
15.359552,-32,-2,-12,8,-52,-106,-24,-10,2.102092587
15.371691,-39,10,4,-9,60,-7,5,-9,2.102092587
15.371705,-53,-8,-3,3,-46,11,-22,-31,2.102092587
15.380874,36,3,6,26,119,-3,9,-18,2.102092587
15.380886,2,14,3,-18,-73,2,2,9,2.102092587
15.395388,11,39,0,0,93,43,18,9,2.102092587
15.395412,-26,6,10,10,61,-47,-22,-5,2.102092587
15.396764,-8,-2,-3,14,26,76,39,10,2.102092587
15.396770,28,-9,-3,-7,36,14,11,-43,2.102092587
15.418125,3,12,-2,4,-70,-45,-26,-18,2.102092587
15.418136,-11,12,0,3,40,-5,16,-1,2.102092587
15.419134,0,7,2,-18,-128,-28,-16,31,2.102092587
15.419167,-3,-18,-1,17,64,45,12,18,2.102092587
15.433547,-3,5,0,-18,49,-27,-4,-8,2.102092587
15.433554,38,-18,-2,15,-6,2,6,34,2.102092587
15.441660,-11,46,1,-13,-74,-102,21,-24,2.102092587
15.441672,-48,0,-5,-7,29,73,23,15,2.102092587
15.455198,66,-18,-8,-20,-8,-33,-18,-14,2.102092587
15.455270,-9,-27,-7,-6,-3,-5,0,21,2.102092587
15.457447,-7,-3,-2,4,38,28,-15,-22,2.102092587
15.457460,4,21,14,16,27,9,19,18,2.102092587
15.479455,-34,8,3,2,-37,11,5,18,2.102092587
15.479462,-29,11,5,7,45,-12,1,64,2.102092587
15.479466,5,-55,-13,-16,-17,-18,-13,-37,2.102092587
15.479468,-2,4,-6,-11,-71,-17,5,23,2.102092587
15.500531,23,-17,1,-14,-112,14,-10,37,2.102092587
15.500555,10,9,3,67,105,27,6,-14,2.102092587
15.502612,-42,43,3,-24,-41,-39,-19,-4,2.102092587
15.502618,4,-29,-3,-1,37,102,-4,-22,2.102092587
15.515571,6,32,-1,3,-111,-99,-10,-46,2.102092587
15.515602,12,-60,-3,-21,74,-33,29,16,2.102092587
15.517266,11,-11,1,-13,-20,22,-9,2,2.102092587
15.517271,41,7,-7,16,11,6,-13,-18,2.102092587
15.538327,-36,-18,-6,-2,1,99,-4,15,2.102092587
15.538381,26,26,1,-3,-51,82,25,19,2.102092587
15.540538,-23,-8,2,11,16,-7,7,-29,2.102092587
15.540550,-25,-5,3,11,0,-75,-18,-7,2.102092587
15.560838,33,9,-2,-10,11,-35,-3,38,2.102092587
15.560864,-11,-11,-5,-14,-59,16,-2,4,2.102092587
15.562978,43,32,3,24,103,-48,-8,-40,2.102092587
15.562985,-10,-23,-1,-12,-83,-41,-4,12,2.102092587
15.575219,-6,45,-2,6,83,17,-20,18,2.102092587
15.575238,-11,-10,-8,-48,-78,-20,41,5,2.102092587
15.576778,25,1,-1,-2,-32,-11,-30,30,2.102092587
15.576799,-26,1,5,41,80,-37,9,-27,2.102092587
15.597855,10,5,2,17,-61,24,2,8,2.102092587
15.597887,-29,23,1,-23,-110,-5,-6,-29,2.102092587
15.599648,23,-15,-8,2,39,69,13,-9,2.102092587
15.599653,15,4,-3,11,9,-59,0,6,2.102092587
15.620367,-11,-14,-3,-35,-36,70,-6,-48,2.090379697
15.620425,-5,-28,1,11,53,-3,-34,20,2.090379697
15.621837,0,-42,-3,-11,-77,-43,24,-50,2.090379697
15.621858,39,44,-10,-11,53,21,-13,12,2.090379697
15.634609,-14,-22,3,2,3,-44,-10,-14,2.090379697
15.634627,28,16,0,-12,-7,-17,4,18,2.090379697
15.641424,-27,4,1,31,58,17,-4,-2,2.090379697
15.641444,-25,-17,2,-18,0,18,-16,16,2.090379697
15.657831,-20,0,-1,23,7,-22,4,-36,2.090379697
15.657869,46,9,-5,-46,-49,1,-35,-18,2.090379697
15.659476,-17,-1,9,27,71,15,56,78,2.090379697
15.659489,-9,-31,-2,18,-91,9,-8,-28,2.090379697
15.680324,27,-2,-5,-17,44,97,-20,5,2.090379697
15.680359,-47,28,4,12,-44,-54,-10,-7,2.090379697
15.681688,-10,-30,-12,-38,3,67,-4,8,2.090379697
15.681709,5,17,0,-24,-64,-38,-14,10,2.090379697
15.694678,25,8,7,4,5,2,16,-4,2.090379697
15.694720,-32,-3,2,13,26,-5,8,-32,2.090379697
15.701706,-72,10,0,20,44,10,-14,36,2.090379697
15.701736,27,-38,2,1,-1,-5,11,25,2.090379697
15.718429,-18,-3,-1,7,-25,-41,-5,-36,2.090379697
15.718460,4,-5,-4,-8,58,21,0,12,2.090379697
15.720281,27,20,0,-3,-63,-11,-8,-2,2.090379697
15.720289,8,-7,-8,3,-15,22,7,64,2.090379697
15.740992,-3,-6,9,-5,-37,-46,36,53,2.090379697
15.741007,-21,-10,-1,26,40,-79,-10,-30,2.090379697
15.741720,48,-4,-13,-31,16,94,-25,-8,2.090379697
15.741727,-5,-2,-1,-17,42,-4,-10,-3,2.090379697
15.757619,-14,12,-4,8,76,38,-11,15,2.090379697
15.757644,13,12,-3,2,26,24,-12,21,2.090379697
15.762308,-64,7,9,7,26,-10,43,-36,2.090379697
15.762329,27,49,4,-20,-14,3,6,30,2.090379697
15.777695,-47,-45,0,21,5,-21,7,4,2.090379697
15.777715,54,2,-6,-19,-5,11,3,-8,2.090379697
15.779251,81,2,-4,6,-88,-48,-39,11,2.090379697
15.779267,-12,-21,-7,2,68,25,10,-42,2.090379697
15.800526,4,15,0,-6,-62,-38,14,2,2.090379697
15.800549,-14,4,0,4,71,39,-4,-4,2.090379697
15.802683,-46,3,6,5,10,-50,7,-37,2.090379697
15.802695,3,-1,5,-12,-53,-63,-21,-41,2.090379697
15.815261,-11,24,-1,25,22,85,27,-4,2.090379697
15.815303,-12,-32,-7,-32,-42,65,-32,-6,2.090379697
15.821523,58,-24,4,-2,-1,-48,2,-24,2.090379697
15.821550,16,31,4,13,70,-17,30,13,2.090379697
15.837854,-25,-35,-12,-28,-52,-69,-54,-11,2.090379697
15.837877,5,20,-1,34,115,-6,-10,-57,2.090379697
15.839632,-27,1,-3,4,34,-41,-5,34,2.090379697
15.839711,-17,1,-1,-27,-113,116,-15,19,2.090379697
15.860651,13,-7,-2,-10,33,-15,34,27,2.112133498
15.860672,45,2,-1,12,-36,-27,1,-74,2.112133498
15.862227,-36,2,0,-4,-7,-33,-8,79,2.112133498
15.862252,-61,-10,1,8,14,38,6,-13,2.112133498
15.874684,-15,0,-2,5,7,-11,-17,-16,2.112133498
15.877209,-1,-19,-1,3,2,-8,6,0,2.112133498
15.881320,-12,0,1,-16,-84,2,-8,-14,2.112133498
15.881338,-3,16,-2,18,82,24,9,-8,2.112133498
15.897962,44,7,8,16,-58,-77,-2,2,2.112133498
15.897972,-2,8,1,-10,9,5,-5,-16,2.112133498
15.899216,-20,-2,9,39,84,-58,8,36,2.112133498
15.899223,36,15,-13,-46,-128,-25,13,-12,2.112133498
15.920481,-2,12,5,-19,127,48,-17,-8,2.112133498
15.920506,-20,-35,-10,-15,-97,0,20,-22,2.112133498
15.922511,14,2,-5,22,-3,24,-12,-32,2.112133498
15.922523,-15,-23,0,15,59,0,-5,14,2.112133498
15.934748,21,39,7,5,-1,-55,-2,9,2.112133498
15.934768,-7,4,0,-8,-42,-33,1,16,2.112133498
15.941386,11,-2,-3,-16,-17,50,4,5,2.112133498
15.941407,-19,1,7,14,-7,-21,9,-23,2.112133498
15.959247,13,-3,-4,-10,-24,2,-6,-5,2.112133498
15.959259,75,-15,-3,12,1,52,12,34,2.112133498
15.959354,-39,3,0,4,-128,-22,-14,-50,2.112133498
15.959377,4,-25,2,10,116,-11,13,3,2.112133498
15.980491,-5,-9,-6,-17,-81,31,-5,-5,2.112133498
15.980512,-12,0,5,13,-52,-92,0,-5,2.112133498
15.982512,-13,-3,-5,-39,58,122,9,-13,2.112133498
15.982518,-67,-36,-9,-9,-66,-34,-4,17,2.112133498
15.993926,10,-7,-1,-4,34,85,21,75,2.112133498
15.993945,47,8,-7,13,24,-111,-16,-39,2.112133498
16.004608,21,4,1,4,-31,-17,-12,-7,2.112133498
16.004622,-9,-6,-1,-24,-40,-26,-14,-1,2.112133498
16.018258,-17,-60,-5,28,94,5,30,23,2.112133498
16.018289,-58,15,1,-36,-35,42,-21,25,2.112133498
16.021266,-12,-4,1,17,36,1,6,3,2.112133498
16.021284,21,39,-2,-7,44,-56,-24,-10,2.112133498
16.040361,-40,16,2,13,-74,-28,26,-23,2.112133498
16.040376,-5,-29,2,-11,-67,12,28,16,2.112133498
16.041872,-19,-24,-5,5,-23,64,9,-11,2.112133498
16.041889,14,21,-3,-19,54,78,3,-69,2.112133498
16.054924,-11,-15,4,16,44,-128,17,8,2.112133498
16.054937,-60,24,3,0,101,98,7,74,2.112133498
16.063508,29,-6,-4,-11,-1,-43,-2,14,2.112133498
16.063524,18,12,6,23,-90,18,5,10,2.112133498
16.078219,-23,7,-2,-45,21,-58,-21,-33,2.112133498
16.078253,-65,-1,5,50,69,2,8,34,2.112133498
16.080677,47,-48,-10,-29,-23,-20,1,-8,2.112133498
16.080683,14,-17,-2,18,2,-24,-5,-1,2.112133498
16.100354,18,2,0,8,34,14,-35,-34,2.112133498
16.100390,17,-5,-6,-16,-78,-49,-5,24,2.112133498
16.101689,-37,19,2,-1,86,14,-7,12,2.112133498
16.101696,-4,8,15,-2,-128,-69,18,-69,2.112133498
16.116174,26,-13,-6,23,104,127,-8,-53,2.099704041
16.116181,-22,11,-5,-35,-53,-62,-40,39,2.099704041
16.124083,47,5,-5,-1,-41,-68,-6,10,2.099704041
16.124096,6,23,1,-10,1,-28,21,-12,2.099704041
16.137912,15,-38,-5,3,-82,-23,8,2,2.099704041
16.137945,27,-3,-6,2,18,19,3,-33,2.099704041
16.140645,-11,29,8,18,60,8,-1,4,2.099704041
16.140658,16,-32,1,7,-15,20,-10,27,2.099704041
16.162196,-6,33,-3,3,-13,-52,-23,17,2.099704041
16.162206,20,-5,-4,-34,-13,38,23,-37,2.099704041
16.162209,-4,-10,-8,7,64,-33,-1,23,2.099704041
16.162211,-1,2,5,-1,-65,68,-1,5,2.099704041
16.174035,-22,22,5,8,52,53,-29,47,2.099704041
16.174059,61,-22,-10,15,99,-46,-2,-15,2.099704041
16.184011,-29,43,8,-21,-39,-51,17,5,2.099704041
16.184025,76,-21,-10,-8,87,40,-11,12,2.099704041
16.198058,-6,-8,-12,-35,-80,49,23,1,2.099704041
16.198082,-24,16,4,8,-14,-3,-2,10,2.099704041
16.200701,-7,-12,4,4,-22,-8,-2,-27,2.099704041
16.200707,-2,45,0,16,-2,-37,0,42,2.099704041
16.220920,-21,-13,10,7,-29,-15,9,27,2.099704041
16.220952,42,-4,0,6,39,26,2,49,2.099704041
16.223783,1,-24,-9,4,-10,6,4,-25,2.099704041
16.223795,-20,-11,-3,-12,50,3,-18,35,2.099704041
16.234170,21,18,1,-36,-11,-21,-6,-37,2.099704041
16.234186,-54,-2,2,54,-3,-2,-3,-22,2.099704041
16.244867,6,-4,-1,-37,-28,-22,-40,18,2.099704041
16.244874,-33,-26,-10,21,-34,-36,-20,-12,2.099704041
16.257878,-30,33,-1,-27,74,57,4,-32,2.099704041
16.257895,25,-70,2,1,-12,-52,1,-4,2.099704041
16.259438,-21,9,4,23,49,46,31,11,2.099704041
16.259459,-10,-8,1,-17,-34,-50,-4,-6,2.099704041
16.280581,55,-1,0,21,-30,27,-4,2,2.099704041
16.280598,-26,31,7,-12,-20,-15,23,8,2.099704041
16.282399,-46,-8,-3,-4,-13,-36,-43,-4,2.099704041
16.282409,7,-30,-7,-3,28,25,-13,36,2.099704041
16.294059,23,-5,-6,9,-36,-28,4,18,2.099704041
16.294076,2,29,4,-4,31,6,-8,-1,2.099704041
16.302698,-7,-4,5,10,-38,17,13,7,2.099704041
16.302712,-22,14,3,7,36,-26,13,1,2.099704041
16.318220,8,-6,-2,3,18,33,-9,-17,2.099704041
16.318231,-60,10,-10,-5,42,23,7,-31,2.099704041
16.319147,-7,-2,0,-15,-117,14,-4,-2,2.099704041
16.319156,21,-1,-1,21,-6,-96,-11,-57,2.099704041
16.340307,16,-12,-4,26,98,57,0,53,2.099704041
16.340333,-44,29,0,-16,-22,74,-15,33,2.099704041
16.342230,56,-15,-3,-4,0,-15,4,2,2.099704041
16.342239,8,6,-12,-36,-34,6,-1,-7,2.099704041
16.354554,-16,19,5,27,-1,-40,6,36,2.099704041
16.354598,31,2,-1,9,-54,-20,-13,29,2.099704041
16.365000,-14,-18,-6,-4,37,14,5,-44,2.099704041
16.365015,1,-12,1,-7,-3,15,5,15,2.099704041
16.377633,6,-6,1,-4,-43,-40,-7,-30,2.100722553
16.377670,12,-11,-1,-9,4,4,0,-8,2.100722553
16.384497,-37,10,1,4,8,-12,2,-9,2.100722553
16.384531,-21,16,7,6,110,18,21,8,2.100722553
16.400915,49,-14,-3,-28,-95,-28,-28,-36,2.100722553
16.400938,11,-1,-4,32,120,-2,12,-36,2.100722553
16.404045,6,2,-8,-24,27,107,-10,-5,2.100722553
16.404066,-25,-1,5,10,15,-62,-7,11,2.100722553
16.422975,-26,-3,-5,0,41,-4,9,-24,2.100722553
16.422996,-3,-29,-5,-24,-58,11,5,-19,2.100722553
16.425046,10,34,7,14,2,-39,2,-6,2.100722553
16.425056,3,-16,-2,-2,-56,41,-1,7,2.100722553
16.437889,-38,-45,3,-10,-76,-37,12,-54,2.100722553
16.437912,62,-2,-3,14,-4,-16,9,75,2.100722553
16.439994,-18,-10,-8,-26,-68,2,-4,15,2.100722553
16.440014,-6,-4,0,13,76,103,0,2,2.100722553
16.460334,40,28,-1,2,-12,-54,0,5,2.100722553
16.460354,-43,9,4,-3,66,60,-4,-29,2.100722553
16.461825,2,-25,-4,9,23,-82,11,-17,2.100722553
16.461853,8,2,2,0,-50,9,-10,41,2.100722553
16.482965,-83,0,1,16,14,-111,12,25,2.100722553
16.482988,74,-21,-7,-23,-80,103,22,-15,2.100722553
16.484323,24,8,3,9,5,-23,-34,-27,2.100722553
16.484328,-40,3,-1,4,-14,-75,8,-11,2.100722553
16.497860,-24,3,0,7,2,97,-1,9,2.100722553
16.497890,22,4,2,-12,-47,-110,-31,-62,2.100722553
16.499907,-5,-17,2,9,-8,16,-9,48,2.100722553
16.499918,-3,22,-2,-3,9,36,-2,-44,2.100722553
16.520288,-6,5,1,-8,-16,-37,-16,5,2.100722553
16.520301,-27,24,0,1,-13,-12,0,36,2.100722553
16.522084,-26,4,-7,-16,28,47,5,-14,2.100722553
16.522112,46,-4,5,-12,-66,-18,0,-7,2.100722553
16.542975,7,2,2,20,79,61,12,72,2.100722553
16.542995,-20,-8,-5,-13,28,53,-11,10,2.100722553
16.544430,-4,20,7,30,29,-53,19,32,2.100722553
16.544443,-17,9,9,-5,-50,-26,-12,73,2.100722553
16.557378,7,-7,0,0,48,-57,20,-55,2.100722553
16.557402,-35,39,1,16,51,30,0,-3,2.100722553
16.563941,-1,-33,-3,-7,-52,2,5,120,2.100722553
16.563964,-24,2,-7,-11,-8,-11,-13,-66,2.100722553
16.580396,42,-8,-10,-14,17,-8,-12,-17,2.100722553
16.580418,28,14,1,16,39,-63,0,6,2.100722553
16.582391,-20,12,-2,-17,26,63,20,-62,2.100722553
16.582401,-4,-2,5,2,37,27,5,-36,2.100722553
16.603265,-8,12,2,4,-16,16,10,21,2.100722553
16.603291,-31,-49,-2,-15,29,-30,-2,-4,2.100722553
16.606434,54,-1,-4,7,18,-56,2,-1,2.100722553
16.606446,-29,-23,-6,-19,24,101,17,-22,2.100722553
16.618044,9,-2,1,8,11,-35,1,-15,2.100722553
16.618067,3,8,5,11,67,29,-8,-5,2.100722553
16.624032,1,20,5,-6,-93,-75,-29,-21,2.100722553
16.624056,-1,-25,-9,-9,97,37,-2,5,2.100722553
16.640559,-3,49,-5,1,15,-1,-29,-64,2.105116575
16.642872,-11,-18,-5,-24,48,17,27,8,2.105116575
16.642891,-8,16,2,9,-81,-34,24,-23,2.105116575
16.642894,48,0,-1,12,34,-8,-6,61,2.105116575
16.662831,-9,12,5,-19,-98,24,-10,26,2.105116575
16.662853,-10,-8,-6,3,-72,-82,-4,-21,2.105116575
16.664790,22,-10,-8,-37,-35,28,-2,10,2.105116575
16.664805,15,30,5,54,-9,-37,16,-18,2.105116575
16.677467,-59,-39,-9,5,49,-46,-27,18,2.105116575
16.677492,65,17,-1,-19,-54,0,-20,-31,2.105116575
16.691410,23,-21,-4,-9,-11,-17,-6,32,2.105116575
16.691427,-13,3,-5,-9,-61,-40,-13,15,2.105116575
16.700414,13,-20,-3,15,70,-16,-20,30,2.105116575
16.700440,-34,70,7,-24,-70,46,-1,8,2.105116575
16.701900,7,-46,-3,12,4,11,-35,-25,2.105116575
16.701927,-9,-7,-5,-16,1,-43,21,-14,2.105116575
16.722795,21,2,2,2,-41,88,-4,-9,2.105116575
16.722813,3,-5,1,14,6,-24,-14,2,2.105116575
16.724690,-14,3,1,-26,5,-23,15,-8,2.105116575
16.724704,-7,12,0,43,73,4,-36,-48,2.105116575
16.737710,4,-14,0,-15,-29,-34,11,43,2.105116575
16.737748,43,-21,-7,15,27,-16,5,-43,2.105116575
16.744117,-5,2,4,-6,18,37,14,32,2.105116575
16.744134,16,-15,-6,-3,-35,45,7,-45,2.105116575
16.760295,-27,25,-6,-36,-84,-101,-8,45,2.105116575
16.760312,-45,-37,2,56,109,91,-13,-45,2.105116575
16.761818,55,5,-8,-19,-1,-53,0,2,2.105116575
16.761829,-55,10,0,-20,79,37,-29,4,2.105116575
16.782672,-41,-4,5,27,50,46,16,-18,2.105116575
16.782682,-46,-8,-7,-33,-128,-13,10,16,2.105116575
16.784202,-3,8,1,25,61,1,-9,-4,2.105116575
16.784236,1,-7,-2,-5,-6,2,29,10,2.105116575
16.797121,45,-20,1,-13,-66,-5,9,-28,2.105116575
16.797139,-2,-5,-2,-8,34,-51,-21,-10,2.105116575
16.803995,-20,6,-1,29,18,66,5,-30,2.105116575
16.804023,28,1,-2,-20,-33,-79,-1,45,2.105116575
16.820626,-22,4,5,0,11,56,3,-8,2.105116575
16.820646,11,-11,-1,32,-101,-67,10,62,2.105116575
16.823224,43,24,-1,-24,57,61,38,-47,2.105116575
16.823239,-7,-50,-13,-29,-41,-22,-68,-6,2.105116575
16.843120,88,25,4,14,32,83,39,2,2.105116575
16.843151,28,6,-1,2,34,32,17,44,2.105116575
16.845710,-23,3,-2,5,30,0,-11,13,2.105116575
16.845719,-6,-10,7,3,-40,-6,13,-4,2.105116575
16.857229,-4,5,-3,-1,20,-12,-10,-41,2.105116575
16.857253,-4,8,1,-24,-23,-49,-3,-6,2.105116575
16.864183,-68,-13,-3,-2,3,12,-19,7,2.105116575
16.864206,57,3,-4,2,43,4,12,4,2.105116575
16.880257,1,8,-5,0,-32,-22,-25,-5,2.105116575
16.880273,-22,-22,1,5,-41,-9,-10,-10,2.105116575
16.881682,-20,15,8,13,-33,-16,11,-9,2.105116575
16.881689,-72,4,-3,-4,27,-12,-14,-62,2.105116575
16.903301,-34,-22,0,-10,40,-68,31,-7,2.114846525
16.903333,9,38,-3,13,74,-11,-59,-16,2.114846525
16.905580,38,-12,1,-18,-79,60,60,89,2.114846525
16.905599,-8,-9,-1,12,-27,-28,-46,-69,2.114846525
16.916644,1,10,-2,13,-28,-61,6,-24,2.114846525
16.916668,12,-6,7,-24,52,13,27,78,2.114846525
16.926463,-25,-2,-2,16,-41,-61,5,-11,2.114846525
16.926470,40,27,-3,-18,-12,3,-10,-9,2.114846525
16.940416,5,-34,-14,-16,-57,-29,-22,-3,2.114846525
16.940435,-1,16,7,11,22,-1,7,-7,2.114846525
16.941907,-14,1,-3,-13,-71,9,-33,-60,2.114846525
16.941923,67,9,10,29,69,16,37,47,2.114846525
16.963383,-40,-25,1,-2,-16,-5,9,-25,2.114846525
16.963506,-23,4,-2,-5,-32,-1,6,-27,2.114846525
16.968916,6,-32,-1,-1,87,38,-1,17,2.114846525
16.968939,-23,-2,4,21,62,-38,-8,-8,2.114846525
16.976769,-22,7,-4,-26,-66,104,14,54,2.114846525
16.976792,-22,10,-1,-27,-70,21,-4,-94,2.114846525
16.986683,31,18,-6,30,67,-23,-7,8,2.114846525
16.986691,-19,13,-3,-7,-18,-47,16,54,2.114846525
17.000466,-17,-22,-11,-18,5,59,-21,-36,2.114846525
17.000473,-32,1,4,6,17,-16,23,-11,2.114846525
17.001760,45,-3,-10,-18,-4,39,-19,-9,2.114846525
17.001794,21,-7,3,2,-73,-26,32,0,2.114846525
17.022990,10,-3,2,1,51,24,7,1,2.114846525
17.023016,1,-5,0,5,36,-31,-5,27,2.114846525
17.024364,-29,-10,3,6,-30,-23,5,8,2.114846525
17.024400,-26,13,1,8,-13,20,13,11,2.114846525
17.036855,38,24,0,-18,-22,-49,-12,12,2.114846525
17.036888,-10,2,3,-12,6,6,18,35,2.114846525
17.047471,43,27,9,29,92,24,-32,28,2.114846525
17.047481,-14,-28,-22,-39,-110,36,14,-19,2.114846525
17.060243,-45,7,-7,-8,4,-7,-45,-19,2.114846525
17.061770,61,-12,-6,25,-34,15,-1,-10,2.114846525
17.061885,6,-12,-4,-7,-1,23,-7,-23,2.114846525
17.061917,-5,6,4,-19,-23,-57,-6,2,2.114846525
17.083254,18,-4,7,41,21,-3,18,69,2.114846525
17.083286,-17,-7,-6,-24,-42,-10,-28,-64,2.114846525
17.085368,-27,-2,-1,6,40,26,24,53,2.114846525
17.085374,-41,6,1,-5,-29,29,-18,-33,2.114846525
17.096405,36,-6,-2,-2,-26,-32,14,29,2.114846525
17.096421,2,-13,2,14,45,-6,-7,-17,2.114846525
17.107035,-49,51,1,-2,-98,-9,13,16,2.114846525
17.107047,47,-35,3,9,127,-45,14,-3,2.114846525
17.120904,-6,-30,-3,-15,-35,52,-18,-3,2.114846525
17.120941,14,9,-2,-17,41,43,27,-25,2.114846525
17.123236,-19,-11,4,8,24,-14,-25,-37,2.114846525
17.123250,-27,21,2,24,-78,-41,39,18,2.114846525
17.142944,-20,7,1,9,43,62,1,-37,2.087964110
17.142987,-6,2,-1,-13,45,-20,20,27,2.087964110
17.144392,80,-30,-5,-13,31,-49,19,-24,2.087964110
17.144413,25,-8,-1,-4,-33,30,-31,3,2.087964110
17.157209,24,-32,-4,4,-7,-27,-15,-1,2.087964110
17.157223,4,1,0,13,-45,-10,-7,16,2.087964110
17.166900,-39,10,3,0,99,1,-11,18,2.087964110
17.166907,22,7,-3,-13,-49,-6,-7,2,2.087964110
17.180454,84,-17,-6,13,26,-6,4,-54,2.087964110
17.180477,-22,15,0,-18,16,-19,-22,29,2.087964110
17.182261,-7,5,6,-5,-77,-106,2,-11,2.087964110
17.182276,-12,-2,-5,14,0,127,-21,17,2.087964110
17.205380,-62,-1,-4,-8,7,-126,5,-3,2.087964110
17.205393,46,-14,-9,6,-21,25,20,10,2.087964110
17.205396,14,6,5,-6,-57,-87,-38,-16,2.087964110
17.205399,-51,2,-2,-10,50,73,-8,10,2.087964110
17.216963,-4,-2,5,1,-50,-12,-11,-2,2.087964110
17.216991,-14,39,3,8,-47,11,-5,-19,2.087964110
17.226127,-82,-1,-3,-3,2,-5,-6,68,2.087964110
17.226139,89,-46,-13,-5,9,-27,-10,-38,2.087964110
17.241049,7,15,-3,-4,2,-4,12,-11,2.087964110
17.241074,-22,-12,1,2,8,43,2,-8,2.087964110
17.250555,39,4,-1,-18,-77,14,35,-17,2.087964110
17.250563,-37,18,11,25,32,-21,-15,2,2.087964110
17.262960,-12,-35,-3,-13,19,7,3,3,2.087964110
17.262984,24,5,-2,8,19,2,-27,-44,2.087964110
17.264584,-11,5,-4,-3,48,-17,24,-3,2.087964110
17.264601,3,14,5,2,55,-51,-13,13,2.087964110
17.285939,-24,18,5,-14,-19,-29,27,37,2.087964110
17.285959,-5,-8,-2,14,29,-39,-27,39,2.087964110
17.287828,-44,-24,-12,-12,-64,18,-12,-28,2.087964110
17.287844,-16,23,3,-16,-66,14,15,-7,2.087964110
17.300442,-2,15,3,15,23,5,-4,-23,2.087964110
17.300478,-8,-5,2,-9,-25,5,7,53,2.087964110
17.302861,74,-18,-2,3,16,19,-9,-46,2.087964110
17.302867,-4,33,11,9,3,-32,29,0,2.087964110
17.323101,-68,-41,-16,11,55,20,-57,-4,2.087964110
17.323126,25,-20,-4,-38,-24,-53,9,10,2.087964110
17.324820,-31,0,-2,2,106,113,18,50,2.087964110
17.324827,39,-5,-3,13,-30,-58,25,-23,2.087964110
17.336666,9,32,7,-2,-29,2,5,26,2.087964110
17.336692,-10,-14,-4,-1,-72,4,-22,-3,2.087964110
17.347216,-16,5,-4,-3,78,-39,-9,-33,2.087964110
17.347222,-12,4,1,-18,-69,27,0,-30,2.087964110
17.360476,-1,-8,3,16,4,33,9,55,2.087964110
17.360511,13,-11,-2,-1,12,-32,9,-52,2.087964110
17.361874,21,-1,-4,-23,-58,5,-13,62,2.087964110
17.361895,-33,-11,-4,30,66,40,25,10,2.087964110
17.383259,-1,1,2,-1,-19,-48,-19,-22,2.087964110
17.383289,91,10,-3,6,25,45,-1,47,2.087964110
17.385734,-62,-18,-3,2,-21,-37,13,1,2.087964110
17.385746,6,-4,0,-18,78,-33,-35,12,2.087964110
17.407078,-2,-18,5,-30,-87,-27,39,7,2.105846663
17.407090,-23,7,-5,19,-89,47,-22,-11,2.105846663
17.407093,24,7,7,20,123,89,35,1,2.105846663
17.407096,-1,-19,-16,-33,-128,-51,6,37,2.105846663
17.422790,19,27,2,-8,58,58,9,-66,2.105846663
17.422811,-27,23,2,13,40,26,16,31,2.105846663
17.422818,3,-4,-1,7,-40,-55,-43,-49,2.105846663
17.422822,-58,-12,1,-21,-34,1,-17,2,2.105846663
17.443068,40,15,4,20,32,-29,-7,33,2.105846663
17.443085,-8,-52,-9,-23,-55,17,16,-11,2.105846663
17.444434,19,7,-2,18,40,-2,17,2,2.105846663
17.444442,-1,8,1,-14,43,58,9,-3,2.105846663
17.465752,34,11,-2,2,-25,-22,-10,50,2.105846663
17.465874,-43,2,6,5,39,-16,6,-34,2.105846663
17.468173,-22,8,1,-3,-120,4,-37,-19,2.105846663
17.468181,11,-20,-4,-6,-73,-13,18,25,2.105846663
17.480645,-6,-12,3,33,112,79,10,71,2.105846663
17.480676,-13,0,0,-9,52,-59,-42,3,2.105846663
17.483602,2,-8,0,14,33,11,38,-8,2.105846663
17.483612,50,3,-2,-19,-46,-39,-40,14,2.105846663
17.503294,-14,6,-5,-6,16,-24,-12,-56,2.105846663
17.503317,-13,-2,-6,-2,46,24,20,19,2.105846663
17.504489,14,6,12,-13,-76,-1,-19,-11,2.105846663
17.504506,46,-10,3,34,110,0,14,22,2.105846663
17.525356,-40,1,4,6,9,-92,-15,-51,2.105846663
17.525374,19,-27,-12,-18,0,22,-2,24,2.105846663
17.527004,-16,33,-1,-1,-26,61,21,49,2.105846663
17.527019,1,-10,1,2,-5,6,-25,5,2.105846663
17.539773,-11,-17,-1,-11,-37,1,1,-18,2.105846663
17.539793,-25,0,4,10,-21,20,-5,-6,2.105846663
17.546591,-11,14,3,7,94,-123,-7,-18,2.105846663
17.546607,-29,-5,2,9,-79,75,32,-4,2.105846663
17.562810,27,-26,-29,-20,92,66,-10,-28,2.105846663
17.562818,9,3,7,-7,-107,-36,-20,-22,2.105846663
17.564424,12,16,-5,-2,10,-10,-11,-24,2.105846663
17.564431,-16,4,-3,-5,69,15,11,46,2.105846663
17.585471,-7,15,4,11,22,-24,5,-89,2.105846663
17.588907,-24,-11,-3,-40,28,14,37,14,2.105846663
17.588920,-21,-10,0,17,42,70,-29,12,2.105846663
17.588923,35,30,-6,-1,-16,-39,-19,-12,2.105846663
17.599854,2,8,2,-3,-56,18,8,22,2.105846663
17.599886,6,22,6,20,-56,-41,-7,6,2.105846663
17.606732,-8,-19,-8,-14,-94,10,-7,7,2.105846663
17.606753,-5,5,-2,-6,24,-11,0,1,2.105846663
17.624443,19,1,2,-1,51,24,14,25,2.105846663
17.624456,-17,2,0,18,-97,-122,-22,47,2.105846663
17.624542,35,6,3,-11,81,95,37,-1,2.105846663
17.624575,-31,-45,0,10,51,-75,1,-22,2.105846663
17.645324,-1,8,1,25,-128,18,-2,-20,2.105846663
17.645340,-36,6,7,-57,54,-101,5,11,2.105846663
17.647188,68,-23,-13,32,63,80,-50,-26,2.105846663
17.647196,-65,4,-4,-12,-11,-29,-1,-13,2.105846663
17.659969,13,-6,-5,-7,-28,55,13,-23,2.064957448
17.660049,1,-9,-3,7,-54,-69,-29,-7,2.064957448
17.666872,16,-3,3,-10,-41,-40,23,39,2.064957448
17.666899,-29,16,6,-2,-16,8,-4,-1,2.064957448
17.683151,-75,21,-3,-11,-19,-13,-22,-61,2.064957448
17.683168,59,-28,-14,30,-13,49,-1,-20,2.064957448
17.686139,32,-14,-10,-49,-10,6,-18,24,2.064957448
17.686150,55,25,9,23,-69,-15,19,47,2.064957448
17.705633,-52,-42,-8,-13,60,6,-8,22,2.064957448
17.705658,-8,9,0,21,61,74,45,45,2.064957448
17.707188,-58,16,4,3,27,-119,14,-34,2.064957448
17.707211,-54,-20,2,-17,-56,-11,-20,-21,2.064957448
17.719890,25,1,-7,-9,-78,35,-29,-16,2.064957448
17.719901,23,10,-5,-6,-10,39,4,9,2.064957448
17.726670,-17,-1,-2,14,-64,-89,5,-4,2.064957448
17.726688,-20,13,4,1,-30,73,26,35,2.064957448
17.743173,-63,24,-2,-3,62,-24,-7,-5,2.064957448
17.743204,20,-56,-10,-16,-17,1,-12,6,2.064957448
17.746685,24,-31,-14,-13,-33,-7,-15,-60,2.064957448
17.746695,20,12,-1,-5,48,0,-15,-55,2.064957448
17.765430,7,8,4,-12,-60,-83,3,6,2.064957448
17.765477,-19,21,4,17,100,37,19,15,2.064957448
17.771720,-13,-13,8,5,21,-41,-35,-4,2.064957448
17.771745,50,-8,0,11,101,-3,-3,-22,2.064957448
17.779716,59,6,-1,-10,-87,50,15,25,2.064957448
17.780877,-35,12,5,6,56,-5,14,-15,2.064957448
17.786842,30,4,1,-11,-123,-11,13,18,2.064957448
17.786869,79,4,-5,22,92,29,-16,64,2.064957448
17.803392,1,3,2,-35,-43,-56,4,32,2.064957448
17.803423,-13,14,1,17,17,13,-18,-27,2.064957448
17.806263,-75,-11,2,-24,-36,13,14,-24,2.064957448
17.806275,-28,6,-1,20,-24,-8,-4,-19,2.064957448
17.825404,56,21,10,14,39,-36,37,50,2.064957448
17.825413,-18,6,-1,19,-49,10,-6,-23,2.064957448
17.827001,32,-36,-5,-18,-20,14,-23,-1,2.064957448
17.827068,-22,-7,-5,-16,11,-29,19,-8,2.064957448
17.840174,27,-25,1,15,38,6,-22,42,2.064957448
17.840186,5,66,-1,-30,-27,-19,-9,1,2.064957448
17.849336,-48,3,4,49,-64,-64,14,-32,2.064957448
17.849349,-14,-26,-9,6,-7,29,-11,0,2.064957448
17.862852,3,10,2,-4,95,-16,23,23,2.064957448
17.862871,-26,9,1,4,-62,52,18,11,2.064957448
17.864221,10,6,1,-17,123,46,16,10,2.064957448
17.864245,59,-27,-14,-8,-88,-1,-41,1,2.064957448
17.885574,-3,-11,0,4,-6,4,25,-39,2.064957448
17.885598,-36,-3,1,-1,49,-36,-10,1,2.064957448
17.887637,27,-2,0,25,53,-7,0,0,2.064957448
17.887659,3,21,6,-8,-27,2,-3,-2,2.064957448
17.899436,-13,1,-2,-27,-54,-3,-16,40,2.064957448
17.899468,60,-5,-2,16,56,1,5,-13,2.064957448
17.908807,-53,-5,-5,0,-7,43,28,33,2.106184664
17.908820,-26,-12,2,12,4,-36,-28,-32,2.106184664
17.923290,34,20,-6,-38,-51,-18,-42,-9,2.106184664
17.923308,0,-8,5,47,25,99,33,-12,2.106184664
17.924844,10,73,-1,-32,25,-66,-11,-2,2.106184664
17.924859,22,-9,-7,8,-35,93,10,-21,2.106184664
17.945523,-10,-26,-1,-29,-53,-25,-8,-63,2.106184664
17.945540,0,-12,6,31,66,-47,-3,10,2.106184664
17.946969,74,2,-6,5,43,5,-32,-55,2.106184664
17.947107,-47,30,6,-13,25,-6,28,2,2.106184664
17.959113,-18,1,2,23,-9,15,-3,-23,2.106184664
17.959233,63,2,-10,-39,-61,-11,-22,-4,2.106184664
17.968718,-12,-66,-3,12,-22,1,-2,28,2.106184664
17.968726,-29,-4,-1,-11,9,-54,-8,-4,2.106184664
17.982973,-20,33,6,17,42,43,25,-1,2.106184664
17.982987,-10,-9,5,-10,24,-51,-3,-11,2.106184664
17.984479,-18,9,2,15,79,60,-6,-1,2.106184664
17.984500,-20,7,2,-22,8,-64,3,-41,2.106184664
18.005474,11,5,0,20,78,-17,9,-5,2.106184664
18.005498,-10,-13,-6,-15,12,42,-6,-23,2.106184664
18.007685,-8,1,1,10,26,25,-8,-24,2.106184664
18.007695,-62,3,7,5,4,33,-5,1,2.106184664
18.019694,31,-14,-6,11,50,17,-5,-9,2.106184664
18.019725,-2,24,-13,-20,-22,43,34,5,2.106184664
18.030178,10,-43,-5,-11,-107,-49,3,2,2.106184664
18.030185,28,5,1,-5,56,-12,21,32,2.106184664
18.045173,-66,-6,-9,-11,-57,54,-47,38,2.106184664
18.045188,-7,2,5,-9,-23,-77,7,-34,2.106184664
18.045194,11,22,2,-4,-19,13,-3,20,2.106184664
18.045200,7,-1,-2,4,-3,-25,23,0,2.106184664
18.065983,18,-22,0,17,8,13,-3,33,2.106184664
18.066011,-63,-1,5,-3,-1,-5,-16,10,2.106184664
18.068478,-3,-4,1,4,-91,-22,11,-2,2.106184664
18.068484,111,-25,-16,0,74,36,-29,-12,2.106184664
18.079413,-18,19,-3,-11,-30,-64,-2,-5,2.106184664
18.079421,-18,-13,-7,-8,-37,36,-43,26,2.106184664
18.089871,-32,8,7,9,-31,-13,24,27,2.106184664
18.089890,-1,22,1,-21,-30,-64,-13,9,2.106184664
18.103387,-9,-15,0,25,2,15,35,53,2.106184664
18.103417,-11,-10,0,-3,43,-13,-23,-12,2.106184664
18.106176,2,9,-5,-10,-23,62,4,13,2.106184664
18.106188,2,-10,3,-1,-52,15,-6,34,2.106184664
18.125475,19,19,10,14,10,-28,9,-22,2.106184664
18.125505,15,-1,10,-4,-128,-78,5,-14,2.106184664
18.126961,29,-31,-22,5,114,61,-1,-44,2.106184664
18.126975,-65,-14,-5,-18,-10,-9,-29,-10,2.106184664
18.139419,26,-38,-2,11,30,-18,16,-10,2.106184664
18.139435,32,13,6,9,-52,-21,8,18,2.106184664
18.149300,-18,23,2,-17,31,-4,-23,-20,2.106184664
18.149306,-3,-5,0,10,58,-21,4,-27,2.106184664
18.163060,10,11,5,4,54,25,20,31,2.104282841
18.163083,8,10,0,-6,-7,0,-1,58,2.104282841
18.165657,-58,-13,-1,-6,-10,-54,-11,-10,2.104282841
18.165664,69,-19,-7,8,-7,10,-10,31,2.104282841
18.185800,-14,1,-5,-19,-4,6,5,-27,2.104282841
18.185807,-43,-48,-14,5,75,-9,-26,-70,2.104282841
18.186873,53,33,0,-36,-113,-31,-27,47,2.104282841
18.186908,-14,-38,-2,10,56,2,21,4,2.104282841
18.201213,-30,18,8,6,-29,-10,-7,-8,2.104282841
18.201221,40,2,0,12,127,48,19,30,2.104282841
18.209818,12,-1,-8,-19,-39,38,-28,-24,2.104282841
18.209831,-12,16,1,-8,-44,-50,9,8,2.104282841
18.223191,19,-2,-4,-8,19,14,-3,4,2.104282841
18.223209,11,4,7,4,-12,-67,16,-1,2.104282841
18.225092,-17,-11,4,8,-48,17,-6,58,2.104282841
18.225104,6,28,3,17,51,1,14,4,2.104282841
18.246160,-52,-54,-5,3,-26,63,10,7,2.104282841
18.246199,44,23,2,5,40,20,0,-26,2.104282841
18.248750,12,-46,-7,-55,-74,-42,18,55,2.104282841
18.248758,-21,-2,-11,52,59,-6,-34,-27,2.104282841
18.259354,10,24,1,-25,-96,-14,2,15,2.104282841
18.259385,-9,-3,-5,4,40,83,5,-16,2.104282841
18.269931,-14,18,7,25,-11,60,25,-21,2.104282841
18.269945,-5,9,7,-36,48,19,13,13,2.104282841
18.283248,19,2,1,20,-75,-112,-5,-22,2.104282841
18.283276,0,-7,-6,-8,28,63,5,61,2.104282841
18.284820,-8,30,2,16,79,-18,6,-41,2.104282841
18.284845,-7,-31,-5,-13,-59,84,13,9,2.104282841
18.305623,-11,12,-7,4,-1,-18,-22,12,2.104282841
18.305648,-8,-12,-3,-20,-104,-32,-1,-19,2.104282841
18.307646,-9,16,5,11,5,-33,-1,-14,2.104282841
18.307660,-30,37,5,20,-32,24,7,-25,2.104282841
18.328056,1,-2,0,-4,92,6,16,-29,2.104282841
18.328079,-7,-2,-10,-46,-75,-60,-42,-49,2.104282841
18.329548,-28,-15,0,22,90,-78,-15,6,2.104282841
18.329573,-6,45,7,-1,-128,27,5,-24,2.104282841
18.342386,-10,-30,-10,-27,23,-16,-9,-3,2.104282841
18.342403,-48,-2,5,69,127,-44,-4,-52,2.104282841
18.349312,58,2,-4,-12,48,79,-18,-11,2.104282841
18.349343,62,-37,-7,-16,102,-37,5,16,2.104282841
18.365567,-58,-8,-2,15,-94,4,-9,16,2.104282841
18.365598,33,-18,-2,-10,-66,-11,1,-10,2.104282841
18.367582,-34,-7,-2,-4,-19,-72,4,46,2.104282841
18.367595,-51,6,5,18,0,15,-3,-27,2.104282841
18.388302,38,11,2,-21,-29,-15,-7,-33,2.104282841
18.388319,-14,-4,4,0,32,17,5,29,2.104282841
18.389520,21,-9,-1,8,72,3,20,-32,2.104282841
18.389538,-40,0,5,4,-17,-41,-20,-66,2.104282841
18.403866,-10,25,-1,18,-29,68,-10,7,2.104282841
18.403880,7,-5,2,-47,-82,-82,4,0,2.104282841
18.404635,-66,13,-7,14,45,-57,-28,-30,2.104282841
18.404657,-20,3,-1,10,-1,57,30,3,2.104282841
18.424785,100,-9,-10,-7,-13,-60,-18,11,2.091353139
18.424805,-16,-32,-6,1,11,37,-15,-11,2.091353139
18.425783,21,13,6,-16,-111,57,5,35,2.091353139
18.425809,-1,-31,-2,-4,-71,-44,-2,-20,2.091353139
18.449063,-39,4,2,-9,0,-45,4,30,2.091353139
18.449077,1,-3,-11,-1,77,87,17,15,2.091353139
18.449083,15,-4,-2,-8,50,-34,7,31,2.091353139
18.449087,9,2,0,-6,-62,-13,-22,1,2.091353139
18.462552,-19,7,4,-4,1,-7,30,-28,2.091353139
18.462667,36,-18,-3,21,-5,-9,-33,-7,2.091353139
18.465238,-28,4,0,-11,18,45,22,-26,2.091353139
18.465246,14,8,4,11,25,-22,3,10,2.091353139
18.485328,19,3,-1,4,97,8,21,35,2.091353139
18.485352,-14,-13,3,22,-3,-28,13,-9,2.091353139
18.485678,-1,28,4,3,-97,-10,18,10,2.091353139
18.485700,31,-4,1,-29,-29,14,1,1,2.091353139
18.507315,-25,-17,-10,2,82,-21,-7,-27,2.091353139
18.507341,-4,13,0,-22,-60,-96,15,51,2.091353139
18.509411,5,-21,0,24,78,61,-20,-21,2.091353139
18.509418,-45,-5,-3,-12,58,23,15,26,2.091353139
18.522619,43,34,6,-4,-42,-14,-11,-5,2.091353139
18.522639,10,1,-4,21,-3,23,4,-14,2.091353139
18.524635,-37,48,6,9,18,-33,-26,1,2.091353139
18.524645,69,-22,-10,-8,13,-24,-1,11,2.091353139
18.544891,-12,-2,0,-5,1,9,-16,29,2.091353139
18.544926,-24,5,1,-25,-56,29,0,-54,2.091353139
18.545527,-13,-9,4,3,-97,-37,-3,5,2.091353139
18.545548,17,4,-8,32,105,87,19,-37,2.091353139
18.567666,-41,-12,-4,-30,73,63,-16,48,2.091353139
18.567699,10,-8,-5,-18,-110,31,24,10,2.091353139
18.570149,5,15,0,-16,18,-52,-14,-81,2.091353139
18.570156,8,2,2,26,31,-60,-15,8,2.091353139
18.581920,6,-17,-7,-5,20,67,-3,-11,2.091353139
18.581952,-10,46,9,1,-42,-5,3,37,2.091353139
18.589883,-6,-21,-7,-9,28,16,13,-22,2.091353139
18.589903,-8,18,-3,-31,-128,-21,-6,9,2.091353139
18.606455,31,-11,-1,20,-18,-32,10,-24,2.091353139
18.606468,-12,28,11,4,29,10,2,-2,2.091353139
18.606471,-15,-61,-10,5,4,29,-2,4,2.091353139
18.606473,53,5,-3,-23,-35,-87,4,14,2.091353139
18.628635,-47,-1,4,22,-17,3,8,11,2.091353139
18.628659,12,11,-2,-19,45,-33,46,42,2.091353139
18.635082,15,-9,2,10,20,-59,-51,-9,2.091353139
18.635104,-32,-9,3,17,2,46,2,9,2.091353139
18.642421,0,9,3,-13,-80,14,-4,-6,2.091353139
18.642452,25,23,-7,17,54,-8,-16,-1,2.091353139
18.643208,-7,4,0,-7,-74,3,41,2,2.091353139
18.643231,-29,-17,-9,-37,-54,12,-22,4,2.091353139
18.665211,30,20,1,14,34,-23,-4,9,2.091353139
18.665243,-19,-2,3,-4,-80,-9,-11,-23,2.091353139
18.667838,2,-1,1,36,84,61,23,-10,2.091353139
18.667849,-10,24,-1,-24,-48,-72,-26,-14,2.091353139
18.687605,-45,-31,-18,-13,-34,66,-44,-45,2.078527095
18.687634,57,-16,-3,-33,103,51,-7,73,2.078527095
18.688323,54,7,6,42,11,-1,24,91,2.078527095
18.688345,-20,1,9,-13,-74,9,34,39,2.078527095
18.702749,-2,15,17,10,-26,-94,-27,0,2.078527095
18.702780,-60,1,-3,24,67,36,48,-14,2.078527095
18.705249,-37,-23,-12,-28,-48,-15,-13,-25,2.078527095
18.705261,25,-22,-6,7,94,32,-4,41,2.078527095
18.724883,13,1,-2,-13,-115,-43,-9,-2,2.078527095
18.724907,7,0,1,5,-43,-1,-1,-68,2.078527095
18.726791,17,26,7,-9,56,-5,-1,18,2.078527095
18.726799,-1,1,-4,13,-43,12,6,-9,2.078527095
18.747390,-5,-14,-3,-6,22,11,15,-5,2.078527095
18.747428,-8,1,1,9,-3,-6,-19,6,2.078527095
18.747981,5,-52,-6,-8,8,3,-19,-69,2.078527095
18.748014,19,10,4,0,15,-76,34,23,2.078527095
18.762187,6,-2,2,-13,-61,53,-19,-4,2.078527095
18.762204,-65,-16,-4,20,32,-12,-22,-11,2.078527095
18.764869,20,4,-2,-26,73,-10,-11,-8,2.078527095
18.764875,39,8,-4,-1,52,80,-10,-6,2.078527095
18.784918,-23,-12,-3,25,91,-22,44,-5,2.078527095
18.784944,-12,-12,-6,-20,3,30,-3,1,2.078527095
18.786879,-7,19,8,16,-104,-20,3,-10,2.078527095
18.786886,79,-12,-8,-11,-61,-7,-7,-22,2.078527095
18.807771,-7,23,0,6,82,-39,-2,21,2.078527095
18.807791,6,-19,-2,-9,-73,16,-38,-16,2.078527095
18.807878,-19,1,-4,-3,10,-26,8,1,2.078527095
18.807884,-46,13,3,2,25,32,-7,1,2.078527095
18.823701,17,10,1,4,-49,-32,4,-17,2.078527095
18.823719,22,10,-4,10,80,-20,2,-40,2.078527095
18.830247,0,-12,-3,-21,-84,28,-18,10,2.078527095
18.831005,-39,6,-5,4,48,23,7,9,2.078527095
18.844793,16,-28,-2,-23,-72,27,-5,-18,2.078527095
18.844810,20,3,4,9,18,40,17,9,2.078527095
18.846227,-13,-25,-10,2,-55,-81,-36,-27,2.078527095
18.846239,-52,14,3,5,53,116,0,59,2.078527095
18.868355,48,-24,-14,-47,-60,-45,-18,-39,2.078527095
18.868362,32,4,2,19,-55,-27,3,6,2.078527095
18.868365,7,11,-2,15,-14,-26,5,26,2.078527095
18.868367,-11,-2,4,-6,-2,-2,-8,-19,2.078527095
18.884189,-24,-5,7,24,88,24,7,18,2.078527095
18.884196,-6,-10,-3,-14,-10,-16,10,29,2.078527095
18.889772,24,46,-6,-13,23,-14,-33,-26,2.078527095
18.889793,10,-55,-5,19,-17,-46,-19,-27,2.078527095
18.915093,-14,14,0,-26,121,51,9,-40,2.078527095
18.915102,-16,-20,-8,0,5,-31,-11,-12,2.078527095
18.915104,-15,13,0,-7,-35,64,30,39,2.078527095
18.915107,9,23,12,9,-12,-70,4,6,2.078527095
18.927522,-23,-3,-1,7,-27,-25,-14,-36,2.078527095
18.927554,13,-10,1,-20,-10,64,-11,15,2.078527095
18.929541,40,-15,-11,-16,15,-31,26,32,2.078527095
18.929550,25,7,5,-9,-26,-8,9,-12,2.078527095
18.941916,-11,21,-2,27,53,9,-21,14,2.092006611
18.941947,17,-23,-1,-7,-20,-45,-6,-44,2.092006611
18.950530,-8,2,-4,-3,32,26,13,-5,2.092006611
18.950555,-10,-6,-7,-19,22,3,-14,-45,2.092006611
18.965094,50,9,-4,10,-125,-68,-2,33,2.092006611
18.965192,-32,55,6,-34,18,-16,-1,16,2.092006611
18.965612,5,-2,2,30,127,-38,14,-3,2.092006611
18.965661,14,-4,2,28,-30,12,-13,7,2.092006611
18.987707,-18,-11,1,3,-28,57,45,-4,2.092006611
18.987741,-8,-2,-8,-11,-2,-57,-30,-6,2.092006611
18.990210,-17,5,-3,-21,-100,50,-15,-5,2.092006611
18.990223,-21,-12,-2,-8,71,6,15,10,2.092006611
19.001917,19,41,0,25,10,-12,-4,82,2.092006611
19.001949,-14,-14,4,13,-33,-22,-7,-74,2.092006611
19.009971,-5,8,6,-17,-65,35,2,20,2.092006611
19.009988,11,7,-3,8,84,-31,-7,-75,2.092006611
19.024868,2,-30,-3,2,25,41,-1,13,2.092006611
19.024881,-3,-17,-4,5,-12,13,26,37,2.092006611
19.025491,-23,3,5,13,97,49,-8,2,2.092006611
19.025526,65,-15,-1,-54,-127,14,11,18,2.092006611
19.047466,-41,-3,-5,40,123,-19,10,-36,2.092006611
19.047497,-1,-8,-1,14,-65,-30,2,9,2.092006611
19.049618,-3,17,1,-10,66,42,-1,-24,2.092006611
19.049623,-87,-9,-4,13,36,-79,6,14,2.092006611
19.061858,-19,-5,-3,-21,51,12,-25,5,2.092006611
19.061890,-11,-8,-3,-14,-7,39,-9,6,2.092006611
19.069872,3,0,3,26,33,-25,0,37,2.092006611
19.069894,-18,9,-6,-20,-62,-10,-18,-1,2.092006611
19.085938,-5,9,10,0,-42,-2,6,54,2.092006611
19.085953,8,-13,-4,11,-30,-16,-9,27,2.092006611
19.085959,-5,-18,1,9,47,-5,-3,3,2.092006611
19.085964,-45,19,3,-4,8,23,-4,35,2.092006611
19.107720,101,20,-1,11,-67,9,9,-61,2.092006611
19.107739,-82,-35,0,-28,53,16,24,51,2.092006611
19.109026,106,2,0,16,14,-81,-25,-18,2.092006611
19.109044,-53,-15,-3,6,11,80,10,-5,2.092006611
19.130738,-47,-16,-8,-23,76,84,-22,-31,2.092006611
19.130754,-67,63,10,8,26,13,37,20,2.092006611
19.131230,37,-2,-13,-6,-107,-18,0,-33,2.092006611
19.131297,1,-11,-2,-5,-62,-36,-14,10,2.092006611
19.145362,-39,-12,1,-6,51,27,13,-26,2.092006611
19.145394,-28,12,0,17,13,18,-4,-11,2.092006611
19.148142,29,13,0,-33,-48,6,12,17,2.092006611
19.148149,35,-3,-2,28,-18,-30,-2,-12,2.092006611
19.167976,-7,4,2,-2,-40,-26,22,22,2.092006611
19.168002,35,-4,-3,2,12,-68,-32,-26,2.092006611
19.168216,-27,-9,2,0,-67,71,1,5,2.092006611
19.168241,7,-5,-4,-20,-5,-33,-2,-17,2.092006611
19.190661,10,-18,0,0,63,-27,-10,1,2.080280201
19.190688,-9,27,3,5,-36,-35,-14,3,2.080280201
19.193299,-5,-29,-12,2,-73,-28,-17,-21,2.080280201
19.193310,38,0,-3,-18,5,3,18,106,2.080280201
19.205024,-39,33,2,6,44,57,55,-6,2.080280201
19.205051,-37,-14,2,-2,-48,-26,-22,0,2.080280201
19.207462,35,-5,-1,2,-39,-36,12,-52,2.080280201
19.207482,-16,-26,0,4,3,-7,-25,8,2.080280201
19.227366,36,6,0,0,-60,-36,21,-10,2.080280201
19.227384,53,9,-2,-15,-6,-53,-44,13,2.080280201
19.228226,-97,-12,-3,2,50,48,-26,-22,2.080280201
19.228249,32,6,-1,6,-37,-33,-7,-45,2.080280201
19.241598,-9,-5,0,-9,-33,-36,-20,-21,2.080280201
19.241619,52,3,2,-1,-53,38,17,-11,2.080280201
19.250068,-36,7,5,-1,100,24,11,46,2.080280201
19.250091,-24,-6,-6,14,33,21,-9,-35,2.080280201
19.265089,-1,-7,2,-21,-7,-85,-31,15,2.080280201
19.265122,-22,-2,1,54,41,-26,8,-11,2.080280201
19.266643,58,-15,-15,-51,19,88,4,5,2.080280201
19.266648,-9,1,4,12,17,-10,-16,-2,2.080280201
19.287278,11,18,1,-5,-37,-15,7,2,2.080280201
19.287286,-19,-4,-12,-16,-11,87,-18,16,2.080280201
19.288111,-14,-12,2,6,-1,-58,-18,3,2.080280201
19.288130,-20,6,2,-7,5,-21,18,-21,2.080280201
19.310500,50,-4,-3,9,-65,-21,-34,14,2.080280201
19.310517,85,-28,-9,-8,36,16,23,-11,2.080280201
19.311391,-17,25,8,-2,-92,-24,11,62,2.080280201
19.311399,-1,-4,-4,3,6,27,-11,-22,2.080280201
19.324900,9,34,4,-1,34,-16,24,15,2.080280201
19.324921,-5,-35,-10,-10,127,-2,-18,-44,2.080280201
19.326016,-25,13,2,20,32,-45,-2,-31,2.080280201
19.326027,-21,-18,-3,-5,17,1,-3,-74,2.080280201
19.347386,-8,-11,5,-5,-57,45,1,40,2.080280201
19.347417,42,4,-1,-15,-47,-66,24,-25,2.080280201
19.351008,-51,-3,-6,-23,-44,-55,-15,-3,2.080280201
19.351020,49,55,5,6,-48,3,34,-15,2.080280201
19.371039,1,-33,-1,20,-11,38,-30,3,2.080280201
19.371056,-7,-8,0,-6,-42,41,5,-6,2.080280201
19.373141,20,-1,3,-4,77,9,19,5,2.080280201
19.373154,-50,14,2,15,24,-7,3,-6,2.080280201
19.385115,53,-2,-14,-28,-23,-46,-4,-50,2.080280201
19.385138,12,1,8,13,-3,-9,-8,55,2.080280201
19.385530,10,17,-3,4,-28,-1,1,-22,2.080280201
19.385551,-29,-38,-2,-6,104,6,-7,39,2.080280201
19.407389,-20,23,5,20,60,-35,-8,4,2.080280201
19.407413,45,-18,-5,-35,-40,71,-6,-20,2.080280201
19.410790,37,7,0,37,-16,36,36,3,2.080280201
19.410802,-33,-4,1,-5,-15,29,-13,24,2.080280201
19.438446,-13,10,2,-25,-42,-29,25,-7,2.080280201
19.438473,23,0,-6,3,70,23,-10,13,2.080280201
19.440592,-37,-28,1,3,-31,-10,18,-3,2.080280201
19.440606,45,30,0,-12,-36,26,4,23,2.080280201
19.444795,-42,-23,-3,14,24,25,-10,-8,2.096576396
19.444813,-17,11,3,5,-23,-21,-6,20,2.096576396
19.445468,9,-24,2,-4,43,2,-4,-38,2.096576396
19.445491,-10,19,-8,-8,-53,-25,-9,19,2.096576396
19.467938,-8,-17,1,6,59,-26,-8,-20,2.096576396
19.468028,-35,16,3,-10,-45,29,27,-24,2.096576396
19.469996,80,-18,-14,27,62,-56,-34,11,2.096576396
19.470002,-23,-32,-3,-20,-106,-24,-22,30,2.096576396
19.490848,-7,-14,-13,-10,24,100,3,-1,2.096576396
19.490857,-49,36,11,-1,69,-28,10,50,2.096576396
19.491138,1,-22,1,10,-1,-61,-32,15,2.096576396
19.491145,30,13,-2,-16,32,-17,14,0,2.096576396
19.506890,-15,-27,-1,-5,-2,16,-23,6,2.096576396
19.506903,-34,-2,5,13,17,-4,17,-6,2.096576396
19.506906,34,17,-6,-21,-48,6,-2,-2,2.096576396
19.506908,21,-22,-2,15,29,-27,-5,-5,2.096576396
19.527799,-22,23,-2,8,15,-21,-10,-1,2.096576396
19.527826,4,-16,4,28,1,2,1,-16,2.096576396
19.530437,-39,3,5,-28,-31,-18,12,12,2.096576396
19.530445,16,-13,0,18,35,43,18,17,2.096576396
19.550806,-19,-13,4,6,-123,38,52,12,2.096576396
19.550835,44,-3,-5,-25,39,7,-33,-41,2.096576396
19.553330,-48,3,-1,-11,-90,7,6,0,2.096576396
19.553338,39,0,3,22,-13,48,8,-9,2.096576396
19.565285,9,1,1,9,-15,23,8,26,2.096576396
19.565320,-9,-5,-1,24,15,-105,-3,-15,2.096576396
19.567826,-58,10,-4,-43,-27,56,17,81,2.096576396
19.567867,44,15,-2,33,46,2,9,-77,2.096576396
19.587420,-31,7,1,-7,29,39,-13,1,2.096576396
19.587438,-53,-10,-3,-17,-16,-51,9,6,2.096576396
19.588172,9,0,-3,5,-21,70,-12,-44,2.096576396
19.588190,-17,16,5,-13,-67,18,3,48,2.096576396
19.610659,36,-26,-6,11,30,-63,-24,2,2.096576396
19.610677,-16,51,0,13,-19,13,17,6,2.096576396
19.611836,-19,1,7,-23,13,-76,11,-15,2.096576396
19.611850,-9,-15,-13,-24,-52,27,-11,-13,2.096576396
19.624908,-3,-23,-11,-15,-117,69,-11,-51,2.096576396
19.624933,14,39,4,-9,49,-5,-13,25,2.096576396
19.627098,14,-27,0,36,-3,20,-25,-8,2.096576396
19.627111,7,-6,-3,5,-28,-65,-4,-26,2.096576396
19.648697,-17,24,4,-21,116,-18,7,54,2.096576396
19.648704,57,5,6,14,-44,10,-15,24,2.096576396
19.648706,-33,-25,-17,-12,89,20,-19,-20,2.096576396
19.648709,-2,21,-4,-21,23,12,-5,-27,2.096576396
19.670660,2,-4,5,5,12,-59,-14,-1,2.096576396
19.670679,-1,-16,0,7,-58,52,25,-7,2.096576396
19.671982,-11,28,4,36,88,-13,9,13,2.096576396
19.672001,-1,-30,3,-26,2,-5,-2,15,2.096576396
19.684870,25,-3,-5,3,37,-15,-1,-69,2.096576396
19.684887,-7,-4,-3,-16,1,-47,-1,2,2.096576396
19.685592,-8,16,5,6,17,21,23,10,2.096576396
19.685597,-43,-10,1,21,94,-60,1,-21,2.096576396
19.707432,42,28,-2,-8,-90,-2,14,62,2.102845205
19.707473,16,-21,2,-2,-85,23,-2,-8,2.102845205
19.709284,-28,-19,1,25,79,8,6,24,2.102845205
19.709296,26,47,0,-5,9,22,0,8,2.102845205
19.730664,-71,-29,-2,-19,-28,3,-2,-12,2.102845205
19.730687,0,-47,-22,-3,-49,4,-9,-13,2.102845205
19.731764,11,7,2,-21,-92,-29,-5,-41,2.102845205
19.731773,5,12,2,33,23,26,16,13,2.102845205
19.745019,-39,13,6,-41,66,-28,7,36,2.102845205
19.745039,-20,32,7,13,91,37,-1,4,2.102845205
19.745674,74,-3,-4,14,21,4,-5,-9,2.102845205
19.746488,-11,5,-4,-30,-91,-76,-19,-11,2.102845205
19.767654,0,-22,2,22,-14,-49,3,7,2.102845205
19.767684,-12,26,-5,19,124,26,3,-8,2.102845205
19.770375,-16,9,4,0,-1,26,0,6,2.102845205
19.770382,3,20,8,-3,44,-52,-9,2,2.102845205
19.790592,46,-14,-7,-6,-60,49,0,-2,2.102845205
19.790608,-8,-2,-1,-18,-74,-30,-4,3,2.102845205
19.791155,41,25,2,9,-41,4,27,89,2.102845205
19.791163,-36,-39,-4,-1,-9,25,-16,53,2.102845205
19.804983,96,14,-5,-16,-61,-87,-4,-51,2.102845205
19.804996,-4,-43,-9,11,34,26,17,-10,2.102845205
19.805749,-22,4,3,-23,-128,52,8,61,2.102845205
19.805768,-5,-7,4,-10,67,1,5,-14,2.102845205
19.827327,-36,6,-2,20,82,44,-33,-8,2.102845205
19.827347,47,-11,-2,6,59,-28,29,14,2.102845205
19.828244,-18,33,2,-6,8,48,15,-104,2.102845205
19.828251,-25,-3,-2,12,46,-21,-10,-6,2.102845205
19.850575,-18,21,3,1,22,-6,8,10,2.102845205
19.850589,0,-23,-5,-20,-24,2,-9,-9,2.102845205
19.851127,9,-1,2,17,-9,-38,-15,-15,2.102845205
19.851173,-21,-16,-3,2,-41,7,-1,7,2.102845205
19.866186,18,27,7,14,-18,24,12,22,2.102845205
19.866193,-2,-20,-10,-31,14,-8,-16,-19,2.102845205
19.872607,-13,-21,-8,-11,-3,2,-37,-19,2.102845205
19.872625,3,-9,3,-20,-114,-43,0,6,2.102845205
19.887722,12,18,-5,5,50,10,-17,-7,2.102845205
19.887756,9,-4,0,3,30,-31,-10,-10,2.102845205
19.889292,34,-6,-2,5,-43,-25,-9,0,2.102845205
19.889311,-61,-44,-7,-13,-16,32,-40,-13,2.102845205
19.912136,-41,43,2,0,-39,-25,6,-14,2.102845205
19.912144,69,-63,-15,4,-21,-38,-10,-30,2.102845205
19.912146,56,29,9,-19,16,-56,4,30,2.102845205
19.912149,-88,-40,-10,28,50,59,5,-51,2.102845205
19.924326,12,14,6,-7,9,-27,9,20,2.102845205
19.924350,-62,10,7,-17,-81,22,-12,-12,2.102845205
19.932776,45,-23,-7,31,99,-18,0,-14,2.102845205
19.932796,53,41,3,-3,-40,-11,1,21,2.102845205
19.947602,-10,-34,-5,-19,41,49,24,-3,2.102845205
19.947623,-8,34,11,43,60,-50,-12,-11,2.102845205
19.948441,-37,-18,-11,-42,-16,107,-2,-20,2.102845205
19.948550,-9,1,4,-1,-71,-50,40,6,2.102845205
19.971222,10,-30,-3,29,87,29,-10,14,2.091677625
19.971336,48,31,8,-6,-56,-31,-13,39,2.091677625
19.971343,-24,-16,-5,14,69,39,3,-28,2.091677625
19.971348,17,10,-1,-18,-49,9,-30,-15,2.091677625
19.993281,-22,-17,-7,-9,-1,-3,-5,-41,2.091677625
19.993308,14,14,4,0,14,20,-17,100,2.091677625
19.993937,-47,4,5,29,-21,-36,13,6,2.091677625
19.993958,42,-3,-5,-36,14,13,10,63,2.091677625
