timestamp,emg1,emg2,emg3,emg4,emg5,emg6,emg7,emg8,label
10.015025,25,-30,4,-12,20,-16,3,-14,2.227509311
10.015095,42,119,16,-5,-91,72,47,23,2.227509311
10.035146,-120,-128,-41,39,88,-76,-62,-15,2.227509311
10.035171,12,27,5,2,58,-33,48,0,2.227509311
10.041019,32,-1,1,-15,-33,34,1,-6,2.227509311
10.041048,9,-38,0,-2,63,58,24,-42,2.227509311
10.048260,15,69,10,16,23,3,-76,4,2.227509311
10.048284,42,116,1,-25,-105,-17,2,3,2.227509311
10.057965,-117,-121,-4,-1,-35,-19,18,-4,2.227509311
10.057982,34,0,-18,-24,-72,-27,-30,-32,2.227509311
10.072068,41,1,10,2,35,2,25,-53,2.227509311
10.072092,18,49,-7,-13,0,1,-9,50,2.227509311
10.073952,95,57,9,16,17,1,13,-66,2.227509311
10.073984,87,10,5,23,29,-15,-31,11,2.227509311
10.094635,-105,73,11,-10,-73,14,34,13,2.227509311
10.094662,12,-128,-8,-9,-60,12,6,-4,2.227509311
10.096276,26,-34,-8,9,0,0,2,-5,2.227509311
10.096305,-21,8,-20,0,-63,-53,7,2,2.227509311
10.108981,23,-41,9,-20,47,69,-5,10,2.227509311
10.108989,27,78,15,49,61,-30,4,-1,2.227509311
10.118233,17,88,9,29,76,24,21,60,2.227509311
10.118249,-9,59,0,-33,-9,47,-35,6,2.227509311
10.131968,18,0,0,23,13,4,59,20,2.227509311
10.131998,-45,-13,-7,-33,-63,-2,-16,-23,2.227509311
10.133935,-24,85,-4,-18,-25,-29,-25,-30,2.227509311
10.133944,82,-23,4,12,33,-33,-16,44,2.227509311
10.154941,55,-3,11,-12,-24,1,3,21,2.227509311
10.154974,29,22,-4,12,38,-14,-18,-26,2.227509311
10.157527,-71,-24,-25,-13,-12,-18,-19,-19,2.227509311
10.157541,-10,-3,5,-11,-11,14,-6,3,2.227509311
10.168369,17,-50,-5,-19,-39,-6,13,24,2.227509311
10.168400,-28,-72,-6,-36,-25,11,-9,10,2.227509311
10.178808,57,85,13,39,-11,63,41,89,2.227509311
10.178825,-107,-72,-6,44,-47,-64,-29,-31,2.227509311
10.192060,7,102,10,0,58,25,-9,-16,2.227509311
10.192078,-25,-108,-15,-14,54,97,-48,-13,2.227509311
10.195302,-76,3,3,-26,-65,36,15,-24,2.227509311
10.195310,57,70,5,12,-30,-29,-23,3,2.227509311
10.215414,8,43,-6,2,-42,-21,19,16,2.227509311
10.215445,-12,127,16,-24,-102,-21,30,-10,2.227509311
10.217776,23,-120,-13,39,70,-5,-80,-37,2.227509311
10.217787,-47,6,5,17,14,5,-2,-59,2.227509311
10.228321,-9,31,-7,-25,-17,-10,-11,-47,2.181572603
10.228345,-33,-2,1,4,38,-14,26,-9,2.181572603
10.240050,47,41,13,-9,-25,12,18,32,2.181572603
10.240065,-41,81,-7,-16,16,17,52,-18,2.181572603
10.251929,-9,-96,-12,-6,-20,-20,-32,69,2.181572603
10.251964,23,95,7,-10,-56,5,41,-18,2.181572603
10.253945,-4,-77,-12,34,90,16,-18,-22,2.181572603
10.253965,45,15,-13,-16,30,-9,-20,31,2.181572603
10.274491,-65,-6,11,17,-47,-48,17,3,2.181572603
10.274509,60,93,8,17,94,120,-43,22,2.181572603
10.276155,11,-37,-2,-28,-103,-39,7,4,2.181572603
10.276222,-75,-20,1,-2,24,-18,95,47,2.181572603
10.298831,-58,9,-21,-2,15,-20,-41,-61,2.181572603
10.298839,-54,-128,-6,-8,30,-48,23,2,2.181572603
10.298842,112,55,-11,-40,-45,-16,-17,56,2.181572603
10.298844,-27,-106,-6,30,113,81,33,-20,2.181572603
10.313500,55,102,23,-8,2,-11,7,-1,2.181572603
10.313512,-42,-48,-9,32,-34,-27,5,18,2.181572603
10.313514,-13,77,3,-24,2,0,-2,22,2.181572603
10.313517,-4,28,-4,-36,-91,-30,-27,3,2.181572603
10.333840,51,96,14,22,7,60,15,36,2.181572603
10.333853,80,-34,11,33,47,-36,-16,15,2.181572603
10.335655,-71,-34,-10,-17,-89,-13,16,-31,2.181572603
10.335662,12,4,0,-5,88,18,-12,-12,2.181572603
10.356378,-12,-128,-21,-51,-94,-73,-19,-64,2.181572603
10.356435,-85,48,0,61,120,35,-39,-19,2.181572603
10.357781,23,-24,8,-31,-66,-3,67,69,2.181572603
10.357792,60,20,4,32,-38,-24,-14,-31,2.181572603
10.371803,-93,-71,-8,31,62,23,-2,5,2.181572603
10.371828,0,15,8,-1,1,-28,-6,29,2.181572603
10.374120,-6,32,5,1,35,11,57,-14,2.181572603
10.374134,49,41,21,0,3,-6,-16,-40,2.181572603
10.393745,-2,45,2,-16,-90,19,-11,9,2.181572603
10.393783,11,-34,-20,-26,-70,-25,10,-17,2.181572603
10.394668,-83,-73,-3,9,51,-20,-26,-41,2.181572603
10.394689,16,2,5,-26,8,39,12,-15,2.181572603
10.416830,6,-18,0,19,27,2,15,10,2.181572603
10.416861,-38,25,9,-14,-20,9,14,1,2.181572603
10.419297,74,-2,-9,-6,-43,-38,-30,-37,2.181572603
10.419313,-62,-75,-3,16,-63,30,-9,10,2.181572603
10.431330,6,69,-3,31,50,-44,-3,12,2.181572603
10.431362,-15,-19,10,-4,61,76,36,-17,2.181572603
10.433943,54,69,-7,21,64,-7,54,3,2.181572603
10.433950,47,108,13,11,-98,-2,-1,-39,2.181572603
10.454845,-4,-117,-4,10,-7,54,9,88,2.181572603
10.455183,3,55,-4,-44,-64,-6,-4,12,2.181572603
10.455187,-109,-11,-12,-2,-45,-36,-36,1,2.181572603
10.455189,47,-7,-27,-31,57,48,-18,10,2.181572603
10.486842,47,-29,0,-10,9,-17,16,-12,2.194110217
10.486851,30,4,7,19,0,-15,-18,13,2.194110217
10.486853,16,73,13,-9,-22,16,-10,2,2.194110217
10.486856,-79,-3,6,12,24,-39,-32,33,2.194110217
10.491390,17,-79,-18,-59,-74,0,4,-88,2.194110217
10.491411,-2,-73,-13,52,-31,10,-9,25,2.194110217
10.492073,-45,-45,0,23,79,37,23,-40,2.194110217
10.493843,20,61,14,34,86,68,-18,35,2.194110217
10.514062,28,-18,18,18,18,16,9,-9,2.194110217
10.514094,-81,-17,-17,-11,61,45,-6,-29,2.194110217
10.516726,53,0,7,3,-28,4,-22,-2,2.194110217
10.516762,-75,-128,-16,-43,18,-13,-2,-41,2.194110217
10.536226,-30,28,-9,11,-34,-8,-5,-15,2.194110217
10.536261,55,30,6,5,-5,-29,8,33,2.194110217
10.537411,24,105,2,-12,-17,22,-9,-9,2.194110217
10.537431,-10,35,2,-15,-95,-62,-5,-38,2.194110217
10.551412,17,-14,-5,12,95,67,24,25,2.194110217
10.551442,81,30,8,-13,-66,-59,-3,19,2.194110217
10.558899,-100,-98,-16,-51,-3,57,11,-84,2.194110217
10.558928,79,-21,-13,30,78,-88,-23,-4,2.194110217
10.574116,26,127,11,44,47,19,31,20,2.194110217
10.574140,11,79,-13,-49,53,8,3,-6,2.194110217
10.576081,42,46,10,-7,-31,-2,-63,48,2.194110217
10.576095,24,-24,27,86,98,52,79,86,2.194110217
10.604818,-44,-114,-23,-13,-89,-59,1,17,2.194110217
10.604837,95,99,18,-10,-66,-67,-23,-7,2.194110217
10.607760,-73,-117,-15,-11,38,80,21,-3,2.194110217
10.607776,43,77,-20,-38,-54,-4,22,35,2.194110217
10.611225,-28,-66,-5,0,16,-45,-65,-51,2.194110217
10.611243,-27,-113,-5,-11,-80,6,27,-85,2.194110217
10.612006,127,127,28,24,26,-40,-28,45,2.194110217
10.612040,-67,-103,-12,-13,-126,-1,16,54,2.194110217
10.634080,-26,66,-3,3,100,66,35,-6,2.194110217
10.634101,62,-1,21,10,-103,9,-28,-16,2.194110217
10.636501,-57,-104,-20,-5,42,-28,-6,-19,2.194110217
10.636520,9,10,-18,-28,-2,-2,-38,-15,2.194110217
10.656686,43,109,16,15,26,-28,40,9,2.194110217
10.656719,-57,24,-13,11,-27,10,20,-43,2.194110217
10.658592,33,46,6,25,-34,-58,-44,30,2.194110217
10.658601,29,14,-2,-28,-86,78,27,-11,2.194110217
10.671615,-76,-25,-1,-19,13,-58,-56,52,2.194110217
10.671640,1,-11,-11,7,10,-10,43,-30,2.194110217
10.674980,-50,76,2,-13,49,-37,12,-74,2.194110217
10.674992,-8,29,-4,-22,-106,-19,-57,-13,2.194110217
10.693729,82,63,18,20,10,33,-17,-12,2.194110217
10.693738,-13,-26,-19,2,63,-9,-22,11,2.194110217
10.694864,27,53,3,-29,-126,-37,28,49,2.194110217
10.694885,-41,37,8,55,125,40,-31,-37,2.194110217
10.716633,39,43,12,2,16,109,53,32,2.194110217
10.716666,-75,-116,-3,-27,59,-101,-13,18,2.194110217
10.719117,-63,-117,-22,-5,-32,57,-42,-19,2.194110217
10.719124,61,43,14,-4,14,-83,12,-13,2.194110217
10.731779,-13,-17,-10,1,56,-51,2,-8,2.194110217
10.731814,26,-46,-3,-11,-27,69,-56,68,2.194110217
10.734313,20,16,5,-10,-16,12,57,49,2.194110217
10.734329,-50,-11,-4,10,51,-61,24,-16,2.194110217
10.754333,-18,43,-15,-35,-88,16,-3,-76,2.183785386
10.754340,-30,90,0,-32,-87,-40,-31,28,2.183785386
10.754456,20,66,7,28,25,-11,0,-22,2.183785386
10.754464,10,0,20,34,53,58,22,-5,2.183785386
10.776304,67,-10,4,20,54,-57,6,19,2.183785386
10.776322,-2,60,14,40,55,24,9,-117,2.183785386
10.777915,26,64,10,-14,-44,17,35,42,2.183785386
10.777933,-19,-72,-7,-24,-94,-49,-64,-19,2.183785386
10.791217,-30,43,-9,-16,-11,-1,8,4,2.183785386
10.791234,1,-41,-8,-18,29,24,14,-4,2.183785386
10.800354,5,-68,5,21,-4,35,-7,2,2.183785386
10.800361,-29,32,-10,-40,-48,-63,-2,-52,2.183785386
10.815164,53,-88,2,-21,-59,33,-31,76,2.183785386
10.815172,5,39,12,32,-32,-42,-23,20,2.183785386
10.815175,10,-3,-10,-67,-42,-41,23,-43,2.183785386
10.815177,-57,-77,-7,77,110,19,-28,-5,2.183785386
10.836694,-56,-70,-14,-35,-52,70,50,-15,2.183785386
10.836726,3,68,14,-14,74,-21,25,36,2.183785386
10.839608,23,-76,0,49,127,60,-2,8,2.183785386
10.839624,-27,29,-15,-46,-66,-58,22,25,2.183785386
10.851251,-16,36,17,0,16,-6,-48,-25,2.183785386
10.851266,20,2,-8,2,-47,58,34,61,2.183785386
10.851893,46,-5,-3,-26,-114,-104,-34,-23,2.183785386
10.851927,6,-82,-26,-11,9,74,-37,45,2.183785386
10.881975,51,54,7,23,50,-22,6,0,2.183785386
10.881998,-67,17,-1,-17,-32,9,0,7,2.183785386
10.882668,21,-64,-21,28,-19,-9,-10,52,2.183785386
10.884599,-45,119,12,0,38,-47,-35,-9,2.183785386
10.896318,-53,-128,-12,-39,-97,6,32,-38,2.183785386
10.896346,38,42,-4,-2,8,27,-48,-3,2.183785386
10.897607,-46,5,8,63,96,46,37,-28,2.183785386
10.897628,66,95,20,-20,-28,37,42,45,2.183785386
10.911515,10,-43,-13,-1,22,-33,9,-7,2.183785386
10.911541,-5,-50,-13,4,-28,81,-25,-41,2.183785386
10.912449,-67,-81,10,13,12,-47,-31,-15,2.183785386
10.912470,79,6,1,5,-25,0,43,-4,2.183785386
10.934162,-12,58,-3,-9,-40,2,-15,-20,2.183785386
10.934194,-4,-19,2,0,44,-35,15,-26,2.183785386
10.936909,10,110,7,32,43,91,-11,-12,2.183785386
10.937003,-41,-85,0,-22,-18,22,-6,38,2.183785386
10.958197,80,113,-4,-2,-3,2,17,-4,2.183785386
10.958208,-73,56,6,36,26,-15,20,9,2.183785386
10.958211,-17,58,-6,-16,68,-20,-24,-55,2.183785386
10.958213,12,-42,22,20,66,43,21,60,2.183785386
10.971621,39,52,1,-8,6,-33,-16,-4,2.183785386
10.971640,15,-85,-19,-29,-76,6,19,11,2.183785386
10.973961,17,116,12,-23,0,-37,9,15,2.183785386
10.973974,64,-4,7,12,-16,49,36,-29,2.183785386
10.993732,-47,-33,-18,-12,70,-38,-90,8,2.211731385
10.993748,21,-45,-3,15,-20,13,49,-7,2.211731385
10.996000,85,48,-8,-7,65,22,-13,39,2.211731385
10.996008,41,69,11,0,78,-56,19,-73,2.211731385
11.016336,-68,-91,-31,-41,-71,35,-54,-41,2.211731385
11.016367,-41,71,14,33,12,-99,20,-10,2.211731385
11.018875,44,4,-8,-19,-7,5,-17,13,2.211731385
11.018915,16,127,-4,-16,-53,-7,25,-1,2.211731385
11.030683,65,65,33,14,-66,-9,-13,33,2.211731385
11.030728,-95,-128,-44,-21,69,50,-26,23,2.211731385
11.039235,25,25,2,-1,-58,-31,-6,69,2.211731385
11.039272,28,-26,-3,-1,-21,-3,-24,71,2.211731385
11.053891,9,22,-3,-3,-19,-14,3,-29,2.211731385
11.053913,65,116,18,3,-24,0,3,36,2.211731385
11.054937,-58,-52,-1,2,-16,-10,-5,-33,2.211731385
11.054961,-23,-39,-15,-48,-10,27,-2,-41,2.211731385
11.079428,-32,-5,12,69,-83,-83,31,30,2.211731385
11.079443,29,32,13,10,59,89,-36,-19,2.211731385
11.079448,-94,-56,-24,-11,77,-1,42,-32,2.211731385
11.079454,-12,46,13,46,-22,4,-63,-19,2.211731385
11.090672,1,-59,-3,-12,-44,-22,19,4,2.211731385
11.090692,40,45,4,-14,72,-86,-45,47,2.211731385
11.099643,2,32,15,-10,-96,75,21,-1,2.211731385
11.099650,-17,5,-11,6,-47,0,-2,-21,2.211731385
11.114891,24,57,3,-14,19,10,20,17,2.211731385
11.114898,79,36,16,16,0,-11,-17,54,2.211731385
11.114901,53,20,-12,10,23,-11,-10,32,2.211731385
11.114903,12,-1,2,-6,54,-16,16,-5,2.211731385
11.136772,35,127,16,-14,-64,14,-34,-36,2.211731385
11.136797,-29,-87,-23,-24,-17,33,50,-63,2.211731385
11.140014,17,32,11,7,-45,-107,-13,-45,2.211731385
11.140033,-15,-21,0,7,62,36,-11,20,2.211731385
11.160283,-68,-90,-34,16,125,35,35,-9,2.211731385
11.160294,13,-37,-5,-13,-52,107,18,6,2.211731385
11.160297,3,-3,9,0,1,25,30,-2,2.211731385
11.160299,-52,-27,-22,-29,-128,-29,-45,-51,2.211731385
11.174027,-9,4,14,-3,69,-11,16,3,2.211731385
11.174046,-20,21,7,-1,-33,-39,-14,-28,2.211731385
11.175937,34,50,-8,-15,-37,-27,17,37,2.211731385
11.175951,-31,-64,-21,-8,7,2,13,-53,2.211731385
11.196315,-26,104,18,28,20,27,10,21,2.211731385
11.196333,-64,-92,-14,-14,-42,-63,16,-46,2.211731385
11.196969,-90,15,0,-20,-106,6,-14,-47,2.211731385
11.196976,62,67,4,14,11,-1,3,-16,2.211731385
11.210697,-9,-102,-6,-24,38,-6,-7,5,2.211731385
11.210727,39,56,11,21,53,13,17,27,2.211731385
11.219245,-109,-110,-13,13,67,-16,-7,-10,2.211731385
11.219269,6,47,-1,11,32,56,-29,2,2.211731385
11.234318,18,53,-3,-11,50,-10,25,27,2.211731385
11.234349,37,105,4,-35,-76,1,-74,-5,2.211731385
11.237331,-10,-57,-5,-8,-14,52,38,-7,2.211731385
11.237339,-9,53,-3,-3,-128,-33,42,26,2.211731385
11.257527,-25,38,1,-3,46,17,-14,-30,2.211159035
11.257539,80,1,26,65,64,21,-50,85,2.211159035
11.257542,-40,21,-3,-1,8,-21,-7,-31,2.211159035
11.257544,7,-38,2,-13,-20,-18,10,0,2.211159035
11.271191,52,110,3,-18,-65,11,-5,-29,2.211159035
11.271220,-13,-108,-34,-4,2,-33,43,-51,2.211159035
11.279368,36,21,7,19,33,34,-9,67,2.211159035
11.279399,98,93,16,-1,30,-17,3,21,2.211159035
11.293824,-76,-16,-16,-4,-56,21,-21,-35,2.211159035
11.293841,-41,-7,2,-16,5,16,12,-9,2.211159035
11.297750,-19,-19,-9,-22,-125,-56,39,-5,2.211159035
11.297758,-87,11,-6,44,127,-34,-55,-58,2.211159035
11.324498,38,-11,6,33,37,-49,21,48,2.211159035
11.324524,3,21,-3,-7,-41,21,25,-59,2.211159035
11.326349,25,42,14,-32,-36,70,-35,-5,2.211159035
11.326359,-15,-20,-7,35,85,-32,54,-6,2.211159035
11.330593,40,71,17,-9,-29,27,29,40,2.211159035
11.330644,-10,-70,-16,-18,1,-56,-8,-15,2.211159035
11.339621,69,83,-9,20,33,-7,-28,-56,2.211159035
11.339651,-55,-127,-13,-22,-54,1,-32,26,2.211159035
11.354737,-23,-9,6,7,-28,7,-17,-58,2.211159035
11.354764,46,101,2,-12,-35,-9,26,64,2.211159035
11.357184,13,-31,4,-7,-90,-1,-5,-35,2.211159035
11.357197,2,-6,8,10,68,36,7,16,2.211159035
11.376237,-13,-49,-15,-10,27,55,12,-4,2.211159035
11.376255,-28,3,2,2,51,-1,3,-15,2.211159035
11.378359,-30,42,22,64,127,99,3,-28,2.211159035
11.378369,22,-85,-16,-21,-22,-92,41,7,2.211159035
11.399666,25,17,1,8,-15,5,-35,14,2.211159035
11.399687,39,76,26,13,-32,37,13,3,2.211159035
11.401586,-64,-123,-21,-2,-16,-16,42,32,2.211159035
11.401591,38,101,1,-27,-15,32,-25,67,2.211159035
11.414347,6,18,-1,-1,-29,-47,-25,-34,2.211159035
11.414369,7,-10,-7,-16,-55,-30,-22,-10,2.211159035
11.414728,79,127,27,-13,-37,-58,14,13,2.211159035
11.414773,-93,-120,-30,-2,-38,10,-8,-81,2.211159035
11.437267,45,8,-9,-27,-27,-9,8,39,2.211159035
11.437294,-18,67,-3,-16,-48,-22,-24,6,2.211159035
11.440373,11,-2,1,11,78,89,-21,11,2.211159035
11.440387,35,5,8,18,55,-85,17,2,2.211159035
11.459455,17,-32,-3,-19,-30,14,-22,-3,2.211159035
11.459472,-1,-111,0,30,44,5,22,66,2.211159035
11.460176,25,37,3,17,29,-55,-28,21,2.211159035
11.460255,32,-6,-5,-34,-62,57,2,12,2.211159035
11.474164,28,-20,-4,-12,-86,-21,5,2,2.211159035
11.474178,-36,42,-4,-4,73,-29,10,-22,2.211159035
11.481386,19,-64,1,17,-9,9,-40,5,2.211159035
11.481419,25,117,27,12,3,17,-32,-41,2.211159035
11.496215,-81,-29,8,10,9,-9,8,-73,2.211159035
11.496232,-19,-73,-20,-34,-48,5,6,-9,2.211159035
11.497277,41,-21,9,36,55,5,-2,28,2.211159035
11.497283,6,124,-1,-33,-33,7,16,6,2.211159035
11.521710,-46,-69,-11,30,-13,84,5,-21,2.209766466
11.521725,-10,-59,-15,-49,-32,-93,-13,-38,2.209766466
11.521728,-24,45,-11,-22,-13,53,-8,-9,2.209766466
11.521766,-8,79,28,37,-42,-15,-26,35,2.209766466
11.534142,-49,-63,-43,-9,47,29,40,-6,2.209766466
11.534174,-13,104,0,2,-64,-22,-44,-67,2.209766466
11.536648,5,-90,-3,-25,-38,-16,24,-9,2.209766466
11.536658,55,-128,-15,-20,33,21,7,-42,2.209766466
11.556459,10,44,24,21,-7,2,-8,85,2.209766466
11.556477,-8,14,2,19,26,9,7,-13,2.209766466
11.557065,19,19,-5,-13,25,-21,13,-11,2.209766466
11.557093,108,127,49,23,64,61,-28,52,2.209766466
11.579700,-57,-83,-58,-59,-73,-114,-10,-90,2.209766466
11.579731,69,107,-7,23,10,85,-13,14,2.209766466
11.582296,34,34,-1,35,88,28,18,38,2.209766466
11.582307,8,-20,-6,-13,-30,-16,-15,17,2.209766466
11.593810,21,63,38,10,-28,35,43,29,2.209766466
11.593829,-8,-57,-2,49,94,-61,33,26,2.209766466
11.595481,36,127,13,-27,-54,-17,-30,-27,2.209766466
11.595493,-128,-109,-53,-31,-48,62,29,-41,2.209766466
11.616429,-27,-44,9,7,60,8,-17,51,2.209766466
11.616437,-47,-35,-10,-4,-71,27,23,-77,2.209766466
11.616883,12,15,5,-9,-22,-17,-16,-39,2.209766466
11.616890,-11,-31,1,4,29,-14,33,35,2.209766466
11.639611,71,127,24,15,31,18,-35,28,2.209766466
11.639637,-5,-65,-3,-14,3,14,-4,-35,2.209766466
11.642037,-74,-83,-18,-13,7,-51,-3,10,2.209766466
11.642055,-18,-37,2,-29,-34,52,-3,-29,2.209766466
11.654486,109,59,-45,-9,-37,-66,-6,-54,2.209766466
11.654519,-60,30,21,23,67,11,-53,30,2.209766466
11.657595,9,-60,-6,-34,-52,-69,25,31,2.209766466
11.657610,54,58,-6,28,66,14,-13,-42,2.209766466
11.677857,-55,-63,9,8,78,39,-8,12,2.209766466
11.677867,27,7,-17,-15,-77,-15,13,2,2.209766466
11.677870,5,-14,-13,-5,20,-24,-17,-4,2.209766466
11.677872,-16,43,3,-25,-55,-40,0,-38,2.209766466
11.699462,-66,-28,11,6,-7,-13,-3,82,2.209766466
11.699483,34,27,18,19,-8,13,-8,-56,2.209766466
11.702109,-60,-27,6,-4,-13,-13,-27,75,2.209766466
11.702117,17,-54,-11,20,28,-1,34,9,2.209766466
11.714068,55,70,15,17,47,7,9,-22,2.209766466
11.714089,-29,-19,-12,-46,-55,-3,-12,15,2.209766466
11.714455,-4,121,2,11,-124,29,17,-53,2.209766466
11.714476,-9,-109,-5,8,97,57,-10,30,2.209766466
11.736305,25,56,5,-4,-3,36,25,7,2.209766466
11.736331,9,-38,0,-31,24,-28,-5,29,2.209766466
11.739076,22,78,3,17,27,-1,39,-63,2.209766466
11.739096,-13,-49,-23,-23,21,55,-10,29,2.209766466
11.759480,36,95,28,34,10,-9,1,68,2.209766466
11.759496,-10,-65,-9,-32,-49,-26,-11,30,2.209766466
11.760226,-50,-103,-12,4,55,-7,1,-29,2.209766466
11.760260,-15,71,19,33,-8,13,25,15,2.209766466
11.773912,45,-35,-9,-21,-1,1,-39,-18,2.239032923
11.773926,-24,74,8,8,-37,-8,1,21,2.239032923
11.774614,-41,-79,-7,25,25,19,-16,12,2.239032923
11.774622,6,-22,-3,-22,-41,-28,21,11,2.239032923
11.796332,-8,-17,2,-29,-3,-21,-2,-26,2.239032923
11.796350,13,-55,-3,68,93,23,33,0,2.239032923
11.797992,14,-70,-19,-49,41,53,-63,-1,2.239032923
11.797998,-12,113,10,14,41,-124,-18,11,2.239032923
11.819403,-39,-124,-16,-16,-6,82,-17,45,2.239032923
11.819412,-53,127,15,33,-1,7,-9,32,2.239032923
11.820040,35,-63,-36,-41,-51,-6,25,6,2.239032923
11.820046,2,46,6,11,-2,-27,1,-47,2.239032923
11.834383,15,73,6,-8,11,14,-29,17,2.239032923
11.834390,67,82,15,-28,-23,-1,39,30,2.239032923
11.834463,-71,-34,-35,5,26,-14,-14,-76,2.239032923
11.834496,49,-22,-1,-16,-128,-2,3,4,2.239032923
11.856437,54,59,-9,-57,41,-55,2,-35,2.239032923
11.856462,-17,45,13,69,97,101,33,-12,2.239032923
11.858575,24,81,32,48,39,-92,-38,-21,2.239032923
11.858587,50,8,-9,-14,-53,90,11,-41,2.239032923
11.880623,-116,-73,-9,23,-32,-72,-41,5,2.239032923
11.880631,62,-61,9,-52,-86,-16,22,-9,2.239032923
11.880634,56,101,5,-12,-32,2,-4,20,2.239032923
11.880636,-44,61,-3,-16,-31,41,2,-53,2.239032923
11.893759,36,-118,-10,19,-11,-23,9,-27,2.239032923
11.893782,-63,50,4,-25,38,5,-27,-28,2.239032923
11.896334,110,28,6,-1,13,12,26,7,2.239032923
11.896342,-42,-11,-5,-26,-67,-59,-37,2,2.239032923
11.916687,56,47,11,5,59,0,38,2,2.239032923
11.916708,54,-50,-4,-9,71,14,30,62,2.239032923
11.917217,42,73,14,50,61,84,-21,-34,2.239032923
11.917237,6,41,1,9,-13,-85,30,104,2.239032923
11.939452,-12,-75,-7,25,-64,93,-16,-82,2.239032923
11.939473,10,-113,-21,-16,16,-56,-35,-6,2.239032923
11.941810,-34,-61,-8,-27,-6,25,7,8,2.239032923
11.941823,16,34,14,3,-2,25,-28,-27,2.239032923
11.954327,-65,102,-3,15,-51,-33,15,-20,2.239032923
11.954348,-5,12,-9,-8,-17,10,-13,-17,2.239032923
11.956934,22,-27,-2,9,24,-2,-12,-16,2.239032923
11.956951,-71,34,-3,-6,-12,-47,-6,-10,2.239032923
11.976388,26,-11,-4,-19,-61,-6,44,-27,2.239032923
11.976413,-56,28,4,8,31,24,-28,-25,2.239032923
11.977262,-15,70,16,-17,-43,41,30,27,2.239032923
11.977286,-37,-118,-12,40,127,31,-11,-20,2.239032923
11.999766,74,98,23,46,99,42,-16,103,2.239032923
11.999789,-30,-54,-15,-53,-73,34,24,-42,2.239032923
12.001663,38,73,14,9,15,15,22,-5,2.239032923
12.001670,-26,-57,11,-7,-71,1,15,21,2.239032923
12.013535,-6,54,-6,-12,28,-18,-7,-49,2.239032923
12.013566,127,-2,-13,14,53,2,-11,-14,2.239032923
12.021669,-9,-35,-2,-18,-74,-27,-5,8,2.251872487
12.021740,54,-3,4,-15,22,-7,-25,80,2.251872487
12.037193,45,70,6,-20,7,-21,12,2,2.251872487
12.037207,-90,-54,-13,9,-38,-14,-2,20,2.251872487
12.037213,-25,13,-10,-4,-54,-11,-5,-14,2.251872487
12.037218,31,106,-5,-26,-26,-70,23,-62,2.251872487
12.059535,8,-61,13,82,96,49,14,46,2.251872487
12.059558,40,40,7,-41,-50,89,23,26,2.251872487
12.062148,-42,0,7,27,-10,-89,1,9,2.251872487
12.062157,-49,2,-12,8,56,44,46,-39,2.251872487
12.073600,-18,-55,-6,-40,-77,9,-18,-38,2.251872487
12.073627,78,62,3,-4,-20,-1,-60,-17,2.251872487
12.081635,9,96,4,-3,25,-33,30,98,2.251872487
12.081664,93,51,-2,-3,-33,6,-12,-33,2.251872487
12.097048,-101,-26,-8,-42,19,-22,-11,21,2.251872487
12.097079,4,-41,8,66,101,-52,31,17,2.251872487
12.099629,11,-16,4,-1,28,2,-25,-16,2.251872487
12.099636,36,53,4,2,28,39,-6,-1,2.251872487
12.119851,-1,-46,-23,-46,-112,45,14,-4,2.251872487
12.119875,-30,103,11,24,6,-52,15,56,2.251872487
12.120463,-51,-40,-10,40,82,29,-14,5,2.251872487
12.120484,-1,-13,20,13,37,-1,28,5,2.251872487
12.133490,-4,47,8,18,3,95,12,-3,2.251872487
12.133498,-17,-21,-11,-38,-101,64,-12,-29,2.251872487
12.141333,-11,98,9,18,24,-4,24,-17,2.251872487
12.141351,-16,-128,-12,-9,-31,-9,-1,78,2.251872487
12.156446,-15,27,-16,-35,-79,-74,1,-22,2.251872487
12.156479,-1,-23,-5,4,22,-11,-6,-18,2.251872487
12.158560,4,10,5,-26,-27,13,-10,-19,2.251872487
12.158588,24,36,4,19,-5,10,-51,69,2.251872487
12.179145,-23,11,7,7,16,-40,6,-54,2.251872487
12.179153,15,91,6,18,1,-23,2,-6,2.251872487
12.179862,-16,-128,-35,-52,-94,-49,-20,-5,2.251872487
12.179896,18,76,-5,11,94,31,26,-10,2.251872487
12.193275,15,42,10,16,-87,26,-2,-40,2.251872487
12.193305,23,127,8,52,124,27,-89,62,2.251872487
12.201315,-9,10,-7,-16,-95,-14,33,-7,2.251872487
12.201336,7,-22,-6,8,25,63,-19,-18,2.251872487
12.216366,-81,-82,-15,-5,5,-27,7,-15,2.251872487
12.216397,45,28,1,-6,-53,-12,27,-15,2.251872487
12.218951,-46,-68,-6,-22,-15,-45,-5,2,2.251872487
12.218959,-11,29,-11,-21,-67,-12,-22,-34,2.251872487
12.241334,-8,24,7,24,45,-19,3,-55,2.251872487
12.241346,32,-17,-4,-30,-79,-4,16,-6,2.251872487
12.241349,11,59,4,3,-71,14,-33,57,2.251872487
12.241351,1,-81,6,16,34,-24,4,-10,2.251872487
12.253556,-67,-45,-15,-1,21,-16,-13,-24,2.251872487
12.253577,-47,-14,0,-28,-66,-39,-1,-38,2.251872487
12.269269,26,50,11,18,59,127,20,-43,2.251872487
12.269300,-95,22,13,62,83,-116,-2,4,2.251872487
12.276362,67,-71,-22,-42,-76,-31,-8,14,2.258736178
12.276391,-33,-46,-5,-11,56,53,-50,-19,2.258736178
12.277202,67,0,6,16,100,-22,66,59,2.258736178
12.277221,45,118,13,0,-72,14,-27,-36,2.258736178
12.299922,0,-104,-14,-4,33,79,15,13,2.258736178
12.299952,5,-25,0,20,-20,-54,21,-66,2.258736178
12.302776,41,29,5,-7,48,19,5,23,2.258736178
12.302787,0,24,6,-7,7,-13,-32,9,2.258736178
12.322174,-3,122,10,14,3,-15,3,-22,2.258736178
12.322191,-13,-41,-8,-36,-79,-10,53,-15,2.258736178
12.322822,57,22,-9,22,106,2,-94,-12,2.258736178
12.322836,-32,-68,-13,-25,-73,-14,31,-44,2.258736178
12.336625,54,77,13,12,-4,-22,1,54,2.258736178
12.336647,-20,-31,-11,-10,19,-4,10,9,2.258736178
12.337400,-11,-11,8,-40,-119,-9,6,-21,2.258736178
12.337407,-32,-2,-13,18,56,25,-18,-11,2.258736178
12.359476,34,79,13,21,-43,-60,-23,11,2.258736178
12.359493,-80,-72,-15,33,109,-43,-52,-7,2.258736178
12.361627,-4,-1,-4,18,68,44,33,60,2.258736178
12.361644,72,89,-5,-35,-40,6,-4,1,2.258736178
12.382205,-6,19,7,-5,15,-21,16,44,2.258736178
12.382228,-33,-51,-6,16,-42,25,18,40,2.258736178
12.383018,-12,-30,0,5,-25,-29,-28,-63,2.258736178
12.383039,-63,-128,-19,-30,-24,3,4,56,2.258736178
12.396256,60,34,5,5,39,-6,-5,5,2.258736178
12.396286,61,43,7,-12,-79,-20,4,5,2.258736178
12.397003,68,52,7,-6,32,2,2,-30,2.258736178
12.397011,-78,-92,2,1,1,23,-2,-4,2.258736178
12.419610,89,-23,-1,-31,-101,-45,1,81,2.258736178
12.419641,-21,-75,-21,20,114,106,-42,-45,2.258736178
12.422516,-23,68,6,11,-101,-9,58,2,2.258736178
12.422532,30,57,5,22,34,-47,-50,16,2.258736178
12.442001,-32,79,4,24,29,4,-55,-24,2.258736178
12.442019,25,-7,-2,25,48,-12,22,-25,2.258736178
12.442680,-83,-27,-2,-26,-65,-33,0,-7,2.258736178
12.442695,8,-9,-23,-37,40,3,-19,-35,2.258736178
12.457024,-34,-69,-6,-23,-66,102,33,7,2.258736178
12.457037,-28,101,14,-12,-70,5,51,59,2.258736178
12.463844,44,56,24,13,26,20,-41,6,2.258736178
12.463862,72,9,-10,-23,-70,-6,50,-39,2.258736178
12.479519,-82,-52,-22,-10,53,3,2,6,2.258736178
12.479547,19,-47,-2,-12,-29,-45,-17,-40,2.258736178
12.481196,-34,42,8,2,-15,-16,3,11,2.258736178
12.481215,30,-21,18,7,-10,13,18,-14,2.258736178
12.504701,-45,-33,-6,10,23,-22,11,40,2.258736178
12.504719,-15,125,18,-53,-73,10,-5,-34,2.258736178
12.504725,-22,-85,-29,23,40,-26,11,-22,2.258736178
12.504731,17,-63,-7,-1,36,-54,-62,-17,2.258736178
12.516667,8,56,9,39,105,15,70,-12,2.258736178
12.516698,3,-16,6,41,41,10,-36,45,2.258736178
12.518822,-30,47,-3,5,91,30,-9,4,2.258736178
12.518868,-98,-94,-24,-51,-26,-84,-6,47,2.258736178
12.539345,-5,70,13,3,-11,7,12,-79,2.271688409
12.539374,39,-42,-3,-23,-24,-16,-2,70,2.271688409
12.540820,-45,36,3,-10,-24,-23,-6,-38,2.271688409
12.540833,-50,-42,-15,8,18,123,42,-54,2.271688409
12.562501,16,-75,5,-9,-1,-29,-50,0,2.271688409
12.562533,-25,77,2,0,-2,-6,17,2,2.271688409
12.564741,82,2,-3,-4,5,-6,-29,-27,2.271688409
12.564750,-5,90,17,21,-57,5,18,20,2.271688409
12.576389,-8,-84,-10,-26,-2,-23,-20,-12,2.271688409
12.576406,20,76,2,-4,-25,20,0,-17,2.271688409
12.579550,-48,-28,-38,-2,-7,16,-11,-3,2.271688409
12.579564,-53,44,21,34,100,-2,29,-7,2.271688409
12.600083,-16,-83,-17,48,36,35,3,-27,2.271688409
12.600105,32,27,1,35,40,-46,-4,20,2.271688409
12.602131,49,48,5,-31,-84,9,-17,30,2.271688409
12.602137,4,25,11,5,-61,-71,1,-36,2.271688409
12.622254,49,117,-13,-53,-13,19,-22,39,2.271688409
12.622273,-29,-123,-7,-13,14,-9,26,-58,2.271688409
12.624379,12,-59,7,22,-8,13,1,15,2.271688409
12.624391,32,83,0,-9,-33,-9,0,26,2.271688409
12.636677,74,89,11,11,-37,-10,-21,-1,2.271688409
12.636703,-50,-17,-10,-12,-12,-16,-4,-60,2.271688409
12.639748,11,16,6,-38,-26,-29,6,4,2.271688409
12.639761,24,28,2,14,-69,54,-2,20,2.271688409
12.659440,-17,-1,-13,37,73,-10,12,-13,2.271688409
12.659453,46,121,22,13,39,37,-33,35,2.271688409
12.660101,-77,-51,-6,16,-46,61,35,-14,2.271688409
12.660108,-9,24,-2,-11,33,-41,-29,3,2.271688409
12.682038,6,-36,-5,-1,20,-9,59,-22,2.271688409
12.682069,33,106,30,7,-69,-19,22,-14,2.271688409
12.684171,16,-82,-15,-13,-15,27,-12,36,2.271688409
12.684182,-46,-13,-5,-7,0,-16,-17,-6,2.271688409
12.696352,-38,26,1,-12,-9,21,0,-6,2.271688409
12.696374,10,6,-2,-8,5,-16,-6,-45,2.271688409
12.697389,57,82,8,-7,-19,-42,2,-10,2.271688409
12.697398,43,2,-2,6,-6,44,-20,20,2.271688409
12.719870,-21,-89,-8,-22,-11,-54,3,-2,2.271688409
12.719901,59,94,-1,-28,-102,-17,5,-3,2.271688409
12.722344,-111,-128,-36,-15,17,-11,-50,-44,2.271688409
12.722359,53,26,7,22,95,49,37,-8,2.271688409
12.741943,18,87,28,10,16,-52,-13,64,2.271688409
12.741961,18,-117,-39,11,51,-9,-67,-16,2.271688409
12.742709,41,-25,5,-29,-62,-29,-4,-3,2.271688409
12.742747,-18,3,1,13,65,63,30,74,2.271688409
12.756539,-5,17,5,-15,-96,20,-9,-59,2.271688409
12.756558,-115,-2,1,-8,-13,22,21,-7,2.271688409
12.757021,25,-36,5,3,-33,-15,8,-6,2.271688409
12.757034,39,103,6,-37,15,-22,-32,45,2.271688409
12.780017,-106,-91,-25,-3,27,-14,9,-43,2.271688409
12.780047,-44,-95,-25,-6,37,-3,-7,87,2.271688409
12.782599,24,124,11,20,-40,-1,18,-6,2.271688409
12.782607,-10,-81,-11,-12,-23,-38,12,-24,2.271688409
12.802540,30,121,16,43,102,51,12,14,2.263184280
12.802550,-12,-118,-19,-17,-2,-11,4,-67,2.263184280
12.803258,35,65,19,-7,-8,-6,-18,54,2.263184280
12.803290,-7,64,-6,7,-6,67,2,-7,2.263184280
12.816254,65,-54,-8,9,-33,3,-42,75,2.263184280
12.816290,-11,85,14,10,116,-36,-14,18,2.263184280
12.817011,9,5,2,-15,-59,17,77,-8,2.263184280
12.817044,36,48,12,24,-33,11,-12,-22,2.263184280
12.839684,-47,82,4,-1,-43,31,16,-24,2.263184280
12.839709,20,-3,17,12,24,-18,26,31,2.263184280
12.841762,-6,20,-4,-17,-28,37,-14,-13,2.263184280
12.841777,19,-66,-10,3,55,2,-27,8,2.263184280
12.862742,20,94,10,23,59,-39,9,-28,2.263184280
12.862750,-11,-53,-19,-40,-31,36,3,1,2.263184280
12.862883,-43,95,19,50,127,41,-5,-11,2.263184280
12.862916,42,-64,-15,-42,-105,39,13,50,2.263184280
12.875763,65,14,-8,-46,-87,5,-20,10,2.263184280
12.875787,43,59,6,36,35,70,35,3,2.263184280
12.884184,14,-128,-14,8,19,-75,-38,70,2.263184280
12.884213,-80,75,1,-21,42,46,3,-42,2.263184280
12.899776,-15,-73,5,20,-78,-76,-38,4,2.263184280
12.899808,67,59,11,11,-15,-64,-18,16,2.263184280
12.902254,-43,5,-16,-19,29,41,-9,43,2.263184280
12.902261,82,28,-5,-13,-13,-6,20,18,2.263184280
12.922443,13,54,8,39,53,-19,-16,-7,2.263184280
12.922475,-80,-99,-1,19,94,41,-3,-24,2.263184280
12.925230,-12,-66,3,13,-32,-3,0,49,2.263184280
12.925242,24,59,11,10,43,-55,13,-22,2.263184280
12.936044,-49,-97,-19,-63,-93,90,37,-29,2.263184280
12.936071,35,-43,2,39,35,-61,-22,20,2.263184280
12.944247,-13,6,-6,-5,-13,0,9,2,2.263184280
12.944279,-8,-35,0,21,-68,-16,9,-57,2.263184280
12.959747,51,31,1,2,-31,-22,-28,-5,2.263184280
12.959765,-25,89,5,-27,-67,3,-7,-9,2.263184280
12.960439,36,-53,-7,-20,-27,-40,-4,-19,2.263184280
12.960459,-18,-40,-3,9,-17,-4,-21,-25,2.263184280
12.982579,36,18,13,10,32,9,8,78,2.263184280
12.982606,-2,52,-11,-17,-93,72,42,-7,2.263184280
12.985091,-14,27,11,40,111,70,-52,-33,2.263184280
12.985100,-8,-109,-18,-26,-128,-44,-39,8,2.263184280
12.995896,19,54,4,18,48,25,49,2,2.263184280
12.995926,-22,-65,-20,-17,38,69,16,12,2.263184280
13.004182,6,81,23,7,-74,-51,-26,-94,2.263184280
13.004194,-11,-112,2,-5,15,-92,46,-28,2.263184280
13.019387,-66,8,-11,-30,-31,-26,-11,-52,2.263184280
13.019401,30,-40,-15,-19,-47,-20,-34,0,2.263184280
13.021767,-45,-13,-12,3,82,-4,32,-50,2.263184280
13.021816,-15,39,9,22,13,32,-8,25,2.263184280
13.042000,44,14,13,-18,-9,-6,-2,-10,2.259461755
13.042018,-42,127,18,-11,-82,-27,24,-37,2.259461755
13.043697,-37,-128,-17,0,53,3,-14,-12,2.259461755
13.043706,30,127,7,-17,-105,-17,-7,27,2.259461755
13.056025,62,21,-4,17,127,70,-1,-2,2.259461755
13.056064,-57,13,11,46,1,-74,-60,13,2.259461755
13.064053,66,18,11,55,81,53,54,18,2.259461755
13.064083,-103,-33,-7,-23,-51,-48,-82,-28,2.259461755
13.079676,-7,-61,1,-4,94,35,-3,60,2.259461755
13.079707,-4,-83,-13,3,-63,-15,21,-54,2.259461755
13.082230,18,127,1,-28,-82,-29,-3,-69,2.259461755
13.082240,22,-67,1,24,49,23,0,-22,2.259461755
13.102637,29,28,1,-16,-16,-29,2,-1,2.259461755
13.102660,-22,-85,-5,-3,-17,-5,1,-47,2.259461755
13.102978,-19,-42,-5,-6,6,-1,6,-26,2.259461755
13.103000,17,3,-4,-15,15,57,38,-9,2.259461755
13.115642,-40,7,-1,-24,-107,-77,-63,-16,2.259461755
13.115650,127,93,-6,-40,-36,3,12,21,2.259461755
13.124028,-50,-90,5,47,-25,6,40,-19,2.259461755
13.124047,-8,45,2,4,20,-58,5,23,2.259461755
13.139902,-4,-36,-4,29,-8,24,15,-26,2.259461755
13.139923,23,-35,-3,-4,-18,-29,0,30,2.259461755
13.141789,-20,55,-2,-29,-34,-35,-12,18,2.259461755
13.141803,-15,34,10,28,22,9,-15,20,2.259461755
13.161936,19,87,15,-18,-77,35,43,11,2.259461755
13.161947,-32,0,-25,-12,30,-21,-12,-12,2.259461755
13.162553,38,-28,-4,-6,6,-17,-55,81,2.259461755
13.162560,43,0,-1,2,41,6,4,-19,2.259461755
13.175855,-25,43,7,3,21,-2,-9,2,2.259461755
13.175864,4,-84,9,10,-4,35,16,1,2.259461755
13.184097,10,87,0,-23,68,12,9,-1,2.259461755
13.184128,-23,-28,-15,-56,58,23,-2,21,2.259461755
13.200158,-33,9,-5,100,107,74,26,55,2.259461755
13.200193,-3,45,22,4,-43,-33,14,40,2.259461755
13.202834,-7,-7,-7,-22,-45,11,-7,0,2.259461755
13.202841,33,108,8,10,-2,88,84,13,2.259461755
13.224247,-39,-128,-16,6,63,7,10,-19,2.259461755
13.224262,-4,112,7,18,-11,2,-7,-10,2.259461755
13.224264,74,23,-6,-21,-26,8,-18,22,2.259461755
13.224267,-87,-93,-22,-8,-115,-17,22,-79,2.259461755
13.236071,59,-21,9,-28,-53,-41,-67,-57,2.259461755
13.236103,-30,52,-9,-3,48,32,26,-28,2.259461755
13.244201,41,63,14,-18,-90,-73,-9,5,2.259461755
13.244233,-36,71,-2,11,49,37,-2,-9,2.259461755
13.258987,-83,-43,-20,-35,5,-22,7,-31,2.259461755
13.259010,70,-33,17,-5,2,4,-5,106,2.259461755
13.266046,-30,-51,-13,-7,-41,21,-21,-16,2.259461755
13.266067,46,7,6,22,18,-26,11,2,2.259461755
13.282428,12,21,13,18,15,20,-6,0,2.259461755
13.282459,-31,-75,-23,-76,-39,3,13,-47,2.259461755
13.284933,-34,-115,8,98,122,61,15,44,2.259461755
13.284944,25,31,10,4,-51,53,-30,48,2.259461755
13.304844,3,-28,-1,-28,-92,-56,-7,-2,2.249569567
13.304874,21,-80,-32,-28,-37,21,32,-31,2.249569567
13.306176,-16,52,-14,-14,12,-26,-53,-29,2.249569567
13.306194,-67,5,16,17,50,-4,44,38,2.249569567
13.318086,93,89,-6,-27,-35,23,-41,5,2.249569567
13.318122,-81,-25,12,31,23,-31,-17,49,2.249569567
13.329089,15,-38,-14,-32,-40,-24,3,-29,2.249569567
13.329097,-20,-62,-1,32,18,-25,-37,-1,2.249569567
13.342152,22,27,-11,-32,-1,-8,30,14,2.249569567
13.342172,-2,48,13,11,81,-18,-21,66,2.249569567
13.343976,-38,-32,-4,26,25,103,38,27,2.249569567
13.343986,30,-35,7,-38,-69,32,12,-17,2.249569567
13.363511,-26,40,3,31,52,-22,47,-13,2.249569567
13.363521,-54,10,2,5,-62,-30,-37,-31,2.249569567
13.380130,-1,-9,-11,-41,-57,80,55,-11,2.249569567
13.380142,92,38,2,-11,30,-47,-26,0,2.249569567
13.380816,-48,-98,-26,-15,-15,-3,3,-42,2.249569567
13.380848,70,116,9,17,16,8,2,51,2.249569567
13.389571,-3,60,12,-19,-12,-47,11,1,2.249569567
13.389585,58,-36,-8,1,-12,15,-30,-42,2.249569567
13.401903,-102,-107,-24,-40,-33,-50,-12,-28,2.249569567
13.401921,7,-84,-10,6,66,16,-6,7,2.249569567
13.404693,19,4,-6,-23,-30,-21,27,-21,2.249569567
13.404704,16,13,15,78,55,81,7,-40,2.249569567
13.424504,4,51,4,-14,-52,-47,34,21,2.249569567
13.424519,-5,89,8,2,25,64,24,-49,2.249569567
13.426002,-89,-68,-18,-39,-105,-81,-44,12,2.249569567
13.426018,41,-63,-6,16,99,40,-34,15,2.249569567
13.440981,-21,9,1,-4,23,11,-4,10,2.249569567
13.440997,5,62,1,-2,-43,11,27,-31,2.249569567
13.445725,-37,90,7,11,31,-26,-29,9,2.249569567
13.445742,-12,123,-3,-28,-78,-55,-14,-5,2.249569567
13.461973,16,-98,-12,7,-11,23,-22,-62,2.249569567
13.461990,-6,-92,6,8,0,-16,-25,59,2.249569567
13.463504,-70,-9,-5,-36,-45,2,0,-38,2.249569567
13.463533,3,16,-21,4,22,-93,-40,-35,2.249569567
13.485047,45,-33,8,-31,-36,106,26,75,2.249569567
13.485079,79,121,39,82,59,-13,-70,-3,2.249569567
13.487684,7,-128,-10,0,-13,-79,31,-6,2.249569567
13.487694,-36,-21,12,14,79,5,41,25,2.249569567
13.499071,51,52,9,-27,-83,10,22,18,2.249569567
13.499087,-30,-17,-30,-27,-16,43,56,-34,2.249569567
13.505725,85,110,17,10,57,47,-59,26,2.249569567
13.505744,28,8,-11,-16,-12,-30,15,-70,2.249569567
13.522559,-43,125,29,17,8,-40,-20,73,2.249569567
13.522601,-60,-126,-31,-20,-22,8,-1,-33,2.249569567
13.525577,48,120,-9,16,30,-7,7,-22,2.249569567
13.525622,-13,36,1,-21,-63,1,29,45,2.249569567
13.544618,65,95,11,18,8,-2,-6,-3,2.249569567
13.544649,-60,32,13,-46,-97,6,-13,14,2.249569567
13.547248,28,-101,-6,52,16,-3,70,-25,2.249569567
13.547259,-5,2,0,47,57,36,-95,9,2.249569567
13.558827,-24,19,0,2,-15,50,9,-2,2.232687502
13.558844,63,119,13,-7,32,-82,16,15,2.232687502
13.566006,-78,-82,-18,-24,37,-24,1,-53,2.232687502
13.566031,5,23,4,-30,-80,5,61,90,2.232687502
13.582026,-22,-5,-2,31,34,-32,-31,-17,2.232687502
13.582034,31,11,-5,-9,34,102,-5,-25,2.232687502
13.583524,76,100,11,15,93,22,-2,16,2.232687502
13.583545,-53,-91,-19,-26,-35,3,-7,92,2.232687502
13.604950,-35,-40,-11,-23,-25,-43,28,-10,2.232687502
13.604980,19,-13,7,-5,-70,-37,-3,17,2.232687502
13.607325,-35,-48,-1,4,-50,36,4,-23,2.232687502
13.607339,-10,-43,-13,-10,42,-17,-8,-42,2.232687502
13.619011,-4,86,0,-4,1,32,-9,-4,2.232687502
13.619042,-18,-68,-12,1,-43,-10,-9,-20,2.232687502
13.625510,-17,-6,11,67,93,31,-24,6,2.232687502
13.625526,13,84,6,-25,-97,-80,4,-31,2.232687502
13.641963,37,-15,-1,-9,-68,-39,2,-3,2.232687502
13.641982,-41,92,-3,-25,51,63,32,-1,2.232687502
13.643517,-65,-19,8,35,86,29,-67,-41,2.232687502
13.643531,-25,-68,-8,-26,-5,-1,-29,19,2.232687502
13.664579,56,51,2,10,-27,10,24,53,2.232687502
13.664612,-33,-89,2,37,23,-22,-21,-63,2.232687502
13.666625,71,71,6,-34,-63,-10,20,33,2.232687502
13.666633,-94,-33,-3,24,77,9,12,-44,2.232687502
13.678790,-6,-12,-22,-23,1,-43,-42,-48,2.232687502
13.678811,54,75,2,-12,8,17,-12,-5,2.232687502
13.686061,8,34,-2,-16,5,-4,8,22,2.232687502
13.686084,30,-25,3,-12,-118,-22,25,-23,2.232687502
13.702558,-2,-128,-2,-15,100,38,-32,-18,2.232687502
13.702589,-63,12,-12,61,111,29,3,2,2.232687502
13.705249,36,73,20,13,-84,-3,10,28,2.232687502
13.705262,33,121,9,-31,-27,75,25,57,2.232687502
13.724997,-35,-120,-24,-16,79,-43,-12,-29,2.232687502
13.725015,-25,16,14,-9,-94,-2,-30,-26,2.232687502
13.730626,-27,-113,-19,38,101,-30,-20,-63,2.232687502
13.730648,38,-1,-7,-4,-2,35,26,-6,2.232687502
13.738969,8,89,11,20,-12,30,23,-8,2.232687502
13.738988,-2,-37,-10,-29,-40,-69,-10,29,2.232687502
13.746215,69,32,-1,-37,-82,-10,21,-36,2.232687502
13.746247,-64,67,18,22,0,-9,-21,-2,2.232687502
13.762171,54,-60,7,22,5,-2,-18,5,2.232687502
13.762202,5,-39,-2,-27,-51,6,23,-37,2.232687502
13.764861,48,106,11,-26,-14,1,-6,70,2.232687502
13.764868,43,-34,-11,51,121,30,22,-22,2.232687502
13.784602,-38,-3,-9,7,-44,74,2,-4,2.232687502
13.784617,29,-23,8,41,-25,-54,14,62,2.232687502
13.785933,17,33,-5,-42,-24,64,-3,10,2.232687502
13.785966,40,78,9,36,-71,-4,20,-12,2.232687502
13.798381,-100,67,-4,-2,99,71,-9,-18,2.232687502
13.798405,75,74,14,4,-49,-32,-3,86,2.232687502
13.808604,-67,-68,-5,15,55,-35,13,-17,2.232687502
13.808615,22,109,15,-26,-38,-19,-58,-26,2.232687502
13.822188,32,-21,-3,12,-64,-30,8,-33,2.252422302
13.822206,-1,13,-18,-5,97,13,-11,-47,2.252422302
13.824203,2,46,10,-28,-60,-12,3,17,2.252422302
13.824216,-32,42,1,-31,-55,-8,18,-47,2.252422302
13.844452,-38,-39,-2,-12,-69,-43,-6,-44,2.252422302
13.844470,23,-49,-11,33,26,-2,5,-21,2.252422302
13.847642,20,55,6,-7,-11,3,12,19,2.252422302
13.847651,-44,-100,-17,4,48,77,-1,-26,2.252422302
13.858190,20,35,8,-33,-56,-77,10,14,2.252422302
13.858208,3,62,7,14,-5,66,-43,-62,2.252422302
13.868872,-33,-109,-14,-3,-11,2,26,47,2.252422302
13.868889,1,56,-6,-42,13,-8,-12,-5,2.252422302
13.881922,21,44,6,41,103,20,50,32,2.252422302
13.881943,-41,-17,-7,-11,6,3,-31,17,2.252422302
13.884126,79,68,19,21,-7,-22,8,-1,2.252422302
13.884133,-74,-10,-8,-24,-48,-38,-21,-45,2.252422302
13.904951,38,-73,-20,-8,15,7,-5,-2,2.252422302
13.904991,-104,9,-13,-5,-18,-35,37,-3,2.252422302
13.907729,41,26,-1,-25,-71,22,-40,-6,2.252422302
13.907748,16,-49,-4,3,26,-38,7,82,2.252422302
13.918808,4,72,2,2,-69,9,-25,15,2.252422302
13.918830,-37,-76,1,9,-9,17,97,-16,2.252422302
13.927120,-20,-9,0,5,18,0,-32,-60,2.252422302
13.927138,38,65,5,-16,-10,83,41,28,2.252422302
13.941918,-5,71,10,87,127,-6,-11,-24,2.252422302
13.941931,-16,-28,-1,-40,-52,-23,-9,19,2.252422302
13.943553,-21,93,-5,-3,50,67,40,-33,2.252422302
13.943573,-21,-128,0,8,27,-19,-22,-47,2.252422302
13.964574,-21,68,3,-39,-88,24,3,-11,2.252422302
13.964601,50,39,-19,-17,20,33,2,8,2.252422302
13.967888,-34,35,5,21,22,-38,-11,7,2.252422302
13.967896,81,89,11,-14,-69,-34,-13,41,2.252422302
13.978701,-61,-25,-2,18,57,20,-10,3,2.252422302
13.978732,-40,-107,-9,-16,-9,-19,-12,3,2.252422302
13.988852,-35,1,5,9,-41,12,38,30,2.252422302
13.988869,46,-13,-20,-40,-9,-36,-47,-37,2.252422302
14.003716,39,39,11,10,-79,-15,-27,35,2.252422302
14.003726,26,2,0,13,110,-43,9,21,2.252422302
14.003729,-30,20,-9,-47,-112,-32,3,-33,2.252422302
14.003731,-19,23,12,55,58,19,27,13,2.252422302
14.024543,1,-10,-10,-24,-19,-22,6,-3,2.252422302
14.024562,80,118,30,16,52,-5,-17,32,2.252422302
14.027221,16,-50,-29,-31,-71,72,15,-46,2.252422302
14.027260,-66,-8,-10,0,34,-5,0,-14,2.252422302
14.038633,-59,-128,-10,-17,-15,-24,-22,33,2.252422302
14.038661,105,118,10,-6,-56,9,-18,48,2.252422302
14.049318,-13,-68,-1,18,111,-8,-3,53,2.252422302
14.049327,76,65,21,4,-77,23,9,-55,2.252422302
14.062648,-88,-88,-31,-28,26,29,-7,-66,2.252422302
14.062679,-24,-75,-10,-43,8,15,0,-56,2.252422302
14.065538,12,33,14,49,82,34,1,12,2.200595350
14.065547,17,-5,-11,64,20,40,15,15,2.200595350
14.084884,63,7,35,18,16,38,-58,-1,2.200595350
14.084907,-32,-104,-15,-11,-61,-26,-6,19,2.200595350
14.085939,-5,50,-13,-42,-42,-3,-18,-10,2.200595350
14.085946,-21,-103,-6,2,17,-74,-12,-12,2.200595350
14.098072,112,6,4,-7,-25,62,90,5,2.200595350
14.098084,-26,-84,-19,-5,14,47,-41,-56,2.200595350
14.108320,-90,46,16,39,30,1,-8,13,2.200595350
14.108335,-20,-26,-6,-56,14,-35,-6,-48,2.200595350
14.122298,25,16,10,-25,-58,-51,-15,24,2.200595350
14.122323,17,-68,-1,-5,-75,-3,21,-6,2.200595350
14.124732,53,-3,-14,75,55,3,-6,-66,2.200595350
14.124745,-41,53,3,19,-73,-42,-26,-5,2.200595350
14.144458,13,104,5,-37,-4,42,82,-18,2.200595350
14.144472,17,-35,14,94,58,17,-48,26,2.200595350
14.146543,-25,11,3,-45,25,-26,-25,10,2.200595350
14.146564,-35,68,-8,-14,-4,0,2,15,2.200595350
14.158569,25,-20,-2,3,-16,-21,-9,64,2.200595350
14.158580,-63,127,7,-11,22,-28,-11,-46,2.200595350
14.167550,9,-92,-7,-13,2,-13,-5,-3,2.200595350
14.167569,-29,-19,6,23,17,41,29,-35,2.200595350
14.182010,-66,-3,-15,-30,-16,-70,-17,-18,2.200595350
14.182031,-3,-82,-22,-29,-95,-1,16,-46,2.200595350
14.183714,86,81,8,-21,-128,-37,-22,-8,2.200595350
14.183735,-13,17,-5,8,10,20,14,-31,2.200595350
14.212081,36,-45,-5,2,-46,57,-27,-18,2.200595350
14.212101,-24,-16,-7,8,-34,-15,-14,30,2.200595350
14.213648,47,-49,-7,-39,36,-78,-49,40,2.200595350
14.213664,-2,-35,6,15,23,-61,-19,13,2.200595350
14.227217,-21,62,-8,1,65,81,10,-26,2.200595350
14.227249,-44,127,20,-8,4,17,47,-54,2.200595350
14.228742,-6,-83,-24,-11,-74,4,-29,-31,2.200595350
14.228770,-19,-45,2,-6,-73,-26,-24,49,2.200595350
14.249371,-33,119,11,17,21,-32,2,48,2.200595350
14.249402,86,57,-11,-28,-6,16,20,-13,2.200595350
14.251618,-108,-58,6,16,16,15,47,7,2.200595350
14.251641,13,-57,-3,-16,13,13,-8,-24,2.200595350
14.264469,1,-73,-9,15,1,-24,4,-29,2.200595350
14.264500,51,91,11,-24,41,24,9,17,2.200595350
14.266925,-7,52,13,50,-6,-39,-32,85,2.200595350
14.266935,60,-32,-21,-81,55,38,50,14,2.200595350
14.287393,-9,-67,-1,48,91,-14,39,-7,2.200595350
14.287415,5,44,16,73,111,35,-98,10,2.200595350
14.290243,-20,-33,-5,11,89,-76,18,-35,2.200595350
14.290256,-10,89,7,12,83,52,24,19,2.200595350
14.302523,60,84,13,5,-94,-13,21,43,2.200595350
14.302545,-52,-26,-8,-13,-36,-4,5,35,2.200595350
14.303423,7,87,2,-7,-44,22,-1,-103,2.200595350
14.303437,40,-67,-6,1,-71,-22,-18,55,2.200595350
14.325045,-1,-10,-2,-5,31,-3,-10,-13,2.245351303
14.325063,28,94,16,16,-15,-12,9,-7,2.245351303
14.327040,-1,-114,-17,-35,-107,26,7,0,2.245351303
14.327052,16,42,-1,1,-48,-24,-9,16,2.245351303
14.347029,-33,73,1,-21,-37,-7,3,-47,2.245351303
14.347054,4,38,5,-68,-122,-24,-17,16,2.245351303
14.349503,-2,-83,5,76,110,53,61,-32,2.245351303
14.349513,5,94,7,25,-65,80,35,2,2.245351303
14.362076,37,65,15,-1,4,-40,-41,3,2.245351303
14.362103,-100,-107,-39,-60,10,-25,-4,-73,2.245351303
14.363561,28,89,18,-22,-9,-6,-15,-24,2.245351303
14.363581,53,-101,-28,-26,-36,38,27,15,2.245351303
14.384466,-86,-109,1,19,46,-8,-18,24,2.245351303
14.384483,25,-52,-12,21,29,5,31,-12,2.245351303
14.387328,11,31,6,-33,-44,-14,-34,44,2.245351303
14.387341,-34,25,-3,13,46,2,-13,-21,2.245351303
14.406970,18,115,-1,-17,-52,-47,-15,72,2.245351303
14.406990,-3,-66,8,15,35,26,5,53,2.245351303
14.408450,-31,-4,-5,11,18,10,46,-45,2.245351303
14.408481,-26,-11,5,14,-65,-32,-28,-58,2.245351303
14.421531,35,-33,0,-17,-2,1,-7,-41,2.245351303
14.421543,18,-34,5,40,-64,54,6,-1,2.245351303
14.428502,6,127,12,-23,-23,12,-19,-33,2.245351303
14.428519,-25,-56,-8,12,82,54,42,28,2.245351303
14.444480,-2,72,12,28,31,60,35,-14,2.245351303
14.444498,55,7,-6,-6,1,-41,-2,-5,2.245351303
14.446193,-31,33,14,-11,-25,11,-19,21,2.245351303
14.446212,-50,-28,-24,-6,11,-43,-41,23,2.245351303
14.468416,51,-104,-19,4,55,-20,-2,9,2.245351303
14.468428,-7,74,18,-8,-35,12,-1,16,2.245351303
14.468431,13,58,-3,7,-2,-10,29,30,2.245351303
14.468433,22,45,15,0,21,-19,15,20,2.245351303
14.489549,-20,-125,-13,-11,26,7,-12,-37,2.245351303
14.489568,57,57,2,-19,-77,-55,7,26,2.245351303
14.491233,104,63,18,68,80,46,9,70,2.245351303
14.491243,-76,-31,-18,-10,-10,-46,-8,-52,2.245351303
14.505005,-39,-22,-14,5,-31,62,-9,-3,2.245351303
14.505034,-3,93,18,58,116,-55,39,38,2.245351303
14.507204,-15,-128,-19,-27,21,-7,-68,3,2.245351303
14.507217,39,109,19,-27,-64,55,21,-15,2.245351303
14.526984,3,62,2,-1,-16,0,-7,-2,2.245351303
14.527001,13,-12,-5,-9,28,-1,7,-17,2.245351303
14.529376,21,-47,-3,0,-52,-5,6,41,2.245351303
14.529413,7,-10,11,16,50,10,33,9,2.245351303
14.541399,67,86,6,-45,-63,-15,-11,50,2.245351303
14.541418,8,-120,-30,-1,63,-9,-16,-85,2.245351303
14.548325,2,-83,-9,24,16,47,35,45,2.245351303
14.548350,49,76,-2,-59,-86,-82,-51,-24,2.245351303
14.572295,-86,-15,-23,11,117,-38,20,-60,2.245351303
14.572328,9,-95,-2,27,7,15,-6,45,2.245351303
14.574251,26,59,4,-32,5,-36,-25,-1,2.245351303
14.574264,-9,-46,6,28,76,-10,-57,-38,2.245351303
14.587392,-7,23,11,-4,-23,-13,-3,-3,2.186381242
14.587419,-7,86,12,-7,-44,45,18,-6,2.186381242
14.590095,-67,-76,-18,-32,-34,15,29,-21,2.186381242
14.590108,-10,-3,8,6,-23,-12,-4,45,2.186381242
14.601624,-30,-16,8,1,31,7,40,6,2.186381242
14.601656,69,76,18,1,-21,-12,-42,-22,2.186381242
14.608175,-64,-48,-44,-25,-27,-2,4,-29,2.186381242
14.608192,13,-31,-19,-14,42,11,-12,-9,2.186381242
14.624638,1,43,-1,27,-12,-25,-14,33,2.186381242
14.624650,6,113,4,-5,2,26,55,-10,2.186381242
14.625928,24,10,10,-37,-64,28,9,-77,2.186381242
14.625935,1,12,11,75,126,-84,-38,-7,2.186381242
14.647036,48,38,-5,-23,-128,-22,17,-13,2.186381242
14.647066,-50,-42,3,-46,-35,-5,6,-5,2.186381242
14.649189,-29,75,-17,24,76,65,16,-9,2.186381242
14.649196,-58,69,8,25,-29,-22,25,-26,2.186381242
14.671694,58,28,5,-5,-32,2,-26,8,2.186381242
14.671708,51,94,14,19,-37,-15,8,-4,2.186381242
14.671711,-69,-72,-4,-37,-47,-38,5,-7,2.186381242
14.671762,32,11,5,-16,-27,4,-46,23,2.186381242
14.687630,-70,-91,5,32,42,19,0,33,2.186381242
14.687638,-80,103,2,-26,-1,-11,-5,73,2.186381242
14.687641,105,-104,-14,-3,-33,-22,-29,65,2.186381242
14.687644,-22,46,-20,-11,-4,32,45,22,2.186381242
14.707054,0,-17,1,24,104,40,-67,-35,2.186381242
14.707071,-68,-76,-4,-48,-62,-12,-23,35,2.186381242
14.708568,54,120,18,41,73,52,13,12,2.186381242
14.708581,-7,76,27,52,-40,-96,-1,-48,2.186381242
14.720779,-8,-100,-28,-23,-63,84,28,7,2.186381242
14.720802,16,32,-2,33,52,62,-2,-20,2.186381242
14.735538,-28,96,22,24,-2,-83,-8,23,2.186381242
14.735549,54,-128,-32,-74,-112,-4,11,12,2.186381242
14.745051,-8,43,-9,-5,19,-25,-61,-45,2.186381242
14.745083,12,-63,-12,-8,-2,6,20,-19,2.186381242
14.752190,-52,73,18,-7,-60,-18,14,35,2.186381242
14.754224,33,-30,0,-6,7,42,0,-16,2.186381242
14.768166,29,105,21,3,5,-40,6,13,2.186381242
14.768189,-20,4,-14,16,20,-4,-7,78,2.186381242
14.768994,44,70,-5,-31,-10,-35,32,-12,2.186381242
14.769027,18,127,12,-58,-64,104,-25,43,2.186381242
14.780784,-58,8,3,83,101,23,-10,-49,2.186381242
14.780824,-3,-109,-10,-22,-100,-126,-43,-43,2.186381242
14.791345,43,38,-4,-28,107,53,35,-27,2.186381242
14.791356,8,-23,5,24,96,90,43,29,2.186381242
14.805203,-9,99,3,-33,-26,-52,-1,-4,2.186381242
14.805245,1,87,-9,-6,-56,57,26,62,2.186381242
14.812086,10,-107,-16,12,74,-42,-87,-26,2.186381242
14.812103,-51,-51,-8,-12,-36,-26,-2,35,2.186381242
14.826961,-4,3,9,-26,-67,-9,20,-32,2.186381242
14.826997,66,0,4,35,86,-11,-4,-3,2.186381242
14.828918,-35,96,12,-7,-65,34,-2,-5,2.186381242
14.828938,34,40,6,2,1,49,9,8,2.186381242
14.841307,35,-19,-15,-9,-6,-67,10,-19,2.207211171
14.841318,-2,-68,-3,-35,-101,3,23,-38,2.207211171
14.850175,-9,-22,7,62,16,43,14,62,2.207211171
14.850189,16,-4,-9,-22,16,-69,-4,-25,2.207211171
14.864510,-56,-86,2,60,-9,5,-18,-5,2.207211171
14.864541,-42,12,5,4,106,94,27,-10,2.207211171
14.867870,53,-128,-12,-40,-110,32,21,-14,2.207211171
14.867880,-114,-57,-8,59,-50,-92,-32,-40,2.207211171
14.889277,67,67,-11,-43,75,33,-23,78,2.207211171
14.889291,10,12,8,-9,-30,-20,-52,17,2.207211171
14.889294,-15,74,2,4,53,7,44,-43,2.207211171
14.889296,19,-15,18,-24,-51,24,-21,99,2.207211171
14.901003,-24,-7,6,-3,-14,-29,31,-31,2.207211171
14.901046,-5,38,-11,24,19,5,-14,21,2.207211171
14.909739,-45,-49,-5,-45,-63,-57,-33,-17,2.207211171
14.911009,46,-40,-12,-15,49,-8,29,-25,2.207211171
14.924535,53,-69,-10,5,10,9,8,16,2.207211171
14.924552,31,106,7,0,25,7,-22,-58,2.207211171
14.926237,41,-92,-17,-9,6,33,-17,15,2.207211171
14.926247,-41,25,-13,4,95,17,4,-9,2.207211171
14.946962,-42,28,7,2,-75,125,10,14,2.207211171
14.946993,22,-28,0,-2,52,-90,-8,5,2.207211171
14.949710,-53,96,2,-13,-41,-18,0,-35,2.207211171
14.949719,-20,7,-3,-27,-107,-11,-19,-72,2.207211171
14.960736,43,44,12,25,94,16,9,29,2.207211171
14.960768,-1,32,8,23,27,14,11,10,2.207211171
14.972568,35,-34,-15,2,-12,-51,6,36,2.207211171
14.972585,-76,-6,3,4,-2,-8,-14,-27,2.207211171
14.984356,4,99,-5,-74,-111,-46,50,-3,2.207211171
14.984364,-64,-126,-8,30,41,-19,18,-44,2.207211171
14.985862,57,111,11,10,44,3,-4,-9,2.207211171
14.985895,12,33,4,79,76,56,-7,-29,2.207211171
15.007015,20,-128,-9,-37,-47,29,36,-22,2.207211171
15.007049,-1,68,9,2,-55,-67,-12,-20,2.207211171
15.008653,-14,-17,3,39,83,54,3,2,2.207211171
15.008665,-9,-36,-1,-14,-93,2,-4,-50,2.207211171
15.020639,-19,92,7,7,24,-4,-24,15,2.207211171
15.020671,-56,-123,-3,-2,2,12,12,26,2.207211171
15.029493,-43,-20,-9,-12,-50,-64,-44,-28,2.207211171
15.029593,-26,115,7,-24,-29,-31,10,87,2.207211171
15.044847,19,-128,-28,1,-79,-27,-8,-16,2.207211171
15.044855,-80,19,-11,1,-32,12,-14,-78,2.207211171
15.046409,-10,75,6,-9,-88,-32,37,-3,2.207211171
15.046415,15,-114,-1,35,82,97,-23,0,2.207211171
15.066909,5,40,1,-49,-108,-128,-11,-22,2.207211171
15.066920,40,51,12,18,93,50,14,36,2.207211171
15.070623,-28,-24,-1,-3,65,-80,-10,-13,2.207211171
15.070631,-6,-19,-7,-14,-1,-36,21,17,2.207211171
15.080710,-46,49,1,-32,15,93,16,-54,2.207211171
15.080741,19,33,6,49,61,-13,-30,-36,2.207211171
15.090992,45,-95,-27,-5,1,32,-32,10,2.262850789
15.091005,112,87,-2,-26,-94,-54,22,1,2.262850789
15.104980,17,15,13,37,13,-2,-25,-2,2.262850789
15.105012,-68,-82,-14,-11,-17,-49,-1,-14,2.262850789
15.106959,8,61,26,12,-11,47,23,-13,2.262850789
15.106971,8,-29,6,-2,-56,-5,-17,-16,2.262850789
15.127061,20,-2,-5,8,64,36,32,28,2.262850789
15.127078,50,94,7,-27,-74,41,5,-6,2.262850789
15.128593,-24,15,4,20,36,-67,-5,-13,2.262850789
15.128614,25,-70,-28,-34,19,27,0,-6,2.262850789
15.140573,-38,49,7,-15,-98,-51,11,19,2.262850789
15.140592,10,79,5,0,82,92,-20,26,2.262850789
15.152631,-107,-71,5,18,-46,16,-17,-50,2.262850789
15.152647,-5,55,2,1,-2,81,6,-58,2.262850789
15.164529,60,35,-4,14,73,-37,-16,15,2.262850789
15.164560,10,1,-16,5,39,6,12,49,2.262850789
15.167290,39,127,19,-14,1,81,-12,64,2.262850789
15.167300,46,61,15,19,20,-45,35,-33,2.262850789
15.186884,-128,-128,-30,-3,105,21,-57,89,2.262850789
15.186895,45,64,0,-29,-99,-15,21,-5,2.262850789
15.188587,22,-71,-1,-13,-21,-47,12,19,2.262850789
15.188606,-34,29,10,34,47,-14,-21,1,2.262850789
15.209489,-3,48,4,-24,-49,27,-12,-61,2.262850789
15.209509,24,-41,-10,-18,5,-19,47,6,2.262850789
15.211466,-40,-36,5,20,-3,15,-23,24,2.262850789
15.211479,16,4,-11,-29,-38,-21,3,-25,2.262850789
15.224438,-62,-78,-7,16,-47,-12,10,35,2.262850789
15.224456,-29,57,-10,-30,-1,21,-6,-21,2.262850789
15.226435,25,-74,-25,-73,-89,-75,-9,-41,2.262850789
15.226446,8,89,19,55,85,95,48,61,2.262850789
15.247416,50,64,14,29,-20,-4,-59,-27,2.262850789
15.247427,32,-17,-2,9,-10,0,46,15,2.262850789
15.248399,-55,23,-3,-18,-104,34,49,-54,2.262850789
15.248430,94,-3,-5,-30,10,-50,-20,36,2.262850789
15.269402,12,-48,5,16,44,0,33,36,2.262850789
15.269415,40,-25,-7,-2,-29,25,-87,4,2.262850789
15.271938,-58,-72,-4,7,18,0,-29,-15,2.262850789
15.271952,66,-2,0,7,-8,-40,0,-56,2.262850789
15.284394,-50,66,3,6,0,25,10,-64,2.262850789
15.284408,58,57,22,-12,-34,-24,-10,-53,2.262850789
15.287000,-10,-61,-40,-33,-34,-19,18,0,2.262850789
15.287008,-55,-2,5,2,58,9,-45,-1,2.262850789
15.307212,-9,51,6,-41,24,-71,-1,-9,2.262850789
15.307229,-34,-117,-8,46,-18,9,0,-31,2.262850789
15.309447,30,127,23,66,69,41,-29,22,2.262850789
15.309464,-5,25,-9,-35,25,30,57,18,2.262850789
15.329465,6,55,6,33,60,2,72,-59,2.262850789
15.329490,15,37,4,-24,-50,-100,-53,-22,2.262850789
15.331748,-42,53,7,9,-28,24,4,25,2.262850789
15.331767,-17,-11,-5,-15,-33,-14,-10,-5,2.262850789
15.343733,78,33,2,-15,-74,-34,-38,-10,2.262850789
15.343746,0,-56,-15,7,26,27,24,-13,2.262850789
15.350991,58,-115,-7,23,59,15,-25,49,2.252120357
15.351012,-51,40,3,3,11,-12,-28,11,2.252120357
15.367592,-4,-17,10,-12,28,32,15,16,2.252120357
15.367634,-17,5,-22,-20,-52,-28,-5,-56,2.252120357
15.370943,-48,-10,-21,-53,-84,-16,-16,-22,2.252120357
15.370959,-66,-14,11,27,-67,-54,25,-25,2.252120357
15.389496,80,14,3,54,59,125,-38,33,2.252120357
15.389510,-41,17,1,-17,38,-32,63,25,2.252120357
15.391150,62,-55,10,33,127,32,-43,-3,2.252120357
15.391160,62,44,-2,-7,27,-40,-8,34,2.252120357
15.404019,-93,-28,-20,-49,-42,2,-19,-2,2.252120357
15.404027,-19,76,5,-11,-53,55,21,1,2.252120357
15.410667,63,15,6,3,-82,1,-3,43,2.252120357
15.410685,37,-59,-4,1,68,15,-2,20,2.252120357
15.427484,29,60,6,21,54,-65,-39,-12,2.252120357
15.427516,-47,-66,-28,-12,3,31,-3,-39,2.252120357
15.429297,37,9,7,-1,8,-13,21,-12,2.252120357
15.429317,-99,-50,7,-6,-31,1,-12,13,2.252120357
15.451281,31,-19,-15,-2,-90,-38,9,-11,2.252120357
15.451288,5,7,7,-32,58,23,0,5,2.252120357
15.451291,-7,56,-1,47,87,86,17,-18,2.252120357
15.451293,74,72,22,4,58,-83,52,36,2.252120357
15.463862,-96,-94,-1,27,-49,75,-24,-56,2.252120357
15.463987,36,-105,-7,-3,108,4,-48,117,2.252120357
15.471086,8,32,6,-23,-65,-71,-4,-8,2.252120357
15.471110,-2,-81,-20,-28,-16,21,-34,-4,2.252120357
15.487488,18,46,-2,-1,30,39,29,6,2.252120357
15.487510,-20,41,3,-14,-89,-51,-7,-86,2.252120357
15.490436,22,89,2,-2,2,-5,9,33,2.252120357
15.490453,16,-45,8,20,-44,6,-7,15,2.252120357
15.509621,-37,13,-8,-22,-28,-64,-16,-52,2.252120357
15.509638,4,-61,-9,16,7,51,13,3,2.252120357
15.512217,23,88,22,8,34,5,27,-11,2.252120357
15.512226,-23,-35,-23,-42,0,-30,-37,-16,2.252120357
15.523803,38,70,8,16,-48,63,17,-24,2.252120357
15.523824,24,27,25,25,-45,-63,-5,53,2.252120357
15.530576,-28,86,-9,-26,66,10,11,-46,2.252120357
15.530617,-2,-42,0,4,-76,4,0,23,2.252120357
15.546944,29,14,1,-12,-40,73,79,23,2.252120357
15.546979,-10,-28,6,45,62,-55,-34,-17,2.252120357
15.548431,35,1,-12,-1,-33,3,-25,11,2.252120357
15.548438,-84,75,2,-3,-44,21,31,-69,2.252120357
15.569405,52,6,-3,-16,-10,-20,-26,63,2.252120357
15.571566,-83,29,1,-19,-46,28,45,1,2.252120357
15.571579,42,-35,16,3,-6,-33,-29,60,2.252120357
15.571581,17,29,-6,12,57,18,-4,-71,2.252120357
15.584031,-56,-104,10,19,20,-27,10,2,2.252120357
15.584061,50,61,0,-14,-30,5,3,9,2.252120357
15.590640,-76,-9,-19,-40,-18,-42,44,-18,2.252120357
15.590661,2,-9,-10,-37,-122,105,-68,7,2.252120357
15.607606,12,24,2,83,114,-77,-12,8,2.215088869
15.607616,-6,73,5,-13,-17,94,37,15,2.215088869
15.608473,-39,-85,-22,34,31,3,36,-10,2.215088869
15.608480,-5,121,8,-18,-12,50,13,26,2.215088869
15.629913,14,-27,-12,-50,-5,-75,-60,-5,2.215088869
15.629929,40,9,-8,11,64,2,8,-81,2.215088869
15.631583,-80,-58,-1,-14,-72,3,6,-36,2.215088869
15.631636,-53,19,-2,3,-12,6,31,-6,2.215088869
15.643861,-45,-94,-10,-9,46,-31,-40,-28,2.215088869
15.643879,28,-50,14,1,44,-3,2,4,2.215088869
15.650957,55,13,3,-16,-62,-26,12,29,2.215088869
15.650981,32,8,-23,-18,67,65,-27,73,2.215088869
15.666944,-13,51,6,21,-61,-35,12,19,2.215088869
15.666975,31,-33,9,17,52,48,-3,-16,2.215088869
15.669431,15,-65,0,-4,80,-12,-6,-1,2.215088869
15.669442,71,17,12,19,-40,19,36,81,2.215088869
15.689756,5,-86,6,20,83,10,-30,-19,2.215088869
15.689774,19,111,1,-7,-84,-37,2,68,2.215088869
15.691161,-71,-11,-12,-4,30,-8,-21,-36,2.215088869
15.691195,22,47,-3,-8,-21,-22,-12,52,2.215088869
15.703183,27,-3,-3,-11,22,44,29,15,2.215088869
15.703194,-51,-25,-3,9,-27,-35,-20,11,2.215088869
15.712824,13,-44,4,-3,-11,11,-9,-3,2.215088869
15.712846,-62,-60,-3,14,19,-39,7,-77,2.215088869
15.727029,9,38,1,-62,-125,-15,33,-7,2.215088869
15.727053,20,-27,2,63,85,53,-58,30,2.215088869
15.728699,34,24,3,2,-45,-59,101,-12,2.215088869
15.728720,21,-16,13,61,127,67,-64,-17,2.215088869
15.749721,12,87,4,-7,30,-57,42,86,2.215088869
15.749731,4,-64,-8,-13,-48,47,4,-11,2.215088869
15.751288,-32,9,4,52,111,57,-35,36,2.215088869
15.751309,14,72,-7,-5,-102,-61,10,-7,2.215088869
15.763035,64,57,5,1,55,21,46,0,2.215088869
15.763044,-39,-117,-10,-18,-28,-5,-4,68,2.215088869
15.773965,28,119,3,-18,4,-21,-32,-12,2.215088869
15.773977,-44,4,3,-6,-24,-48,13,-28,2.215088869
15.787363,-8,6,-6,5,-19,66,-21,-14,2.215088869
15.787394,-5,89,7,-18,-39,-57,16,-9,2.215088869
15.790139,11,-51,-10,-34,-103,-38,-13,-42,2.215088869
15.790152,11,11,12,23,-40,57,12,-5,2.215088869
15.809399,13,-13,-8,-23,-22,-83,19,-24,2.215088869
15.809412,-55,8,-2,-10,19,-39,-46,18,2.215088869
15.810985,-53,-75,-22,-25,-25,5,-16,-39,2.215088869
15.811017,6,-29,7,21,-5,43,42,-12,2.215088869
15.823246,-31,1,-2,-2,-7,51,6,35,2.215088869
15.825777,46,10,-16,-50,-62,-18,13,-25,2.215088869
15.833120,0,112,5,4,-5,12,-27,3,2.215088869
15.833135,-22,-41,-14,3,-11,-78,0,-20,2.215088869
15.846957,3,-44,-2,24,69,62,-8,58,2.215088869
15.846974,37,42,6,-2,-11,-28,-10,-2,2.215088869
15.848560,49,106,18,-1,-31,44,-36,-15,2.215088869
15.848595,-84,-115,-13,-5,54,49,20,4,2.215088869
15.877046,16,55,-10,-7,-35,-94,-4,-56,2.235540237
15.877077,45,53,0,5,5,14,33,9,2.235540237
15.878892,-16,26,4,-7,36,17,23,17,2.235540237
15.880735,13,86,4,39,25,-20,-18,29,2.235540237
15.883045,13,-45,10,-4,-64,-34,-37,-26,2.235540237
15.883052,-100,-16,-14,-34,-9,11,-29,-35,2.235540237
15.892068,1,-25,-4,-3,-95,4,38,0,2.235540237
15.892085,49,3,-7,22,72,-32,-33,45,2.235540237
15.906981,-96,-74,-3,16,-1,49,41,-21,2.235540237
15.907000,44,-28,3,34,62,-1,-7,-29,2.235540237
15.908583,20,26,8,0,-32,1,-10,32,2.235540237
15.908622,-22,52,3,-28,67,32,-1,-50,2.235540237
15.930241,5,29,3,-5,-72,-65,-21,18,2.235540237
15.930258,53,31,5,5,-34,-9,-18,3,2.235540237
15.932982,-99,-25,7,5,35,17,10,2,2.235540237
15.933001,41,-112,-12,-19,-87,-31,22,-78,2.235540237
15.943332,78,74,7,16,114,58,-12,2,2.235540237
15.943348,-5,10,-13,-22,-20,5,1,40,2.235540237
15.952012,-20,-52,15,-6,31,5,-1,0,2.235540237
15.952041,-32,119,-2,-4,29,-5,-12,-22,2.235540237
15.966877,10,-118,-16,20,20,-10,-61,7,2.235540237
15.966950,36,61,28,26,22,38,99,75,2.235540237
15.968575,72,93,6,4,-16,2,-27,43,2.235540237
15.968609,-73,-84,-24,-33,-101,0,25,8,2.235540237
15.990066,-14,86,-6,-30,-98,24,-64,-6,2.235540237
15.990087,24,-26,13,1,106,3,-3,-18,2.235540237
15.991958,48,55,-19,-29,-101,24,6,-6,2.235540237
15.991971,-28,-55,16,42,96,-22,1,2,2.235540237
16.014125,-32,-78,-16,-1,-15,10,-2,-63,2.235540237
16.014136,-28,-8,1,-26,-125,-17,-12,-37,2.235540237
16.014139,32,-25,-1,-17,98,-16,-7,28,2.235540237
16.014142,2,86,11,-3,-21,7,-28,31,2.235540237
16.027075,-10,-82,-15,3,89,-12,17,46,2.235540237
16.027094,-53,69,5,-15,-60,83,-43,-26,2.235540237
16.028825,-4,-23,-1,32,-40,-86,41,-6,2.235540237
16.028865,29,58,6,22,84,100,58,4,2.235540237
16.049450,26,43,16,-6,64,-25,-53,6,2.235540237
16.049478,-52,-10,-17,0,2,-3,26,-22,2.235540237
16.052441,-57,-73,-14,-1,-86,-13,-32,-26,2.235540237
16.052453,5,-24,4,0,5,-8,33,27,2.235540237
16.063791,-41,85,-6,-6,-48,6,-31,-8,2.235540237
16.063868,-25,-128,0,10,9,-35,-5,-47,2.235540237
16.074667,55,-47,-9,15,68,28,-19,29,2.235540237
16.074682,-46,-87,-4,-25,-24,-24,0,-29,2.235540237
16.086865,28,56,14,-36,12,26,14,14,2.235540237
16.086872,14,-40,-21,19,-11,-37,40,32,2.235540237
16.090148,11,60,18,9,11,12,44,4,2.235540237
16.090160,36,-83,-16,-62,24,42,-105,-36,2.235540237
16.109674,15,-79,12,91,92,118,101,8,2.235540237
16.109691,-25,38,6,-30,-41,-30,-35,-49,2.235540237
16.111052,22,55,5,42,95,48,19,-3,2.235540237
16.111066,25,-59,-20,-19,-41,-40,33,21,2.235540237
16.132835,-12,33,6,-24,-87,-27,-22,-40,2.182298180
16.132866,32,-42,-8,11,23,8,-10,6,2.182298180
16.138117,-58,7,0,8,9,21,7,41,2.182298180
16.138139,2,104,11,-18,-54,-52,-20,-48,2.182298180
16.146932,61,11,5,3,-22,-18,11,27,2.182298180
16.146977,-6,1,-6,16,-6,-3,1,70,2.182298180
16.148782,46,10,-3,-7,65,24,-11,-27,2.182298180
16.148797,-6,-96,18,17,-78,-84,-36,-3,2.182298180
16.169414,29,62,-3,-13,-20,85,32,-28,2.182298180
16.169424,-101,-71,-11,16,36,-37,-23,16,2.182298180
16.171450,-46,95,-7,1,-15,-43,-10,-39,2.182298180
16.171478,49,-64,-3,26,26,13,-19,24,2.182298180
16.191983,-52,-73,-8,-44,-79,-16,36,-27,2.182298180
16.192000,13,127,33,13,34,35,-36,-8,2.182298180
16.193731,-8,-128,-45,-29,-107,-43,-22,-8,2.182298180
16.193755,36,127,4,-11,-36,-16,19,6,2.182298180
16.207213,-54,40,7,-2,-30,-20,1,3,2.182298180
16.207231,39,-22,-13,-44,5,56,-9,-31,2.182298180
16.208880,-15,-16,28,11,-28,-1,-1,61,2.182298180
16.208897,109,108,-5,-9,-68,-2,20,-61,2.182298180
16.231030,66,-108,-11,8,7,-17,3,50,2.182298180
16.231037,-106,-70,-16,-5,-2,7,-1,-47,2.182298180
16.231573,63,31,-5,-2,-56,17,-13,-49,2.182298180
16.231580,8,-47,12,-31,-52,-10,8,11,2.182298180
16.252172,-47,127,9,35,84,42,-33,-22,2.182298180
16.252199,36,-89,-15,44,-36,31,53,-9,2.182298180
16.254250,-40,-13,-15,-25,12,-11,-52,-12,2.182298180
16.254266,-31,67,2,12,-36,23,4,20,2.182298180
16.266368,34,35,-11,-8,-68,-49,-32,-19,2.182298180
16.266393,24,62,34,-3,0,27,15,51,2.182298180
16.273646,-48,-66,-23,-20,52,-3,49,-49,2.182298180
16.273665,26,35,-1,35,-37,-11,22,12,2.182298180
16.289865,-15,-66,-4,-18,37,-11,-22,-80,2.182298180
16.289884,34,16,-1,34,43,-11,-23,-6,2.182298180
16.291834,-8,19,14,-27,8,-29,5,0,2.182298180
16.291847,-83,-40,-10,12,121,12,-14,-13,2.182298180
16.312011,89,39,7,22,7,44,44,75,2.182298180
16.312037,5,27,-5,-70,-1,-116,-6,2,2.182298180
16.313796,2,-52,12,66,47,39,2,-33,2.182298180
16.313810,-92,-43,-8,-22,14,-35,-14,-7,2.182298180
16.326284,-44,113,-2,25,86,13,-8,-10,2.182298180
16.326301,41,-36,3,-18,-19,-4,44,-34,2.182298180
16.333104,-28,-22,-12,-7,-47,-14,-14,2,2.182298180
16.333126,-57,-18,-9,-1,-9,-19,-29,2,2.182298180
16.349823,-25,-112,-15,-71,-104,-47,18,10,2.182298180
16.349855,-52,56,-21,13,-12,-15,-12,-71,2.182298180
16.351935,61,127,30,3,-42,14,-14,45,2.182298180
16.351948,45,98,21,5,-4,8,3,32,2.182298180
16.372059,-13,-120,-17,-32,39,-29,-23,-35,2.267199746
16.372083,24,117,-4,28,85,48,65,-23,2.267199746
16.373547,16,45,14,9,-51,1,-33,25,2.267199746
16.373559,70,127,8,-49,-2,-5,19,6,2.267199746
16.386216,18,-27,5,59,79,-12,-1,70,2.267199746
16.386230,41,-124,-19,48,14,-56,-35,44,2.267199746
16.393109,-87,-1,-8,-19,-41,25,13,-11,2.267199746
16.393126,107,88,5,5,23,17,-2,-3,2.267199746
16.409471,-37,-23,-17,-53,-113,-21,-3,-43,2.267199746
16.409488,-37,43,-1,-15,4,8,-31,-48,2.267199746
16.412188,68,26,-3,-3,-16,-7,-11,20,2.267199746
16.412198,-47,-128,-15,-1,-11,30,-8,-11,2.267199746
16.432420,-25,54,6,-7,-29,-6,-3,-40,2.267199746
16.432427,24,-21,9,-5,-3,7,12,28,2.267199746
16.433703,-18,44,4,3,51,18,37,-44,2.267199746
16.433717,-16,-57,0,-38,-8,0,-30,-15,2.267199746
16.447082,23,16,10,83,27,78,-35,-5,2.267199746
16.447093,23,82,35,31,53,-33,32,55,2.267199746
16.453459,29,-63,-30,-26,37,-18,20,-28,2.267199746
16.453480,-83,-115,-11,20,-4,-26,-44,-41,2.267199746
16.470010,-4,16,-3,-23,5,32,75,-23,2.267199746
16.470041,-31,-43,1,-17,-54,42,-7,18,2.267199746
16.473056,74,57,22,-2,46,0,-14,-44,2.267199746
16.473070,-18,35,-19,9,-24,-8,15,-18,2.267199746
16.499496,-32,-15,-7,-21,-65,-26,-43,-9,2.267199746
16.499521,-53,103,-8,-13,37,3,-13,-57,2.267199746
16.501929,50,-89,8,-3,25,12,12,60,2.267199746
16.501949,30,119,22,28,34,20,12,9,2.267199746
16.506776,-42,-48,-14,1,68,47,19,-13,2.267199746
16.506868,35,87,8,42,28,-56,-9,28,2.267199746
16.513319,-14,40,-7,-9,-32,89,-10,-4,2.267199746
16.513344,-14,-15,-3,-2,25,27,26,17,2.267199746
16.530216,22,8,5,-19,-73,-5,-53,-33,2.267199746
16.530243,-52,-128,-18,-9,17,-12,2,-8,2.267199746
16.532789,-76,81,7,12,-2,9,2,1,2.267199746
16.532863,102,60,8,-5,-59,-38,-19,16,2.267199746
16.552273,-23,-25,-29,-22,-8,-18,59,-22,2.267199746
16.552304,108,-1,0,-9,-51,20,-46,90,2.267199746
16.554653,-60,10,7,78,83,-29,-13,-11,2.267199746
16.554666,-5,64,0,-30,-72,44,30,-38,2.267199746
16.566713,-1,124,30,66,112,-13,42,12,2.267199746
16.566745,-27,-82,-42,-80,-128,-10,18,29,2.267199746
16.573497,-25,-58,-10,5,45,-20,26,21,2.267199746
16.573518,13,43,11,37,47,-22,7,14,2.267199746
16.589465,-54,-35,0,-29,-72,-9,20,6,2.267199746
16.589485,2,-26,-1,-5,-18,35,-49,-73,2.267199746
16.591076,-9,-91,-16,-23,-39,-22,0,-11,2.267199746
16.591143,-32,5,-13,-23,-31,-15,-4,6,2.267199746
16.612005,40,56,14,6,-9,-16,-44,18,2.267199746
16.612024,-2,28,8,-6,7,12,-8,-3,2.267199746
16.613712,-30,18,8,11,19,-47,-13,-78,2.267199746
16.613729,62,-7,10,-31,-26,-1,-15,27,2.267199746
16.625637,23,-76,-16,28,44,16,22,80,2.287096789
16.625653,26,84,2,-29,-104,-34,-29,-18,2.287096789
16.636006,-21,17,-2,-28,101,127,13,-38,2.287096789
16.636025,5,-73,3,29,-66,8,18,-67,2.287096789
16.650087,-22,48,3,-12,-41,-25,7,-10,2.287096789
16.650094,-4,53,15,-17,1,25,-33,10,2.287096789
16.651083,-19,-76,-26,-15,-110,-21,5,30,2.287096789
16.651097,-89,-4,-21,13,57,-72,-78,-31,2.287096789
16.672087,34,75,9,-12,-112,5,13,5,2.287096789
16.672118,-5,-90,1,25,70,6,18,-23,2.287096789
16.674126,38,127,0,-34,-56,-28,-21,9,2.287096789
16.674140,35,-128,-4,17,111,43,14,113,2.287096789
16.686008,16,5,-9,-10,-92,-124,-33,-40,2.287096789
16.686033,-40,-26,11,63,118,108,82,18,2.287096789
16.696423,88,82,21,30,-37,-128,-68,27,2.287096789
16.696431,-18,-12,-11,21,90,46,62,12,2.287096789
16.710520,8,-49,4,-17,74,4,-29,-11,2.287096789
16.710560,-88,-61,-22,-26,-116,-52,-74,-31,2.287096789
16.713272,34,11,13,-5,-105,48,64,19,2.287096789
16.713281,-51,-99,-33,-14,76,-10,-8,-76,2.287096789
16.732742,41,95,14,6,-10,-7,-35,22,2.287096789
16.732765,78,63,16,24,52,5,26,14,2.287096789
16.735536,-88,-28,-8,12,-5,17,-3,0,2.287096789
16.735544,70,-40,-2,-64,-128,-23,-2,36,2.287096789
16.745648,-125,-50,-11,11,-38,-6,3,-71,2.287096789
16.745675,116,-41,-12,-3,-23,46,46,-11,2.287096789
16.756679,29,44,5,-19,-41,17,-7,19,2.287096789
16.756691,-42,75,9,5,-19,69,54,-11,2.287096789
16.769761,-8,-13,-11,-14,106,24,8,11,2.287096789
16.769788,-34,66,8,-24,-48,-81,-14,-7,2.287096789
16.772633,-25,-64,0,13,42,-1,-30,-18,2.287096789
16.772645,-11,66,0,-14,-8,44,16,24,2.287096789
16.791878,-6,-9,-6,16,-16,-30,-21,16,2.287096789
16.791892,-23,125,9,12,10,26,1,-3,2.287096789
16.793439,92,42,-6,-20,61,-33,20,-14,2.287096789
16.793449,-72,10,-3,6,-79,-42,-18,48,2.287096789
16.805994,60,-2,6,-30,72,27,11,34,2.287096789
16.806008,-19,19,11,94,115,-12,19,13,2.287096789
16.816029,-11,-21,-12,-64,-78,-39,-18,-28,2.287096789
16.816037,2,88,12,28,7,51,6,50,2.287096789
16.829676,48,101,6,23,-22,21,-3,-15,2.287096789
16.829707,-57,-67,-19,-59,-57,73,16,-9,2.287096789
16.832408,0,15,-14,19,-38,-14,2,-18,2.287096789
16.832416,33,35,15,21,95,-24,-15,23,2.287096789
16.852176,28,-67,-2,-24,-73,34,10,48,2.287096789
16.852183,-1,-11,-9,-42,-62,-38,-2,-32,2.287096789
16.853374,-9,64,10,30,-4,-11,-28,16,2.287096789
16.853381,-28,14,7,-13,-23,-11,-7,-39,2.287096789
16.866582,80,8,-16,-19,81,-10,-17,13,2.287096789
16.866596,-46,-6,3,-3,76,-25,-2,-10,2.287096789
16.876065,-54,-66,2,14,45,-4,15,1,2.287096789
16.876075,80,76,4,-16,-54,-4,31,-21,2.287096789
16.890019,-62,-122,-8,31,90,-46,-17,36,2.316701247
16.890042,-66,-57,-27,-12,0,27,20,-23,2.316701247
16.892214,38,117,20,12,-25,55,58,39,2.316701247
16.892234,47,18,-14,-5,-15,-39,-68,-12,2.316701247
16.914125,-55,24,4,-5,-55,12,23,-37,2.316701247
16.914140,-48,51,4,-42,-30,-12,-48,11,2.316701247
16.914146,24,9,-2,5,-11,-29,42,1,2.316701247
16.914151,15,-99,-9,8,10,-25,1,-16,2.316701247
16.925725,-1,87,12,-14,-66,19,12,-18,2.316701247
16.925750,-6,-100,-14,11,-15,-31,-30,-80,2.316701247
16.936647,4,-56,6,21,62,52,18,78,2.316701247
16.936655,-36,-8,8,-13,-42,10,-3,-31,2.316701247
16.950000,10,-12,0,-19,29,-1,-45,-27,2.316701247
16.950031,59,127,-1,-5,0,-29,4,29,2.316701247
16.952009,-69,-108,-16,-6,-19,58,34,-72,2.316701247
16.952066,21,47,-5,5,61,-73,-54,2,2.316701247
16.972087,-43,60,14,16,31,101,34,-4,2.316701247
16.972106,78,54,19,16,-17,-22,-12,7,2.316701247
16.974542,23,0,-2,-6,22,-35,-17,12,2.316701247
16.974556,-128,-128,-18,11,-3,30,-13,-3,2.316701247
16.986443,90,127,23,-12,-64,-9,32,39,2.316701247
16.986469,11,-103,-5,9,-8,-18,4,1,2.316701247
16.996830,-25,12,-17,-5,46,-5,-24,-20,2.316701247
16.996839,66,30,10,12,25,-3,33,77,2.316701247
17.009556,-47,48,-8,3,31,15,-46,14,2.316701247
17.009603,-9,46,11,-3,-45,-21,17,0,2.316701247
17.010952,-11,-2,-13,-12,6,-33,-36,14,2.316701247
17.010959,-28,59,-10,-5,-120,19,39,-84,2.316701247
17.032038,-54,-119,-23,-2,-20,-35,-3,-31,2.316701247
17.032052,49,23,-4,-27,-13,81,-36,21,2.316701247
17.034399,20,39,14,6,22,12,18,-8,2.316701247
17.034436,-7,110,16,-9,-94,-25,-7,-13,2.316701247
17.046054,-5,-71,-29,24,127,21,13,32,2.316701247
17.046086,1,-46,-2,2,-30,-32,99,4,2.316701247
17.056175,-3,-100,-14,-27,-10,-4,-39,-5,2.316701247
17.056189,15,-37,11,17,81,31,-18,46,2.316701247
17.069580,5,31,9,18,-72,-68,15,7,2.316701247
17.069606,0,53,6,11,-18,-8,-21,-12,2.316701247
17.072407,75,22,16,-2,75,20,25,66,2.316701247
17.072422,53,-68,-4,-11,9,-38,-38,-15,2.316701247
17.099670,-24,55,3,10,-30,47,15,-69,2.316701247
17.099693,9,65,13,-21,-65,72,-7,51,2.316701247
17.102281,-95,-34,-32,1,-19,-63,28,-102,2.316701247
17.102302,107,73,3,-19,-66,85,-26,-11,2.316701247
17.114429,14,88,12,22,59,-5,12,-27,2.316701247
17.114446,12,-70,2,13,12,45,13,1,2.316701247
17.116603,-8,81,16,-15,-100,15,24,4,2.316701247
17.116621,-32,15,-21,-30,-10,-25,9,-9,2.316701247
17.129969,2,-35,-11,-21,-33,-39,-13,-34,2.316701247
17.129999,-19,46,5,29,99,-15,-16,5,2.316701247
17.132905,25,-15,-4,-39,-55,14,-46,-43,2.316701247
17.132915,-46,1,-4,24,54,49,50,-54,2.316701247
17.152480,42,-76,8,-14,-40,-61,-37,37,2.302888235
17.152515,17,24,4,-24,15,14,-6,-1,2.302888235
17.155470,3,-1,4,10,26,35,-29,-15,2.302888235
17.155486,-96,-36,6,19,-43,-21,32,-31,2.302888235
17.174445,79,16,-8,-16,28,-68,-23,-19,2.302888235
17.174465,-17,-13,6,-5,-72,-71,-7,-38,2.302888235
17.176127,-11,11,-10,92,127,85,-30,80,2.302888235
17.176138,11,37,6,1,-44,-13,9,27,2.302888235
17.189720,-3,-7,-7,-38,-127,-11,41,13,2.302888235
17.189742,-4,-72,-1,28,38,59,24,-1,2.302888235
17.191763,48,63,9,-6,-28,-70,-1,8,2.302888235
17.191777,3,3,3,-10,23,8,-12,35,2.302888235
17.211889,-23,71,9,17,-4,23,-8,19,2.302888235
17.211899,90,127,27,1,-17,-9,-14,15,2.302888235
17.213390,-92,-93,-35,-20,-96,3,25,-40,2.302888235
17.213396,-8,-77,-23,-16,73,-15,-27,-40,2.302888235
17.234564,4,12,10,4,-45,-11,11,-10,2.302888235
17.234581,-33,27,-19,-8,30,6,-12,3,2.302888235
17.236354,20,18,14,-4,-49,-5,0,9,2.302888235
17.236363,68,23,10,14,7,27,46,8,2.302888235
17.248976,-11,-17,9,18,38,-33,-31,17,2.302888235
17.249006,-1,60,1,21,91,62,-4,12,2.302888235
17.266876,-22,-1,-22,-4,-66,-78,26,11,2.302888235
17.266885,10,25,-6,-11,127,32,11,-14,2.302888235
17.274270,-28,-20,14,9,-99,34,37,-19,2.302888235
17.274282,-31,-120,-16,0,5,-37,-22,50,2.302888235
17.274285,50,63,11,-4,44,16,-4,0,2.302888235
17.274288,3,35,2,-8,9,-11,-19,84,2.302888235
17.294507,9,56,6,-9,18,3,12,19,2.302888235
17.294538,-20,-58,-17,-2,-42,-21,-1,-59,2.302888235
17.296046,-7,-79,-5,-13,3,13,-24,34,2.302888235
17.296061,33,19,14,5,-20,-24,-5,-9,2.302888235
17.308905,-62,23,0,-17,37,104,51,-8,2.302888235
17.308923,33,-98,-41,-35,-93,-94,-58,-20,2.302888235
17.316063,18,85,6,-60,-49,24,-65,-22,2.302888235
17.316093,24,39,22,118,108,-1,56,6,2.302888235
17.332518,-14,-48,-18,0,-84,81,4,5,2.302888235
17.332549,43,116,21,-17,-49,-5,-1,14,2.302888235
17.335181,-29,-59,13,-3,9,-31,2,-27,2.302888235
17.335190,29,34,0,-52,-118,-62,-56,31,2.302888235
17.354472,99,77,-6,-11,3,-28,-25,-20,2.302888235
17.354489,-73,-87,-18,16,58,33,41,-8,2.302888235
17.356435,108,126,18,27,26,11,-14,78,2.302888235
17.356634,-128,87,5,-2,-9,12,7,-59,2.302888235
17.368816,37,-97,1,1,31,-19,-2,-14,2.302888235
17.368823,-22,127,11,-5,4,36,19,-19,2.302888235
17.375786,12,-87,-12,-7,26,-23,21,-15,2.302888235
17.375802,-25,-67,-3,40,-7,18,-2,-6,2.302888235
17.392174,-35,51,3,7,41,-21,9,31,2.302888235
17.392191,22,114,3,-25,24,-111,8,-13,2.302888235
17.394393,-56,-56,-21,-8,65,93,16,-40,2.254648606
17.394408,17,-53,-7,25,91,10,77,14,2.254648606
17.414814,-14,24,0,-67,-116,-64,-31,-14,2.254648606
17.414821,9,-19,6,34,82,82,-18,10,2.254648606
17.416128,-28,8,5,32,-75,-56,-24,-30,2.254648606
17.416161,-2,-16,-21,-52,-119,-6,-15,-73,2.254648606
17.429540,63,-41,-6,12,-41,11,-48,32,2.254648606
17.429552,60,107,14,-25,-60,-3,36,-30,2.254648606
17.436025,-84,-36,-17,-16,-25,2,-16,1,2.254648606
17.438017,46,-41,10,6,17,-4,-41,-15,2.254648606
17.452023,-67,10,-7,-3,30,-6,6,-4,2.254648606
17.452046,-4,40,6,5,-5,5,-4,3,2.254648606
17.454512,24,50,13,19,-3,0,31,-19,2.254648606
17.454530,8,-6,-13,-15,-90,41,-67,12,2.254648606
17.474237,-31,-54,-6,-27,-28,-97,2,28,2.254648606
17.474302,-16,-58,-6,53,-29,58,39,25,2.254648606
17.480591,13,127,24,19,13,39,30,9,2.254648606
17.480614,1,-81,-13,-20,48,-24,37,-51,2.254648606
17.489255,54,75,8,-11,38,50,-43,-3,2.254648606
17.489286,-55,-122,-21,-23,45,-40,-19,-33,2.254648606
17.496018,-54,-80,-3,19,64,39,33,-16,2.254648606
17.496050,9,64,7,-23,-68,-36,-26,65,2.254648606
17.512432,-75,-26,-7,-3,67,4,7,-35,2.254648606
17.512459,28,79,-8,5,-23,29,-11,-21,2.254648606
17.513587,-5,76,8,-5,39,-13,31,15,2.254648606
17.513609,-29,-60,-6,-9,1,4,-44,-3,2.254648606
17.541961,-67,-119,-9,8,-8,-8,51,-10,2.254648606
17.541975,25,-67,2,-17,-31,52,-9,44,2.254648606
17.543671,-16,-84,-11,-8,22,-75,-39,-17,2.254648606
17.543774,21,45,3,55,50,-61,9,-6,2.254648606
17.548776,28,44,4,28,115,120,-13,10,2.254648606
17.548807,6,55,2,0,-67,-16,17,-2,2.254648606
17.555768,19,-86,-9,-9,-82,-19,3,-37,2.254648606
17.555796,15,68,5,-33,-25,-34,10,65,2.254648606
17.572148,42,52,16,19,6,-11,20,-22,2.254648606
17.572171,-16,33,0,5,72,16,1,36,2.254648606
17.573571,-6,16,0,15,2,20,-31,6,2.254648606
17.573588,27,73,4,-44,-95,17,28,83,2.254648606
17.594986,-3,20,-19,-10,-85,-54,-15,-55,2.254648606
17.595017,8,-43,17,40,63,45,-69,4,2.254648606
17.598255,45,115,-5,-17,-50,5,22,5,2.254648606
17.598263,-26,-102,-8,-24,-32,2,0,-42,2.254648606
17.608215,46,31,-14,-15,-2,23,8,13,2.254648606
17.608233,-72,-118,1,-17,-29,-46,11,-17,2.254648606
17.617731,12,117,5,-53,-100,-64,-27,-18,2.254648606
17.617738,69,-9,16,59,103,109,-18,-7,2.254648606
17.632194,-4,-7,-9,-1,-100,104,38,-3,2.254648606
17.632201,-17,88,7,-30,-72,-64,18,26,2.254648606
17.633393,111,-30,-1,-3,-17,52,-2,64,2.254648606
17.633426,-126,-33,-11,-21,-13,-111,-73,2,2.254648606
17.654715,-1,63,15,29,61,15,-3,18,2.258321560
17.654743,-9,37,16,12,-2,-2,33,73,2.258321560
17.656928,-55,14,-15,-29,-27,-8,-3,-35,2.258321560
17.656944,83,-54,-10,-3,5,14,-1,39,2.258321560
17.668720,-35,49,-12,9,35,-31,-31,5,2.258321560
17.668762,17,24,1,-10,-18,-6,5,-30,2.258321560
17.678257,-19,84,41,19,16,29,18,35,2.258321560
17.678265,-62,-54,-47,-70,-21,-50,-27,-60,2.258321560
17.691884,9,61,9,103,68,25,11,-8,2.258321560
17.691901,27,-28,-17,-13,-67,-48,6,-13,2.258321560
17.693925,9,94,2,22,11,57,24,-38,2.258321560
17.693947,-39,34,3,23,47,79,33,-28,2.258321560
17.714776,88,21,5,-47,-45,-9,2,-30,2.258321560
17.714803,-36,-82,-39,-45,-53,-93,-17,-49,2.258321560
17.716168,9,-12,3,12,8,49,-85,7,2.258321560
17.716189,16,60,5,-13,-40,-4,23,24,2.258321560
17.728192,-52,-128,-3,-9,-44,-15,-15,10,2.258321560
17.728229,73,62,-13,11,17,-20,-32,-27,2.258321560
17.739489,-21,-13,-2,-10,-5,-4,17,-31,2.258321560
17.739506,81,-85,2,4,-20,3,6,36,2.258321560
17.752492,-73,6,-5,-14,36,-14,-7,48,2.258321560
17.752517,-76,-25,-3,-9,-22,30,-20,-73,2.258321560
17.755482,26,-16,0,12,2,-19,10,10,2.258321560
17.755495,17,69,23,27,-21,33,31,-19,2.258321560
17.774486,-8,-72,1,13,-49,-39,-10,-7,2.258321560
17.774501,33,78,8,-19,118,27,17,25,2.258321560
17.776041,-50,-98,3,47,-13,78,-11,47,2.258321560
17.776062,-121,-72,-33,-11,-17,-5,59,-18,2.258321560
17.788722,23,43,-9,-26,-36,41,-23,3,2.258321560
17.788737,-5,71,10,-8,9,-30,7,5,2.258321560
17.797769,52,127,19,-15,-39,-18,3,11,2.258321560
17.797784,-33,-23,2,5,92,38,5,43,2.258321560
17.819382,27,-48,-14,-19,8,-41,-18,-9,2.258321560
17.819391,18,-26,2,20,4,10,18,10,2.258321560
17.821476,3,33,-9,-28,47,-20,4,-71,2.258321560
17.821492,-15,-15,9,16,-63,-3,-6,-29,2.258321560
17.834326,-18,14,0,4,32,-9,14,-49,2.258321560
17.834335,9,6,6,-21,61,-25,-8,18,2.258321560
17.835895,-25,-33,-4,5,44,80,-9,12,2.258321560
17.835915,-9,1,20,46,19,-89,63,-37,2.258321560
17.848876,-18,-24,-15,-42,-42,106,6,18,2.258321560
17.848890,8,-119,-31,36,47,22,-66,-81,2.258321560
17.858259,20,-42,-22,-26,-50,-40,6,29,2.258321560
17.858271,4,-10,-1,-26,-44,21,-32,2,2.258321560
17.872557,29,33,17,-2,0,-35,15,27,2.258321560
17.872600,3,19,7,9,7,5,25,15,2.258321560
17.875009,14,54,3,3,-21,-14,-13,-68,2.258321560
17.875022,50,46,-1,-2,33,5,-16,39,2.258321560
17.896531,21,76,11,-12,-51,-34,31,-1,2.258321560
17.896546,-20,-70,-13,16,-37,-24,-41,77,2.258321560
17.896553,-4,6,-9,-21,-10,26,3,3,2.258321560
17.896558,14,121,5,29,18,-32,9,-29,2.258321560
17.908275,-38,-62,-2,11,113,4,-3,3,2.192352611
17.908292,9,19,14,-12,-21,60,37,-26,2.192352611
17.918626,28,-53,-8,-1,-47,-93,-78,48,2.192352611
17.918638,-47,29,5,38,72,72,51,-7,2.192352611
17.932020,-7,-64,-2,10,-93,-8,18,2,2.192352611
17.932048,-18,-35,10,-26,-94,34,-25,61,2.192352611
17.934232,-19,56,-1,2,21,-101,-2,-15,2.192352611
17.934240,7,-60,-18,-64,-85,1,-27,-22,2.192352611
17.955121,-19,-67,-37,1,91,-13,-70,-26,2.192352611
17.955144,-2,110,12,20,35,8,33,-98,2.192352611
17.957206,15,6,11,13,50,6,36,55,2.192352611
17.957218,61,116,19,-1,-7,-25,-3,3,2.192352611
17.968126,4,-15,6,6,8,5,35,12,2.192352611
17.968187,-44,10,-14,-23,-91,-16,-65,-36,2.192352611
17.977558,9,-11,3,15,50,65,18,9,2.192352611
17.977564,-64,41,0,-14,-53,74,-17,-28,2.192352611
17.991922,-16,21,-1,-27,-101,-125,-23,-67,2.192352611
17.991933,16,-76,-11,32,11,97,-23,29,2.192352611
17.993420,14,34,13,44,25,-9,106,-41,2.192352611
17.993426,55,75,23,-10,-86,78,-9,68,2.192352611
18.014507,36,-12,-30,34,56,-53,-66,-46,2.192352611
18.014538,-54,-65,-17,-37,37,-31,44,7,2.192352611
18.017040,-2,7,-10,-29,-22,-35,-51,43,2.192352611
18.017048,-24,-114,-6,-4,3,-3,13,-98,2.192352611
18.038843,40,127,40,13,0,54,-2,63,2.192352611
18.038861,18,-17,11,20,-32,-40,-18,11,2.192352611
18.038865,-62,45,-7,-4,2,23,15,-19,2.192352611
18.038934,50,-92,-14,-21,21,-54,-7,48,2.192352611
18.053729,-95,9,2,-9,-25,30,4,-5,2.192352611
18.053743,63,98,7,-5,-2,9,43,-1,2.192352611
18.058190,-20,-80,1,-38,-34,-60,-32,18,2.192352611
18.058279,-5,-28,-42,-9,31,50,-13,31,2.192352611
18.081977,-62,11,29,16,-44,-73,23,4,2.192352611
18.082008,-23,34,-15,2,-75,34,61,-5,2.192352611
18.084754,19,-91,-12,-45,-97,-88,-9,13,2.192352611
18.084762,16,73,28,82,75,43,-23,32,2.192352611
18.097020,48,-52,1,-48,-68,3,41,42,2.192352611
18.097052,3,92,11,14,119,43,0,-42,2.192352611
18.099950,-10,45,-16,-27,-52,-34,43,60,2.192352611
18.099960,-18,4,-18,-35,54,39,-28,18,2.192352611
18.112414,56,65,14,13,17,18,-4,7,2.192352611
18.112445,-44,-30,7,-4,-52,-46,-16,-28,2.192352611
18.118482,12,-4,-2,17,19,8,-10,-45,2.192352611
18.118492,25,-36,-9,-8,-46,3,7,-13,2.192352611
18.135124,11,-41,-11,5,-17,-41,22,84,2.192352611
18.135151,15,-9,-5,-27,-29,-41,9,10,2.192352611
18.135987,-41,-52,2,25,96,44,-19,-27,2.192352611
18.136008,-78,-48,-11,-19,-40,-42,-22,-50,2.192352611
18.157014,43,-41,-9,65,95,-49,26,-23,2.192352611
18.157039,8,-49,-4,-26,-41,0,7,-38,2.192352611
18.158707,36,32,6,-15,-17,-76,-23,-12,2.192352611
18.158720,19,72,0,-2,82,42,-23,54,2.192352611
18.171780,-23,33,-4,-2,10,28,-11,-17,2.222691657
18.171822,9,29,11,-4,-24,-34,2,33,2.222691657
18.178048,13,57,8,33,30,94,-3,-70,2.222691657
18.178064,-14,-64,-11,-36,-88,-128,23,-22,2.222691657
18.194472,-5,28,-3,-13,-18,44,-21,-26,2.222691657
18.194485,20,-48,-3,31,19,23,-11,-9,2.222691657
18.196043,-9,7,5,-20,-51,37,-3,1,2.222691657
18.196063,50,31,10,2,-26,-29,-1,34,2.222691657
18.216962,-6,51,-2,21,-39,68,-12,-10,2.222691657
18.216983,5,-63,-1,-6,-47,-78,-37,5,2.222691657
18.218568,-40,-72,-24,1,-6,9,14,7,2.222691657
18.218590,-23,41,7,31,-9,-4,12,-48,2.222691657
18.231349,21,19,5,-24,10,-13,57,4,2.222691657
18.231372,51,101,-5,-1,35,78,-73,40,2.222691657
18.238817,51,-46,-5,2,-77,-81,-16,-7,2.222691657
18.238844,0,67,7,4,92,-7,9,66,2.222691657
18.254641,-39,-47,-8,-49,-67,73,-28,-28,2.222691657
18.254659,-53,10,5,10,5,10,-3,31,2.222691657
18.256202,99,54,-11,7,54,19,23,72,2.222691657
18.256410,-63,-22,2,3,-59,-36,-19,-50,2.222691657
18.277182,-34,-7,-5,-17,-18,-37,-20,-10,2.222691657
18.277207,-12,7,-1,-20,118,6,16,18,2.222691657
18.278662,-8,79,18,34,18,11,1,-4,2.222691657
18.278679,11,-20,7,60,-55,30,-38,-62,2.222691657
18.291180,52,-64,-12,7,21,-63,26,56,2.222691657
18.291197,-46,29,-15,1,-4,13,48,-42,2.222691657
18.298591,-35,2,-5,-43,-56,-4,14,-27,2.222691657
18.300464,-33,-49,-18,-43,-67,55,6,-4,2.222691657
18.314464,-35,3,4,-2,24,-87,5,-16,2.222691657
18.314495,114,66,18,44,18,98,-10,38,2.222691657
18.316460,-64,-33,-10,-10,-38,18,-13,-34,2.222691657
18.316471,-73,-20,9,-15,-23,-69,-17,-25,2.222691657
18.337202,31,70,5,27,33,22,-2,-57,2.222691657
18.337224,-10,-107,-3,-19,-57,-82,-18,41,2.222691657
18.338653,-54,-18,-8,26,82,41,2,-38,2.222691657
18.338672,43,74,7,-2,-41,-29,-3,-64,2.222691657
18.351229,18,44,4,-19,-45,93,-21,20,2.222691657
18.351239,-53,-37,-15,4,37,-72,20,-17,2.222691657
18.358176,17,26,5,19,-22,25,-31,-9,2.222691657
18.358200,64,21,-3,-21,8,-22,43,37,2.222691657
18.376545,2,-5,-13,-115,-92,-12,-24,-41,2.222691657
18.376562,29,25,18,77,53,82,46,16,2.222691657
18.376568,104,66,11,-15,-34,-36,67,42,2.222691657
18.376573,-87,-71,-4,19,13,8,2,9,2.222691657
18.396627,79,11,-17,-42,-98,8,6,-6,2.222691657
18.396638,45,-10,-11,8,37,8,-64,-10,2.222691657
18.396933,-106,11,14,-5,19,-15,21,-27,2.222691657
18.396940,91,80,11,-8,24,17,-15,54,2.222691657
18.411030,-37,-61,-3,31,71,15,24,-15,2.222691657
18.411043,-115,-76,-16,-28,-79,-40,-8,-17,2.222691657
18.418075,83,63,13,28,43,6,3,65,2.242124512
18.420388,-37,93,11,-6,-10,-17,4,-14,2.242124512
18.434060,-28,-62,-19,-3,-25,0,-5,-11,2.242124512
18.434087,12,-36,-4,-8,-34,-10,34,10,2.242124512
18.436123,-31,-40,14,-24,-94,-10,-74,2,2.242124512
18.436129,-2,102,6,33,112,30,-6,3,2.242124512
18.456421,-88,-64,-43,21,72,85,-35,-11,2.242124512
18.456442,49,127,6,-50,-69,-17,-6,6,2.242124512
18.458617,49,-10,8,50,-28,-22,61,4,2.242124512
18.458631,45,26,11,26,19,-32,-25,-1,2.242124512
18.471216,1,127,26,24,15,-40,-36,-6,2.242124512
18.471237,85,39,25,-12,82,95,32,-3,2.242124512
18.478631,-128,-127,-44,-22,-43,25,-36,-50,2.242124512
18.478663,23,35,-3,-7,35,-93,-17,-46,2.242124512
18.493840,76,101,28,31,5,11,67,109,2.242124512
18.493866,-119,-89,-38,-22,-52,-22,-10,-33,2.242124512
18.494827,74,20,1,-12,72,-41,-42,49,2.242124512
18.494848,24,-7,5,-25,-74,19,40,-6,2.242124512
18.516890,17,9,-8,-6,9,-7,-14,-4,2.242124512
18.516922,29,13,19,-30,-126,-20,8,0,2.242124512
18.519013,0,-52,-8,39,117,18,-3,-14,2.242124512
18.519026,-62,-58,-15,0,47,14,54,-14,2.242124512
18.539489,12,69,23,0,-53,82,-83,13,2.242124512
18.539503,28,55,3,38,118,-76,6,4,2.242124512
18.539553,6,-85,-19,-34,-13,45,1,-11,2.242124512
18.539588,30,-8,10,-4,-20,14,8,29,2.242124512
18.554712,5,-38,6,7,-17,10,52,-11,2.242124512
18.554724,3,127,9,1,-25,10,6,-58,2.242124512
18.554727,-2,-72,-8,-6,33,8,-6,6,2.242124512
18.554729,-23,-23,-15,-16,-61,-30,-22,-11,2.242124512
18.576192,-51,-57,-12,-1,13,-26,22,-27,2.242124512
18.576209,-7,-10,-4,-1,-64,-10,-21,-13,2.242124512
18.578347,0,65,8,-11,-14,-31,5,-18,2.242124512
18.578356,98,64,-2,-32,-52,8,-5,8,2.242124512
18.590650,0,72,-3,1,-53,-16,3,4,2.242124512
18.590670,-33,-121,7,2,-42,-26,32,15,2.242124512
18.598730,-2,-8,1,55,102,85,11,-4,2.242124512
18.598762,14,74,4,6,20,84,-42,4,2.242124512
18.614434,0,-93,-6,-8,-8,-8,33,76,2.242124512
18.614470,21,9,-1,-4,-32,-4,-21,-18,2.242124512
18.614481,-5,-29,-12,-31,-60,5,16,-8,2.242124512
18.614490,-10,-11,1,13,-16,-39,-49,-36,2.242124512
18.636356,58,66,12,-2,54,-18,10,-12,2.242124512
18.636378,95,60,16,22,49,27,-18,72,2.242124512
18.637231,-84,-18,-3,-29,-19,-66,-15,7,2.242124512
18.637252,-8,-68,-37,-19,-63,17,47,-22,2.242124512
18.651508,-34,-49,9,5,-75,20,-39,-28,2.242124512
18.651536,8,86,0,47,-13,-97,-5,-7,2.242124512
18.658038,19,8,11,-31,-109,19,25,-2,2.242124512
18.658055,-4,39,4,-38,37,-82,-75,16,2.242124512
18.673819,39,47,13,58,117,72,-5,-18,2.242814034
18.675771,-51,-10,-12,-23,0,70,3,11,2.242814034
18.675782,88,34,7,-14,-48,-72,13,-14,2.242814034
18.675784,-19,49,1,7,-32,24,20,5,2.242814034
18.705078,13,31,5,17,80,-12,-1,66,2.242814034
18.705109,12,-27,-6,-12,14,-21,-22,4,2.242814034
18.708179,7,-40,-5,1,-1,30,-15,-11,2.242814034
18.708192,1,-33,-2,8,15,9,28,-51,2.242814034
18.710634,-29,31,-3,-8,3,-32,-8,-31,2.242814034
18.710656,51,-1,-1,18,-2,-1,-1,28,2.242814034
18.735185,20,48,4,-13,42,17,0,18,2.242814034
18.737002,-66,-128,-12,13,-42,22,6,-43,2.242814034
18.737025,16,-10,2,8,-49,-17,25,36,2.242814034
18.737033,-47,13,-3,-24,58,33,-37,-23,2.242814034
18.737544,10,45,3,11,21,74,-112,-23,2.242814034
18.737551,44,53,21,13,62,12,101,42,2.242814034
18.757935,-57,-128,-38,-38,-115,16,10,-64,2.242814034
18.757946,-50,54,-4,-7,-44,-65,-9,-12,2.242814034
18.757949,52,104,12,22,47,25,-14,5,2.242814034
18.757952,-20,-30,-15,-11,-66,-59,-11,-20,2.242814034
18.770738,15,43,12,4,69,114,2,79,2.242814034
18.770761,13,30,-6,-43,-58,-5,65,-36,2.242814034
18.778531,-83,-52,-18,-13,-53,-27,-54,15,2.242814034
18.778562,8,4,10,5,-12,-3,15,-1,2.242814034
18.793885,110,-49,-15,-8,14,-34,20,-44,2.242814034
18.793916,-93,-17,-3,-4,-8,18,-24,-8,2.242814034
18.796467,27,15,6,21,13,-20,39,4,2.242814034
18.796475,10,17,-5,-13,108,18,-8,13,2.242814034
18.816936,-18,-15,9,-9,-88,-128,-40,-10,2.242814034
18.816967,8,-25,3,1,124,114,45,-38,2.242814034
18.819688,4,-76,-19,35,45,-19,14,-4,2.242814034
18.819696,-58,-67,-12,-15,-59,9,6,44,2.242814034
18.830799,-30,-14,2,0,-12,-15,-33,-27,2.242814034
18.830842,-7,3,6,-9,-70,-47,-2,10,2.242814034
18.838228,62,80,17,-6,15,105,77,32,2.242814034
18.838252,-69,88,17,12,76,-1,-36,-45,2.242814034
18.854071,17,-35,-3,-4,20,-9,7,-22,2.242814034
18.854149,37,17,-32,-15,-75,4,15,-17,2.242814034
18.856246,35,24,13,0,-23,-19,11,-9,2.242814034
18.856262,24,34,1,14,-29,3,7,93,2.242814034
18.876339,49,126,31,48,72,0,11,-9,2.242814034
18.876357,-81,-94,-10,3,51,5,3,-62,2.242814034
18.878677,-31,-8,-11,-46,-128,-46,-15,16,2.242814034
18.878692,82,72,13,31,64,-74,18,-17,2.242814034
18.890657,-17,-67,-7,15,91,82,39,3,2.242814034
18.890682,-10,-93,-15,7,-37,31,-34,20,2.242814034
18.899604,-43,74,0,6,17,-1,22,-11,2.242814034
18.899612,8,36,-5,-47,-128,-46,-92,3,2.242814034
18.915604,-45,-73,-15,-2,71,30,-25,-20,2.242814034
18.915617,11,-35,0,52,-11,-62,-28,-28,2.242814034
18.915622,-12,17,2,2,-26,-7,17,95,2.242814034
18.915628,19,-52,-6,-18,-45,17,0,-24,2.242814034
18.936644,15,67,2,-13,-38,-19,-4,26,2.248208548
18.936679,69,0,19,-9,-34,17,-3,73,2.248208548
18.937441,-74,-24,-11,-29,24,-30,-20,-57,2.248208548
18.937461,-57,-115,-15,20,18,12,-4,-1,2.248208548
18.958717,-12,87,-2,-54,-50,-58,-7,-9,2.248208548
18.958735,61,-12,-1,44,58,42,-66,15,2.248208548
18.960916,-18,-26,0,13,89,48,56,-51,2.248208548
18.960925,21,20,9,38,-11,-15,-19,62,2.248208548
18.973979,17,34,15,-6,0,100,-27,-14,2.248208548
18.974053,32,76,16,-21,-7,-90,14,-22,2.248208548
18.976123,-68,59,-12,-13,-47,-73,-29,-14,2.248208548
18.976133,0,-36,-13,-3,-23,0,33,-13,2.248208548
18.996717,-6,62,-18,-39,-73,-27,4,41,2.248208548
18.996740,10,44,6,1,40,8,-33,-23,2.248208548
18.997311,48,72,4,17,14,9,19,28,2.248208548
18.997389,-4,-74,4,-2,1,25,19,14,2.248208548
19.019120,6,22,-12,-55,-68,-72,9,-7,2.248208548
19.019151,-79,1,-1,35,57,50,-46,17,2.248208548
19.021855,90,-48,-4,41,6,-7,13,-50,2.248208548
19.021868,-45,17,0,-5,53,26,-12,-9,2.248208548
19.034146,11,-44,3,25,28,-12,28,-4,2.248208548
19.034177,16,56,9,-24,84,85,56,23,2.248208548
19.041380,-14,54,-2,-32,-82,-31,-4,-14,2.248208548
19.041429,33,-72,-16,-28,-42,11,-23,-44,2.248208548
19.057899,-53,63,0,15,-7,-2,-9,28,2.248208548
19.057910,-32,-79,-20,-33,-83,-80,2,-10,2.248208548
19.057913,48,26,12,26,34,34,-8,33,2.248208548
19.057915,-10,66,8,-4,24,30,14,70,2.248208548
19.079581,-44,-64,-1,12,33,-26,-10,-22,2.248208548
19.079623,28,27,-9,-43,-90,-11,7,9,2.248208548
19.082707,41,-37,-2,6,-42,-26,-19,-23,2.248208548
19.082715,-44,-10,15,0,50,9,17,-3,2.248208548
19.093803,-49,-122,-23,25,8,82,5,-62,2.248208548
19.093820,-33,83,6,31,-12,-94,-36,22,2.248208548
19.095572,12,7,-3,-30,-61,119,12,-43,2.248208548
19.095593,60,57,0,-9,-90,-70,8,-74,2.248208548
19.116654,25,66,9,-12,-1,10,-23,49,2.248208548
19.116685,-40,-112,1,1,25,25,45,-12,2.248208548
19.119279,-61,-52,-10,2,10,-53,-57,9,2.248208548
19.119288,-5,-15,-17,-10,-30,9,-2,-9,2.248208548
19.138992,13,-24,-2,-5,-23,-73,-21,-24,2.248208548
19.139012,33,127,9,12,-76,65,-7,-12,2.248208548
19.139552,-16,-63,9,-29,-69,-15,24,88,2.248208548
19.139567,55,42,-5,-3,63,19,-2,11,2.248208548
19.154146,43,-25,-9,-5,-21,32,40,-17,2.248208548
19.154170,30,40,5,16,-46,-1,23,-34,2.248208548
19.157069,-6,-13,5,-39,32,7,-65,-24,2.248208548
19.157081,-4,63,-7,10,109,2,-3,-14,2.248208548
19.176800,-15,-39,6,43,56,36,12,1,2.248208548
19.176831,32,-3,-4,-15,13,39,42,9,2.248208548
19.179217,42,-39,-10,-1,11,-17,-1,10,2.248208548
19.179226,13,-42,-16,-25,-94,-67,-34,15,2.248208548
19.198531,64,99,13,14,49,23,29,-19,2.235319408
19.198556,-63,43,-9,-1,10,-20,1,27,2.235319408
19.206560,-73,-92,-27,-26,-5,24,4,-51,2.235319408
19.206580,67,76,10,28,93,-69,-22,-4,2.235319408
19.213749,10,40,13,13,-69,-4,-20,-38,2.235319408
19.213766,36,-4,16,22,86,19,-3,53,2.235319408
19.214416,-49,-17,-13,26,-18,-79,55,17,2.235319408
19.215312,-64,-23,0,-19,-43,78,41,13,2.235319408
19.236317,-22,48,3,-13,-95,-23,0,1,2.235319408
19.236348,-15,-26,-4,-44,25,-38,-5,-3,2.235319408
19.239170,12,-2,18,51,54,75,23,5,2.235319408
19.239184,-24,-35,-5,-5,8,26,-20,-20,2.235319408
19.267484,-35,56,-4,-2,-60,55,35,2,2.235319408
19.267515,28,3,0,-5,4,-96,-20,-12,2.235319408
19.269711,2,-34,0,0,-4,-20,-4,34,2.235319408
19.269718,62,10,6,-5,-40,38,5,36,2.235319408
19.273734,-66,6,-3,-14,19,-50,-26,-11,2.235319408
19.273755,20,1,-12,-23,-52,29,-8,-35,2.235319408
19.274667,35,26,9,19,94,-8,-37,-41,2.235319408
19.274676,-63,-6,0,45,81,38,4,15,2.235319408
19.296964,-45,-128,-15,10,-35,-65,-24,25,2.235319408
19.296995,10,11,-21,-12,-37,47,84,15,2.235319408
19.299737,20,97,-1,-20,-70,-14,-33,-27,2.235319408
19.299743,2,93,7,-29,-7,103,34,-70,2.235319408
19.321407,15,-18,-8,-3,28,-79,-56,28,2.235319408
19.321420,-34,-105,3,-4,32,72,48,4,2.235319408
19.321422,-9,38,-2,1,6,-16,-39,-35,2.235319408
19.321425,26,52,24,38,-5,-17,56,13,2.235319408
19.334111,33,16,-27,-43,-51,9,-13,-21,2.235319408
19.334138,-80,-105,-17,-5,-21,-66,-22,-51,2.235319408
19.336097,126,127,22,-17,-37,-4,-16,22,2.235319408
19.336110,-79,-128,7,-6,-41,-73,-25,15,2.235319408
19.356436,34,15,-12,0,11,42,-15,-29,2.235319408
19.356463,0,46,2,-2,-14,12,2,23,2.235319408
19.357137,3,21,11,10,25,23,19,-9,2.235319408
19.357160,-47,-12,2,10,-41,-18,-11,8,2.235319408
19.379068,-13,3,-35,-46,-40,-8,24,-25,2.235319408
19.379098,94,105,46,53,17,60,-3,40,2.235319408
19.381361,-114,-102,-24,32,83,-97,-8,-43,2.235319408
19.381369,49,127,16,-29,-5,44,21,-3,2.235319408
19.393687,31,85,29,-1,-34,88,76,42,2.235319408
19.393718,4,16,-11,73,93,-73,-10,-41,2.235319408
19.401680,21,-6,19,0,-8,32,37,89,2.235319408
19.401706,10,-47,-14,-23,-72,-62,-49,93,2.235319408
19.416236,-63,-54,-2,1,4,-3,-16,-54,2.235319408
19.416243,29,29,-2,-47,-68,-17,-25,3,2.235319408
19.416965,18,92,25,3,-13,20,1,3,2.235319408
19.416985,9,-128,-68,-26,2,-31,-19,-28,2.235319408
19.439222,-4,40,6,2,31,-22,-11,-27,2.235319408
19.439257,-7,55,16,-4,-39,5,-18,15,2.235319408
19.441675,71,98,6,-33,-113,-4,-4,11,2.209189611
19.441689,-82,-69,-35,-29,-2,41,8,-100,2.209189611
19.453954,124,127,48,93,127,0,-39,44,2.209189611
19.453984,1,-128,-22,29,-37,58,10,-76,2.209189611
19.457368,83,110,17,-26,-46,-48,6,47,2.209189611
19.457383,-53,-53,-14,43,50,74,0,-54,2.209189611
19.476033,24,17,-13,-10,-39,25,-8,-61,2.209189611
19.476050,-8,44,-1,-13,37,-1,3,-10,2.209189611
19.483935,59,65,-4,10,-40,-6,-1,-27,2.209189611
19.483957,56,14,16,-4,-10,22,-44,29,2.209189611
19.499379,-82,7,9,-9,-25,-43,17,-9,2.209189611
19.499425,-2,-20,-24,8,62,-2,-34,30,2.209189611
19.502102,-33,52,-6,-59,-88,12,53,4,2.209189611
19.502117,18,7,16,77,63,43,-35,-27,2.209189611
19.513791,-27,-31,10,30,119,43,24,-16,2.209189611
19.513822,46,35,9,-3,-88,-37,-8,13,2.209189611
19.516412,-69,-125,-12,13,15,15,-28,39,2.209189611
19.516420,35,31,7,-23,64,38,32,-1,2.209189611
19.536966,-23,-3,23,7,-49,-60,-22,29,2.209189611
19.536976,-52,-12,-15,-28,-2,102,47,-12,2.209189611
19.536979,-14,-56,-30,-12,66,-53,-68,-34,2.209189611
19.537008,37,0,8,-22,-83,-30,-5,41,2.209189611
19.559323,80,30,8,9,81,58,24,59,2.209189611
19.559344,-32,35,8,-40,-22,-86,-52,-50,2.209189611
19.560865,-27,66,-8,-8,-11,32,6,-55,2.209189611
19.560881,-51,20,-5,20,73,0,44,52,2.209189611
19.573189,74,53,-9,-66,-128,7,-55,-37,2.209189611
19.573211,105,56,29,105,127,6,59,62,2.209189611
19.581371,-77,-59,-11,12,72,93,34,-10,2.209189611
19.581398,14,59,5,-22,-78,-106,-90,-73,2.209189611
19.596698,-24,19,-8,-33,-78,4,60,66,2.209189611
19.596750,-9,37,1,-8,-26,2,-24,-41,2.209189611
19.599138,45,-53,4,19,-2,-15,-6,-9,2.209189611
19.599147,-28,39,0,-18,-20,5,15,-27,2.209189611
19.618715,2,78,13,11,8,-53,13,-18,2.209189611
19.618752,-39,-82,-22,-48,-63,-15,-25,6,2.209189611
19.619418,5,75,-11,21,72,-20,-8,-7,2.209189611
19.619438,-60,-36,7,-24,-73,-20,17,19,2.209189611
19.633128,-31,-114,-36,5,19,14,-36,-40,2.209189611
19.633151,-7,35,12,19,13,-13,19,16,2.209189611
19.641493,11,-53,10,-32,-95,40,-41,14,2.209189611
19.641511,33,120,16,29,-16,-78,14,-43,2.209189611
19.656481,-14,-125,-11,23,97,55,19,25,2.209189611
19.656508,-32,-41,-14,-46,6,3,-22,1,2.209189611
19.658348,-30,-80,-30,-26,-71,7,12,0,2.209189611
19.658357,21,46,-8,-2,81,19,-11,-73,2.209189611
19.679193,-17,-6,-6,-9,12,-44,-15,6,2.209189611
19.679228,-50,41,9,6,-40,-7,-13,-46,2.209189611
19.679848,39,19,4,1,6,-25,26,-50,2.209189611
19.679882,-4,-10,5,1,-13,-29,9,-10,2.209189611
19.693160,5,-66,-9,6,-33,85,-42,12,2.209189611
19.693185,-3,15,-5,-28,7,-52,50,32,2.209189611
19.701418,-24,21,3,38,-7,-35,-57,-15,2.217842457
19.701434,88,103,17,-3,-84,32,23,21,2.217842457
19.716558,-93,-93,-36,-29,70,-70,-19,-62,2.217842457
19.716589,41,6,-2,48,32,14,-6,67,2.217842457
19.718598,-83,-71,2,-5,-44,18,9,18,2.217842457
19.718606,37,74,9,3,96,36,16,37,2.217842457
19.740384,61,-24,12,22,7,12,26,37,2.217842457
19.740397,-73,-70,-5,-27,-8,29,-5,50,2.217842457
19.740399,-60,-17,-5,22,76,-22,18,-28,2.217842457
19.740402,51,-48,-23,-9,-106,1,2,83,2.217842457
19.753776,81,59,21,-7,30,-8,19,71,2.217842457
19.756042,-64,7,-7,-47,-73,-97,5,-40,2.217842457
19.761673,43,19,13,88,127,111,-2,28,2.217842457
19.761704,-6,43,-8,-18,-18,-1,-49,-47,2.217842457
19.776300,8,-7,18,18,21,-2,24,28,2.217842457
19.776331,61,-56,-19,13,-90,-46,-62,-1,2.217842457
19.777187,15,0,1,8,85,-11,36,55,2.217842457
19.777207,-8,24,0,4,1,23,5,-5,2.217842457
19.799443,-6,91,7,3,42,10,55,-6,2.217842457
19.799474,-31,24,21,-30,-58,-12,-33,51,2.217842457
19.802361,16,-58,-14,8,27,10,10,-7,2.217842457
19.802370,-21,-85,-11,13,108,-27,-7,11,2.217842457
19.822072,-3,18,5,-24,-128,-9,-12,1,2.217842457
19.822103,13,-42,1,37,127,89,3,-11,2.217842457
19.822848,23,45,7,-41,-84,-75,43,-47,2.217842457
19.822887,7,-1,-4,-16,-32,-42,-13,3,2.217842457
19.836476,-12,-56,-15,35,103,-14,-49,6,2.217842457
19.836483,73,120,25,-11,-58,65,65,-24,2.217842457
19.836837,-43,-92,-22,16,35,-60,-42,-46,2.217842457
19.836844,14,-22,5,-15,-44,57,33,20,2.217842457
19.858802,-30,31,0,-2,31,-71,14,-20,2.217842457
19.858819,23,-31,-8,-9,-46,-31,-84,20,2.217842457
19.860271,79,114,49,17,-32,31,16,3,2.217842457
19.860277,8,-128,-43,25,87,20,-8,19,2.217842457
19.873329,-77,64,-10,0,-53,-16,-11,-13,2.217842457
19.873353,-59,26,-1,13,55,13,34,-5,2.217842457
19.881253,19,95,27,-1,-61,-34,-61,112,2.217842457
19.881288,-26,-89,-12,-17,100,119,38,-67,2.217842457
19.896632,26,43,-1,-19,-67,26,-37,21,2.217842457
19.896664,21,3,-16,-11,29,-8,14,-27,2.217842457
19.899030,-34,63,-7,-30,-38,48,-40,-13,2.217842457
19.899037,51,50,25,20,5,-22,43,40,2.217842457
19.919571,-87,-108,-29,-17,-41,-58,-52,-12,2.217842457
19.919595,-1,15,-5,-16,86,-29,-20,-29,2.217842457
19.919851,57,4,-1,-30,-80,122,35,21,2.217842457
19.919868,-53,-60,1,41,32,-54,-6,8,2.217842457
19.942017,56,90,32,22,-4,3,18,8,2.217842457
19.944101,-56,-78,-20,-35,-26,81,11,-39,2.217842457
19.944111,-23,-128,-8,35,121,-89,-22,17,2.217842457
19.944114,-64,44,12,-40,-58,65,-8,-67,2.217842457
19.956396,85,46,11,16,-67,-48,30,55,2.217729790
19.956415,14,3,-8,6,22,39,-30,-10,2.217729790
19.958267,28,52,18,-11,80,33,29,61,2.217729790
19.958285,-37,-73,-37,-26,-72,-30,5,-9,2.217729790
19.979063,-34,-29,-2,-15,-17,-2,-22,-66,2.217729790
19.979107,73,109,13,4,-2,5,-1,43,2.217729790
19.979744,-5,37,-6,-10,-41,-50,29,-30,2.217729790
19.979765,-9,30,7,0,-68,43,1,20,2.217729790
20.002355,-16,-62,-17,-31,-15,79,24,-1,2.217729790
20.002387,-43,-44,-12,27,-39,-114,-25,-6,2.217729790
20.005459,3,-4,-4,23,97,8,-43,-9,2.217729790
20.005471,0,40,27,5,3,-67,28,24,2.217729790
20.017124,4,50,-8,-21,-72,77,5,48,2.217729790
20.017167,25,-128,10,47,114,12,-43,-18,2.217729790
