timestamp,emg1,emg2,emg3,emg4,emg5,emg6,emg7,emg8,label
10.007904,-91,-34,-7,10,41,16,23,-40,1.943263254
10.022118,-6,91,14,-8,6,29,-6,-22,1.943263254
10.022135,20,-64,-9,18,19,36,63,3,1.943263254
10.023920,-5,10,-4,-16,3,-74,-22,-1,1.943263254
10.023934,38,111,6,-10,-86,-20,-6,23,1.943263254
10.044590,11,58,-13,-28,44,19,44,-16,1.943263254
10.044605,-92,-30,10,60,-6,27,-36,12,1.943263254
10.046235,17,-63,-11,-25,33,7,47,26,1.943263254
10.046302,33,40,11,19,-8,-27,2,8,1.943263254
10.059706,-4,-14,-2,-18,-33,39,66,9,1.943263254
10.059718,39,92,6,32,60,-61,-76,-35,1.943263254
10.073192,-9,-53,-7,-12,-53,26,-23,-5,1.943263254
10.074882,-33,-4,5,-21,-13,0,-8,4,1.943263254
10.082442,-10,-45,-11,11,-23,4,-41,-40,1.943263254
10.082466,-13,0,-1,-25,-4,-12,14,19,1.943263254
10.084449,6,-33,-10,2,3,12,16,13,1.943263254
10.084462,43,-28,4,-7,-21,0,7,6,1.943263254
10.104577,-26,5,5,15,15,-20,10,-7,1.943263254
10.104601,26,62,-11,-29,-32,26,-16,7,1.943263254
10.106189,-16,-52,-9,-36,-5,-5,-7,0,1.943263254
10.106210,43,37,19,68,26,-18,27,13,1.943263254
10.118768,11,16,5,20,49,116,0,8,1.943263254
10.118802,-20,-87,-11,-6,-1,-113,-5,-17,1.943263254
10.129787,58,101,14,11,-33,30,-26,18,1.943263254
10.129799,-73,-44,-4,-8,22,-38,10,-31,1.943263254
10.142431,-17,-94,-36,-7,6,-12,-67,-25,1.943263254
10.142456,16,87,12,-8,-7,46,41,34,1.943263254
10.143705,61,64,21,4,-74,5,-34,67,1.943263254
10.143725,4,-3,-6,-5,-9,-2,-40,-9,1.943263254
10.164784,33,-34,-21,-15,-29,-25,0,-25,1.943263254
10.164811,12,76,9,-3,5,-10,14,8,1.943263254
10.167893,-41,-33,-9,-4,-1,-11,-2,-35,1.943263254
10.167903,9,19,-1,-18,-7,24,9,16,1.943263254
10.178517,10,95,20,8,-9,-6,17,-8,1.943263254
10.178558,-15,-100,-4,25,32,14,-21,-6,1.943263254
10.189702,-4,-2,-6,19,127,-33,-11,-9,1.943263254
10.189712,-14,-4,-6,-3,45,49,57,14,1.943263254
10.201993,-11,-20,-10,-47,-81,-83,63,16,1.943263254
10.202006,-8,9,12,37,84,41,29,1,1.943263254
10.203632,-55,-26,-4,-19,-102,-55,14,-14,1.943263254
10.203654,54,-25,-5,-16,-61,19,-41,-5,1.943263254
10.226658,-4,119,22,-20,35,-38,-6,-51,1.943263254
10.226682,-7,-68,-23,9,58,19,44,84,1.943263254
10.227735,20,75,10,16,-18,8,-1,-11,1.943263254
10.227749,-21,99,-14,-25,4,-19,-2,25,1.943263254
10.238332,1,-34,22,22,-27,8,-13,25,1.942483595
10.238358,83,75,-8,-18,-78,-60,-42,-48,1.942483595
10.247240,-12,27,-6,-24,65,54,27,-1,1.942483595
10.247263,5,21,2,11,49,-4,-36,41,1.942483595
10.262471,36,-45,8,49,27,52,31,38,1.942483595
10.262490,-45,-5,-12,-37,18,-1,-9,-3,1.942483595
10.268329,17,-40,3,36,-77,75,15,6,1.942483595
10.268352,19,12,-6,-35,78,-45,21,-28,1.942483595
10.284740,0,-14,-3,14,11,6,-27,-9,1.942483595
10.284767,-40,77,7,-11,-22,22,27,20,1.942483595
10.286145,-42,-1,2,-13,9,-61,-58,-25,1.942483595
10.286167,27,-3,-7,-18,-75,42,-11,-28,1.942483595
10.298505,-72,-100,-19,13,27,-5,-30,1,1.942483595
10.298526,56,4,9,4,-47,-25,-2,1,1.942483595
10.308611,-82,0,3,-8,3,-4,8,-4,1.942483595
10.308621,30,-55,-5,12,-4,24,21,34,1.942483595
10.322076,-42,75,5,-3,69,-15,-30,5,1.942483595
10.322095,94,112,12,-7,-17,-21,19,-11,1.942483595
10.324500,-68,-128,-13,41,57,69,-19,14,1.942483595
10.324511,-18,20,-5,-10,-48,-80,43,-47,1.942483595
10.343844,33,0,8,17,87,126,-5,44,1.942483595
10.343892,-67,-27,12,-29,-49,-90,-33,-23,1.942483595
10.354314,16,-19,-20,7,-26,-7,27,-15,1.942483595
10.354327,-52,28,0,12,88,43,18,42,1.942483595
10.358342,3,22,3,0,-29,-17,9,-10,1.942483595
10.358428,56,-111,-9,-4,-33,-29,14,39,1.942483595
10.368418,40,65,5,-21,-17,-23,-15,-14,1.942483595
10.368436,-38,77,11,17,5,15,-34,-71,1.942483595
10.382282,9,-45,2,8,-28,-44,27,41,1.942483595
10.382313,-64,17,-5,-6,-12,17,12,-21,1.942483595
10.385158,-6,-61,-4,-23,-28,-23,2,-14,1.942483595
10.385168,3,1,-15,2,-16,10,-22,-64,1.942483595
10.404600,36,49,-1,-18,26,-20,1,-3,1.942483595
10.404617,-17,32,3,-21,-110,22,-5,7,1.942483595
10.406093,-3,82,3,37,89,-6,41,16,1.942483595
10.406103,-4,-45,-22,-35,-73,39,-48,1,1.942483595
10.427172,-38,14,-8,48,12,-8,-29,-11,1.942483595
10.427186,8,-37,4,10,95,59,31,9,1.942483595
10.429057,77,72,25,-4,-110,-38,-40,84,1.942483595
10.429071,52,-9,0,-6,-41,54,87,36,1.942483595
10.451665,9,12,-9,-39,-50,12,12,-41,1.942483595
10.451676,-101,8,-1,38,78,27,-19,-80,1.942483595
10.451992,23,-21,-2,-6,28,-6,29,2,1.942483595
10.451996,-32,-2,11,-5,-96,-50,-23,26,1.942483595
10.466772,61,-18,-13,-22,-62,-21,-27,100,1.942483595
10.466780,28,-20,3,5,27,11,7,-15,1.942483595
10.466783,3,5,-12,-25,-16,7,4,-4,1.942483595
10.466785,-1,-125,-5,-15,48,-24,-40,-6,1.942483595
10.487158,5,26,15,27,71,76,43,18,1.942483595
10.487181,14,24,12,23,-49,-85,-12,30,1.942483595
10.488820,-30,-67,-21,-35,53,31,30,-15,1.935957906
10.488832,33,-14,5,19,-53,-21,-74,-1,1.935957906
10.502577,14,4,-2,1,35,-27,15,-29,1.935957906
10.502605,57,3,-4,-8,19,43,4,8,1.935957906
10.504860,-14,-30,-2,17,33,62,16,-36,1.935957906
10.504873,-15,15,9,7,64,-65,-9,11,1.935957906
10.524856,-23,-6,-8,-12,-95,1,42,-49,1.935957906
10.524887,-67,10,8,5,-64,-47,-37,-16,1.935957906
10.527762,16,-11,-8,-25,8,20,-8,2,1.935957906
10.527772,-5,72,12,5,43,30,15,65,1.935957906
10.547330,-27,-18,7,14,-1,-59,-55,10,1.935957906
10.547391,10,-100,-24,-37,58,16,22,-31,1.935957906
10.548519,27,94,23,39,6,17,-23,78,1.935957906
10.548541,7,-97,-5,-9,-106,-16,-1,-24,1.935957906
10.562102,-18,-54,-3,2,56,65,13,-8,1.935957906
10.562154,1,105,5,-11,-34,17,-16,22,1.935957906
10.563566,36,-54,-14,-31,2,-109,-30,-11,1.935957906
10.563584,30,19,2,48,84,38,47,19,1.935957906
10.584723,-60,-37,-14,-38,-63,-49,-39,-20,1.935957906
10.584755,22,0,9,45,2,41,-58,-8,1.935957906
10.587816,-3,94,2,-32,-78,-76,-26,-14,1.935957906
10.587828,-32,-52,-5,5,-55,79,-3,-13,1.935957906
10.607067,-9,42,-2,-14,-5,-116,-8,-61,1.935957906
10.607108,15,-10,-9,-11,3,-28,24,90,1.935957906
10.608635,7,-38,2,13,23,70,33,18,1.935957906
10.608655,-35,27,5,-11,0,-2,9,-62,1.935957906
10.629699,29,47,1,10,7,25,-7,-4,1.935957906
10.629722,-34,-102,-24,-14,-25,-12,-10,-30,1.935957906
10.631619,6,37,7,13,-9,26,23,-8,1.935957906
10.631627,-68,-63,-11,0,27,-20,7,11,1.935957906
10.644885,59,33,7,1,-17,30,3,-2,1.935957906
10.646809,-5,-28,11,-17,-89,-27,13,10,1.935957906
10.646823,-88,-100,-9,7,81,72,1,-55,1.935957906
10.646829,-54,-5,-7,27,21,-24,-26,-30,1.935957906
10.667706,35,7,8,-19,-92,37,0,18,1.935957906
10.667713,-85,66,-1,20,37,14,8,1,1.935957906
10.668790,58,-1,-5,-4,2,-15,58,2,1.935957906
10.668802,35,73,-5,-33,39,-35,-60,21,1.935957906
10.683144,11,8,1,4,3,-46,34,5,1.935957906
10.683152,-15,-19,3,-11,-5,26,-5,-20,1.935957906
10.690874,22,23,-7,-22,-125,-31,-19,-28,1.935957906
10.690889,-37,56,12,26,115,8,75,53,1.935957906
10.704788,-8,-110,-18,-14,-102,50,-8,-25,1.935957906
10.704811,26,81,7,9,29,-40,4,44,1.935957906
10.706086,28,65,7,6,11,-34,-41,-13,1.935957906
10.706095,-15,-89,-2,-22,-52,5,22,-14,1.935957906
10.727737,12,22,5,5,53,18,2,24,1.935957906
10.727770,-15,11,4,25,45,-15,-24,-41,1.935957906
10.730149,-89,-66,-29,-52,4,13,23,0,1.935957906
10.730155,51,62,-4,-2,-59,41,-8,-24,1.935957906
10.742070,-10,-86,7,8,122,-1,-16,-2,1.935957906
10.742101,27,-14,-2,2,6,26,57,-24,1.935957906
10.748738,4,30,0,-3,42,-88,-32,12,1.924853417
10.748763,8,-17,-7,31,22,12,-40,-33,1.924853417
10.764879,24,19,5,5,-58,-64,-39,50,1.924853417
10.764900,-28,79,8,-8,-49,-8,11,3,1.924853417
10.766060,-5,-60,-21,-10,-1,36,12,6,1.924853417
10.766080,-5,-87,-11,-20,-33,-4,19,11,1.924853417
10.787169,41,114,18,24,38,-11,-41,5,1.924853417
10.787193,32,-56,-3,10,46,35,12,41,1.924853417
10.789400,-37,-36,7,5,-27,-7,-55,-27,1.924853417
10.789412,30,109,9,-17,-19,-35,28,69,1.924853417
10.802511,-25,-45,-13,11,64,24,14,2,1.924853417
10.802530,31,-7,-2,-10,51,-2,1,-18,1.924853417
10.808720,41,5,-1,-1,-29,-14,1,14,1.924853417
10.808740,4,26,-2,-17,22,65,-17,-41,1.924853417
10.824472,-7,-12,2,27,-15,5,34,-31,1.924853417
10.824509,-16,-41,-12,-14,-67,60,-22,19,1.924853417
10.825993,13,76,13,-3,-66,-25,36,-11,1.924853417
10.826000,-4,-104,-19,-14,18,7,-10,-25,1.924853417
10.847557,-31,13,-10,-24,-2,5,-6,-6,1.924853417
10.847591,-2,11,2,12,-15,-51,-39,-16,1.924853417
10.849709,14,-14,5,18,39,44,70,15,1.924853417
10.849717,41,81,0,-32,-98,-31,-47,27,1.924853417
10.861404,47,75,1,7,17,9,13,6,1.924853417
10.861429,-56,-116,-29,-35,58,-17,11,-78,1.924853417
10.870819,-31,50,17,24,-12,39,-34,91,1.924853417
10.870832,41,-46,-6,21,59,-11,9,-6,1.924853417
10.886434,-70,-31,0,-11,13,69,-9,-26,1.924853417
10.886448,44,89,2,-9,-88,-75,5,-3,1.924853417
10.886452,-1,-106,-3,-1,54,57,-56,-28,1.924853417
10.886454,-25,29,6,2,18,-45,18,-10,1.924853417
10.907625,-58,-102,-11,-3,-58,-3,-3,-6,1.924853417
10.908947,44,41,-3,-32,-80,-13,25,8,1.924853417
10.909351,-41,-28,-5,22,51,-4,-20,-33,1.924853417
10.909365,72,64,11,-12,-100,-31,47,55,1.924853417
10.921423,-7,-99,-12,-22,67,18,14,-15,1.924853417
10.921447,-47,49,3,28,-36,7,-82,-64,1.924853417
10.928292,28,54,11,4,-20,-13,56,-3,1.924853417
10.928315,-15,-63,-2,14,43,-7,-32,-23,1.924853417
10.947654,34,94,8,-37,-35,-53,33,10,1.924853417
10.947665,-10,-26,1,23,71,43,13,6,1.924853417
10.947754,-31,37,-3,9,30,52,-15,-25,1.924853417
10.947757,15,-31,2,-6,-32,-69,11,-25,1.924853417
10.967642,24,32,-2,-3,-24,20,1,52,1.924853417
10.967656,11,-13,-8,6,37,10,1,34,1.924853417
10.969046,-15,-50,-4,-5,-57,-16,28,6,1.924853417
10.969064,27,118,16,9,30,26,-4,32,1.924853417
10.980989,35,-56,-16,-15,-58,-14,-22,-16,1.924853417
10.981008,-7,-8,4,-43,-97,8,11,17,1.924853417
10.992055,18,41,4,58,64,59,-36,-46,1.924853417
10.992063,-16,-8,11,-6,-38,-12,3,40,1.924853417
11.004746,-62,15,0,6,-49,63,-15,-14,1.915511043
11.004771,-11,65,-1,16,22,-38,-38,-8,1.915511043
11.007044,-32,-116,-24,-25,20,38,-34,-61,1.915511043
11.007053,-15,5,-4,10,14,38,52,-8,1.915511043
11.027038,-6,31,2,9,33,17,-27,-19,1.915511043
11.027048,3,-56,3,-17,36,-16,12,52,1.915511043
11.028495,14,-21,-4,-22,-68,-47,-7,45,1.915511043
11.028529,-85,-76,-3,22,16,26,-40,-42,1.915511043
11.049907,-14,-3,-8,-18,-63,-34,4,-42,1.915511043
11.049930,50,-2,4,4,17,25,21,5,1.915511043
11.051296,81,63,8,-2,-1,-48,0,16,1.915511043
11.051309,-5,12,-4,-50,-74,-23,-18,-9,1.915511043
11.065082,-13,-28,0,35,119,35,18,-27,1.915511043
11.065106,-13,80,11,53,113,-64,40,47,1.915511043
11.066465,-21,-51,-2,-23,-66,86,34,3,1.915511043
11.066478,21,-18,-6,14,-5,62,-5,-7,1.915511043
11.088281,16,47,7,6,-27,-51,-1,15,1.915511043
11.088294,-10,-21,-3,-12,-15,-39,19,-26,1.915511043
11.088609,-23,123,7,-5,-46,-20,-8,-2,1.915511043
11.088617,58,58,7,1,38,4,25,52,1.915511043
11.103571,8,-19,-8,-7,-73,-26,-20,28,1.915511043
11.103584,39,-47,-10,-6,-12,52,9,-24,1.915511043
11.111237,21,23,-10,-19,-33,-72,-17,-24,1.915511043
11.111246,-1,3,-1,17,31,5,-23,-2,1.915511043
11.124823,-8,70,3,-16,-53,-4,17,10,1.915511043
11.124852,13,-53,-1,-9,-46,-31,-25,33,1.915511043
11.127580,0,25,13,45,94,-20,-4,28,1.915511043
11.127586,-48,-51,-10,-31,65,32,7,-87,1.915511043
11.147416,-11,-31,0,54,93,-50,75,18,1.915511043
11.147451,-7,-26,6,11,3,103,-72,-3,1.915511043
11.150108,-20,-69,-2,-14,-52,-21,-17,2,1.915511043
11.150120,-6,-42,-8,1,-9,17,34,-17,1.915511043
11.160733,35,108,-1,-37,-82,-69,-64,-12,1.915511043
11.160756,-90,26,-7,-21,-28,14,46,-31,1.915511043
11.185583,11,-34,-1,3,16,-29,-50,-2,1.915511043
11.185611,-15,58,6,7,-11,-10,-10,-31,1.915511043
11.187868,37,-6,5,-18,-47,30,-39,-3,1.915511043
11.187888,36,-9,6,50,27,5,45,-41,1.915511043
11.187894,70,92,4,9,27,-27,-8,15,1.915511043
11.187899,-4,-5,-4,26,45,8,38,-31,1.915511043
11.207125,19,-14,-1,6,59,-1,-30,19,1.915511043
11.207142,-8,-24,-4,-10,6,-11,0,-20,1.915511043
11.209225,52,60,8,-4,-6,-25,40,52,1.915511043
11.209236,29,-35,-8,-8,-15,16,-43,-3,1.915511043
11.220947,-86,-35,-3,-3,37,-11,23,-40,1.915511043
11.220965,72,59,14,4,1,23,29,41,1.915511043
11.231777,-60,-37,-15,-17,0,68,-50,-64,1.915511043
11.231787,-44,-40,5,1,5,-109,39,47,1.915511043
11.244491,11,-62,-20,-24,18,5,-12,-12,1.915511043
11.244526,-12,24,10,12,-20,34,-14,-18,1.915511043
11.246031,-1,4,3,2,-15,-4,31,13,1.915511043
11.246065,-10,10,4,12,-6,12,-21,7,1.915511043
11.267211,17,-5,5,12,-54,4,34,-5,1.908787061
11.267231,-26,10,-18,-37,-42,-56,-53,-8,1.908787061
11.269465,-66,25,11,14,48,0,37,-14,1.908787061
11.269481,12,-17,-10,-16,-26,6,-29,-7,1.908787061
11.280953,26,-45,7,11,32,43,28,-20,1.908787061
11.280983,-2,10,-16,-35,-61,-31,-17,-18,1.908787061
11.290333,3,72,4,1,45,-29,-37,23,1.908787061
11.290340,-100,-92,-12,-28,-96,76,20,-79,1.908787061
11.306442,100,127,17,15,-67,57,18,56,1.908787061
11.306450,37,-8,9,49,38,-19,23,19,1.908787061
11.306453,7,0,-14,-36,-92,-30,-13,-41,1.908787061
11.306456,20,22,6,2,68,-34,-43,29,1.908787061
11.327650,53,51,7,-6,32,12,28,25,1.908787061
11.327663,-84,-61,-16,-24,-37,-10,-20,-75,1.908787061
11.329719,-30,-19,3,-12,-27,-28,46,59,1.908787061
11.329728,19,68,-2,10,-18,-50,-6,-40,1.908787061
11.340773,-49,-25,-8,-10,-12,23,-35,14,1.908787061
11.340822,55,75,14,-5,45,-19,-4,25,1.908787061
11.353480,-41,-69,-6,15,-21,-2,4,-47,1.908787061
11.353493,-30,-21,-3,-21,-2,-59,-18,-1,1.908787061
11.365331,12,-5,-5,-13,-17,64,-59,-23,1.908787061
11.365358,5,-13,4,57,89,93,83,75,1.908787061
11.367645,41,-60,2,-18,-77,14,-38,-4,1.908787061
11.367656,24,28,-6,10,103,16,26,55,1.908787061
11.387235,-72,-11,-3,-9,-87,-57,-13,-4,1.908787061
11.387332,2,58,1,-12,96,54,10,-37,1.908787061
11.388575,-3,-45,-7,11,27,58,38,0,1.908787061
11.388582,61,24,5,9,-64,-58,3,17,1.908787061
11.400610,-28,21,1,8,127,70,35,-16,1.908787061
11.400646,-26,-40,1,-18,-76,-65,-44,4,1.908787061
11.413078,-4,50,8,9,14,-32,-23,-13,1.908787061
11.413091,-3,10,-7,-20,-57,25,20,-26,1.908787061
11.425081,3,49,9,34,55,-29,-21,16,1.908787061
11.425112,-10,-25,-11,-13,-32,-8,7,-1,1.908787061
11.428081,16,-31,-5,-4,23,-2,-7,-14,1.908787061
11.428096,-7,65,-2,-29,-39,25,12,18,1.908787061
11.447831,-10,-39,1,25,4,48,-2,-21,1.908787061
11.447838,44,52,16,28,-15,22,-23,11,1.908787061
11.448457,-60,-93,-10,20,61,10,51,9,1.908787061
11.448464,46,61,14,-4,66,-30,-35,3,1.908787061
11.469816,7,15,-5,7,-12,71,45,-13,1.908787061
11.469843,-64,-85,-22,-42,-23,-58,-19,-22,1.908787061
11.471737,51,24,-3,-5,-43,-27,-25,-10,1.908787061
11.471749,11,4,5,7,-53,33,7,-10,1.908787061
11.485059,-81,-96,-8,7,17,-61,-6,-2,1.908787061
11.485085,76,-76,-3,-10,24,-2,-22,-12,1.908787061
11.486702,-6,53,-4,-12,-30,13,30,25,1.908787061
11.486715,2,-40,6,17,14,11,-20,52,1.908787061
11.507079,79,53,-5,-20,-22,-38,-13,1,1.908787061
11.507097,-29,6,-6,-8,-49,0,34,0,1.908787061
11.510199,2,31,2,-17,-23,26,-17,5,1.908787061
11.510209,-6,0,1,-5,3,24,44,4,1.908787061
11.529957,7,36,-1,5,-44,-5,-70,-3,1.916601662
11.529985,-36,-1,-2,25,-1,-37,60,23,1.916601662
11.531381,11,80,-2,-22,-70,45,34,-2,1.916601662
11.531387,15,-48,7,1,-55,-26,21,-31,1.916601662
11.545085,34,-10,-14,15,-16,83,-13,-10,1.916601662
11.545096,13,62,-5,-16,71,12,-16,-77,1.916601662
11.547261,9,21,6,-12,-12,-24,-15,72,1.916601662
11.547269,-18,-18,0,6,9,3,5,-23,1.916601662
11.567903,42,31,2,-22,-34,-63,-2,-4,1.916601662
11.567926,-29,-36,-1,-4,-12,19,17,-5,1.916601662
11.570114,-10,-40,-9,8,26,17,-7,-21,1.916601662
11.570134,23,53,0,12,-6,-18,-38,19,1.916601662
11.589599,-8,-73,0,-9,15,-25,24,33,1.916601662
11.589613,-41,19,10,17,-4,2,-9,-9,1.916601662
11.591048,18,-2,-5,-35,6,19,0,-2,1.916601662
11.591068,-87,-71,-17,61,61,-20,-63,-33,1.916601662
11.604650,-39,11,3,-7,-44,-110,73,-9,1.916601662
11.604667,75,103,4,-35,-87,86,-22,20,1.916601662
11.606194,33,26,3,25,127,-18,35,42,1.916601662
11.606216,-24,46,-3,-8,-3,97,16,-12,1.916601662
11.627246,4,-70,0,2,31,-27,5,13,1.916601662
11.627262,-63,-3,-2,20,40,18,-4,19,1.916601662
11.628571,55,100,15,-23,-61,-49,-1,-32,1.916601662
11.628587,9,-23,-23,-32,-24,7,-23,-23,1.916601662
11.652917,10,-22,-7,-8,-3,-25,-24,34,1.916601662
11.652932,23,-7,3,-2,-16,-6,52,45,1.916601662
11.652936,-27,-26,-6,16,-11,3,-75,40,1.916601662
11.652938,47,44,12,-2,8,-21,1,12,1.916601662
11.664029,-68,20,-1,-44,-37,-47,-6,-9,1.916601662
11.664045,38,-77,-1,29,58,58,46,66,1.916601662
11.670711,-32,-115,-26,-13,-55,-11,-53,-56,1.916601662
11.670735,-27,-6,-2,9,33,-43,18,10,1.916601662
11.687235,8,-63,-5,-28,-89,-49,-27,-9,1.916601662
11.687265,32,57,18,46,111,85,48,-14,1.916601662
11.688633,16,31,8,25,-12,29,-4,-17,1.916601662
11.688645,10,6,1,-60,-126,-37,-4,33,1.916601662
11.710100,33,29,10,23,104,73,-21,70,1.916601662
11.710133,-13,-73,-24,-3,-20,-108,-46,-46,1.916601662
11.712772,-11,-19,-4,12,-5,6,-20,-15,1.916601662
11.712781,-52,-14,2,16,-11,-12,5,-55,1.916601662
11.724117,110,80,11,-16,-32,-1,-13,-33,1.916601662
11.724150,-41,6,-1,-18,-36,-11,-48,-2,1.916601662
11.731024,18,-14,-4,8,16,-20,10,50,1.916601662
11.731051,9,37,1,-24,-2,15,-1,-29,1.916601662
11.747160,3,77,20,24,23,11,34,-13,1.916601662
11.747171,-9,-62,-28,-30,17,77,-49,-7,1.916601662
11.748508,-42,73,4,-3,-6,-70,49,-59,1.916601662
11.748528,20,-45,-1,-14,-75,-1,4,40,1.916601662
11.769930,5,-9,-1,28,17,-31,23,-5,1.900003517
11.769956,-38,21,12,-16,3,44,-57,22,1.900003517
11.772917,-38,-17,5,88,127,58,26,-7,1.900003517
11.772929,23,39,-10,-8,11,-16,-64,-41,1.900003517
11.784669,-7,38,6,3,-24,52,52,24,1.900003517
11.784699,-65,-13,-6,-43,-88,-84,-24,36,1.900003517
11.790759,-104,-108,-23,-13,-6,-12,-15,-10,1.900003517
11.790773,44,-28,1,20,27,-26,-48,-4,1.900003517
11.806992,-52,13,-6,-2,17,22,-10,-21,1.900003517
11.807002,45,35,6,-1,-16,-41,30,-9,1.900003517
11.808604,37,39,3,-15,0,9,4,-22,1.900003517
11.808611,6,33,5,3,-21,33,32,99,1.900003517
11.830337,-70,-86,-12,-22,29,34,-6,-50,1.900003517
11.830361,26,64,-1,40,-46,-66,-46,0,1.900003517
11.831635,49,-45,-9,-43,-68,-5,-7,17,1.900003517
11.831649,16,21,-1,47,-37,8,3,-29,1.900003517
11.844004,2,17,4,18,48,-7,-12,-53,1.900003517
11.844026,18,5,6,-26,3,39,0,5,1.900003517
11.850878,-1,14,-4,-19,64,20,-20,56,1.900003517
11.850893,-48,-76,-4,-7,13,-4,39,-29,1.900003517
11.867652,-16,17,-8,-6,24,19,0,-36,1.900003517
11.867667,-3,-63,-7,1,2,-54,-1,-18,1.900003517
11.868636,50,6,13,2,-33,5,21,21,1.900003517
11.868646,-96,-109,-13,-19,35,17,-11,41,1.900003517
11.889668,-55,-21,-8,-4,0,0,1,18,1.900003517
11.889692,36,18,1,-18,-65,-5,12,-23,1.900003517
11.891593,15,35,16,-30,-82,-25,13,-14,1.900003517
11.891599,26,64,10,57,124,57,20,2,1.900003517
11.904264,28,-21,5,40,-90,10,0,8,1.900003517
11.904298,-69,-66,-11,14,-50,-86,-10,-13,1.900003517
11.911070,-12,-5,-5,-7,54,81,68,46,1.900003517
11.911098,17,23,1,-13,23,-8,-63,7,1.900003517
11.927338,49,50,8,-9,-3,-65,8,24,1.900003517
11.927369,1,9,-7,2,14,47,1,-21,1.900003517
11.929723,2,-54,1,-3,-83,-38,14,-20,1.900003517
11.929733,42,33,3,-1,34,30,33,15,1.900003517
11.949933,-2,41,-3,1,91,-13,1,27,1.900003517
11.949956,83,66,-10,-35,20,21,6,-36,1.900003517
11.953087,-89,-52,3,47,-5,-11,-9,-30,1.900003517
11.953102,0,-33,-11,-20,-49,-61,11,-18,1.900003517
11.963537,-9,10,-9,-23,-37,46,-16,-17,1.900003517
11.963560,-12,24,13,7,-3,-23,-56,8,1.900003517
11.973598,65,36,1,-6,32,33,11,17,1.900003517
11.973612,7,120,10,-1,-15,2,4,63,1.900003517
11.987172,-19,-125,-8,6,-71,3,13,-24,1.900003517
11.987197,-27,-18,-8,-18,25,-30,-13,1,1.900003517
11.989731,12,61,6,10,44,19,-2,-30,1.900003517
11.989743,49,76,8,-11,-24,48,1,-15,1.900003517
12.009471,-87,-113,-28,-15,-6,-92,26,-4,1.900003517
12.009505,32,24,11,21,-7,72,69,32,1.900003517
12.015784,51,21,-11,-7,-3,73,-26,-27,1.900003517
12.015804,16,38,15,-12,-27,-79,11,-10,1.900003517
12.023455,-2,-76,-7,-2,38,106,-34,-1,1.900003517
12.023478,-10,3,6,-3,-29,-120,12,-9,1.900003517
12.033808,-11,70,1,4,49,-4,-8,-44,1.865396632
12.033815,-59,-128,-15,-3,35,15,-1,-42,1.865396632
12.047237,43,42,11,-12,-45,-54,-70,12,1.865396632
12.047257,-2,-25,-3,10,3,46,32,8,1.865396632
12.049749,-7,-10,4,7,-25,-20,11,55,1.865396632
12.049758,8,4,0,-11,0,5,-12,47,1.865396632
12.070474,3,60,-1,1,2,1,8,-4,1.865396632
12.070487,-79,-74,7,17,65,17,4,-17,1.865396632
12.071106,21,-27,-14,-34,-91,-29,-10,-37,1.865396632
12.071114,-31,-47,-14,-10,26,-45,-12,-5,1.865396632
12.083261,14,18,4,15,6,-41,12,-14,1.865396632
12.086130,-13,45,3,8,13,86,-60,-9,1.865396632
12.094084,23,59,2,-6,80,37,50,9,1.865396632
12.094091,27,2,11,76,85,68,15,22,1.865396632
12.107340,-79,-74,-3,-21,-59,-33,-55,3,1.865396632
12.107373,58,21,-8,-21,-75,-16,24,9,1.865396632
12.109523,-10,53,11,-8,-8,-8,-25,-10,1.865396632
12.109537,16,-22,-17,-17,-45,17,8,-38,1.865396632
12.130445,-21,65,11,0,37,26,34,11,1.865396632
12.130482,51,43,13,-3,6,14,7,42,1.865396632
12.132803,-50,-17,-15,4,6,-24,-26,11,1.865396632
12.132810,52,73,11,0,-12,18,23,36,1.865396632
12.143459,14,80,1,10,37,9,-8,-14,1.865396632
12.143490,-5,1,-18,-48,-49,-33,-1,4,1.865396632
12.153745,14,26,16,23,49,-18,0,-18,1.865396632
12.153768,28,-29,-3,10,-40,-5,-39,-12,1.865396632
12.174774,10,1,11,48,101,113,-20,25,1.865396632
12.174797,-10,-25,-16,3,-3,17,-39,-52,1.865396632
12.177731,-4,-67,-2,-8,-16,1,-1,27,1.865396632
12.177742,-30,49,3,-7,-50,43,40,-26,1.865396632
12.189850,10,-54,-15,-28,-50,-13,-43,-9,1.865396632
12.189881,-20,-57,0,-4,-1,-14,21,4,1.865396632
12.192815,-23,-21,4,7,21,-27,-37,3,1.865396632
12.192824,-29,45,6,-3,-32,-3,13,-28,1.865396632
12.203396,76,44,1,-14,-44,-27,9,69,1.865396632
12.203416,-32,20,7,17,30,-14,4,-6,1.865396632
12.213320,32,26,-4,-16,-44,10,10,-2,1.865396632
12.213328,-82,-101,-5,13,18,-45,1,-3,1.865396632
12.228191,-35,58,-1,-23,-54,-32,-2,-40,1.865396632
12.228199,30,-3,0,7,20,12,4,-2,1.865396632
12.228464,-11,-61,2,-2,-3,90,13,-10,1.865396632
12.228471,9,-8,0,14,37,-61,-24,2,1.865396632
12.249721,46,76,-5,-15,-87,63,-9,-22,1.865396632
12.249741,-53,-30,-8,18,93,36,7,0,1.865396632
12.251978,7,30,-7,-35,-11,-4,2,-16,1.865396632
12.251989,19,-37,-3,-32,-105,-13,-38,6,1.865396632
12.263440,1,-28,-2,26,59,1,37,17,1.865396632
12.263471,-9,76,17,9,-24,21,24,1,1.865396632
12.272334,-31,58,-8,-16,39,-55,-36,-32,1.865396632
12.272351,60,-5,-17,-11,-11,-6,1,56,1.865396632
12.294832,23,13,6,-2,29,-6,6,-51,1.869430122
12.294856,29,43,7,-10,-74,-4,0,42,1.869430122
12.297192,5,-100,-7,35,68,21,8,34,1.869430122
12.297208,-15,64,2,-18,-52,38,6,-43,1.869430122
12.310164,-15,-54,-8,-14,-44,14,-5,-23,1.869430122
12.310192,38,15,-1,-2,-25,-39,35,-20,1.869430122
12.313531,-9,42,9,30,-61,-76,-8,-5,1.869430122
12.313539,-58,-44,-4,-10,-23,-6,51,-27,1.869430122
12.323189,-40,-10,-19,3,51,20,-33,-2,1.869430122
12.323205,46,62,4,0,-55,15,6,16,1.869430122
12.334542,-20,3,-4,-4,8,-1,-1,11,1.869430122
12.334551,-7,16,7,-2,52,4,25,-14,1.869430122
12.347412,13,-25,15,7,29,-36,-2,-5,1.869430122
12.347442,-55,-84,-12,-9,-25,51,3,-3,1.869430122
12.350183,62,8,4,23,-24,-34,-1,28,1.869430122
12.350193,44,94,8,-5,18,36,19,-29,1.869430122
12.369886,-45,-104,-21,-15,-45,-43,-4,14,1.869430122
12.369913,60,-6,-8,-5,112,4,-17,-20,1.869430122
12.371191,46,21,6,6,-32,5,7,60,1.869430122
12.371218,-13,20,2,-2,-27,3,-37,4,1.869430122
12.392079,36,96,-1,-6,-13,7,27,-9,1.869430122
12.392095,-35,-13,6,19,-73,-2,-31,-10,1.869430122
12.393844,-8,-65,-16,-26,44,5,41,-52,1.869430122
12.393909,48,74,4,-11,-35,-4,-97,12,1.869430122
12.407559,-34,-26,-8,26,101,2,36,-16,1.869430122
12.407590,1,31,0,3,-10,-5,-6,14,1.869430122
12.410979,-6,6,3,-30,-119,27,11,-5,1.869430122
12.410990,-4,-30,-4,40,9,56,30,50,1.869430122
12.437647,-66,-20,9,-20,10,-58,-55,-35,1.869430122
12.439259,65,92,-5,2,26,19,-2,41,1.869430122
12.439271,27,54,5,6,-5,-1,12,14,1.869430122
12.439274,-33,-47,-18,-23,-3,-24,-8,-21,1.869430122
12.452784,-31,-23,6,7,-25,1,-14,-16,1.869430122
12.452820,-40,-57,3,7,42,-31,-9,-29,1.869430122
12.455606,43,61,3,-10,-14,28,-5,-3,1.869430122
12.455673,12,7,-6,-7,-63,-76,-16,-3,1.869430122
12.467434,-3,26,-14,-29,8,12,61,13,1.869430122
12.467458,-32,-49,10,29,14,-51,5,4,1.869430122
12.470553,-14,-4,0,33,8,0,-12,-4,1.869430122
12.470568,-11,18,3,-17,98,80,4,-32,1.869430122
12.489654,33,66,6,2,11,8,15,21,1.869430122
12.489662,-14,-73,-11,-36,-14,40,-18,-8,1.869430122
12.490976,-39,25,-9,-20,-62,-60,7,-27,1.869430122
12.490983,19,4,7,26,51,-39,-1,-28,1.869430122
12.512164,13,-94,-6,-18,-64,-1,-48,4,1.869430122
12.512188,0,74,-8,-11,3,-26,28,23,1.869430122
12.513568,-55,-73,10,30,24,56,-24,13,1.869430122
12.513586,-37,-55,-17,-14,-28,-5,4,-16,1.869430122
12.527166,70,36,3,6,10,-31,7,-65,1.869430122
12.527188,21,110,20,7,-49,0,-4,-6,1.869430122
12.528551,-16,-73,-20,-33,-60,-14,-9,-14,1.869430122
12.528567,32,6,-3,-22,24,4,28,13,1.869430122
12.551886,50,67,9,62,18,68,-25,10,1.893797803
12.551899,-21,-13,-9,7,47,-31,-4,-9,1.893797803
12.551902,-9,-21,-9,-20,65,60,-3,-20,1.893797803
12.551905,-29,-43,4,28,22,-23,13,16,1.893797803
12.572099,48,79,4,-12,-6,65,40,74,1.893797803
12.572122,13,18,0,-20,-93,14,-6,0,1.893797803
12.574273,20,-12,-2,-3,43,12,5,5,1.893797803
12.574280,-1,34,0,14,33,35,2,56,1.893797803
12.586414,12,-41,-3,4,10,-39,-41,22,1.893797803
12.586447,-9,29,-1,-6,46,8,34,-30,1.893797803
12.593576,19,62,3,23,16,-7,4,-1,1.893797803
12.593605,-59,-94,-9,-4,41,-54,-15,-49,1.893797803
12.609944,26,17,7,-17,-101,48,-21,-27,1.893797803
12.609975,3,-39,-8,17,63,38,-2,5,1.893797803
12.612659,22,54,5,3,-34,-13,10,-16,1.893797803
12.612668,52,4,7,-2,25,64,-10,23,1.893797803
12.632396,-45,-42,0,-3,-47,-57,39,10,1.893797803
12.632405,-21,50,11,17,90,27,-40,-53,1.893797803
12.633690,2,-72,-5,15,28,3,35,-28,1.893797803
12.633718,18,29,-3,-13,-31,8,-7,-17,1.893797803
12.646754,-76,-83,0,-17,-26,-9,4,13,1.893797803
12.646803,64,46,-3,10,-27,-26,11,19,1.893797803
12.653372,-23,-9,4,-16,-23,-28,-14,4,1.893797803
12.655650,-62,-33,-6,-12,-86,2,0,-50,1.893797803
12.669560,33,41,1,28,123,8,49,22,1.893797803
12.669585,36,-27,-1,-9,-26,-3,-50,-4,1.893797803
12.672307,-1,23,2,9,6,-33,-43,-19,1.893797803
12.672327,17,51,-5,-33,-31,-9,-4,14,1.893797803
12.692248,-24,-3,-1,-16,-38,60,1,-46,1.893797803
12.692295,-19,-124,-6,6,14,-50,32,25,1.893797803
12.693500,-37,-36,-14,-39,-70,16,3,8,1.893797803
12.693506,-2,33,0,33,43,31,4,-8,1.893797803
12.706402,62,118,-6,-38,-49,-79,-8,-1,1.893797803
12.706415,-82,-56,6,39,30,92,-15,17,1.893797803
12.713391,18,26,7,0,-40,-99,-46,-6,1.893797803
12.713422,18,17,13,30,-19,85,43,57,1.893797803
12.729533,-37,-32,-10,9,49,0,22,-11,1.893797803
12.729565,-8,32,-1,-23,-7,9,16,47,1.893797803
12.736064,-47,-71,-11,-18,-79,-51,6,-9,1.893797803
12.736084,-5,43,-5,-9,113,59,-9,-11,1.893797803
12.753994,14,-75,-12,-4,-14,-35,-24,-10,1.893797803
12.754014,5,26,2,-8,-26,-3,13,-11,1.893797803
12.754021,5,67,11,26,38,21,-3,67,1.893797803
12.754027,-78,-43,-2,-15,-56,-79,-7,-14,1.893797803
12.769756,13,70,-6,-15,-5,39,34,-32,1.893797803
12.769770,-34,-66,-7,15,-38,-12,30,-7,1.893797803
12.773282,38,74,3,7,-29,65,-45,-23,1.893797803
12.773300,79,12,5,33,87,-71,18,-37,1.893797803
12.789647,-13,-77,0,8,8,27,-7,59,1.893797803
12.789679,-3,102,3,-16,-104,14,21,-18,1.893797803
12.792315,-31,-77,-8,-15,37,72,13,-2,1.880534611
12.792325,11,14,0,12,-17,15,29,-1,1.880534611
12.812618,-26,-16,-4,-10,-8,0,-36,-22,1.880534611
12.812650,16,-22,-4,-11,10,-60,6,-9,1.880534611
12.815329,-19,-24,-3,-6,-12,32,-6,-17,1.880534611
12.815340,43,37,6,-7,6,-14,-14,39,1.880534611
12.826769,2,-63,-12,-6,-24,-25,-46,-17,1.880534611
12.826793,-58,18,2,-29,-13,20,8,-52,1.880534611
12.833659,4,-12,-13,16,30,-27,21,-50,1.880534611
12.833715,-40,-81,6,2,-33,-5,-14,-24,1.880534611
12.850157,-15,48,10,-3,-14,21,11,1,1.880534611
12.850169,75,35,-7,12,31,-46,-1,54,1.880534611
12.851666,-25,62,38,30,102,37,73,44,1.880534611
12.851681,-12,-30,-31,-42,-4,57,-7,-22,1.880534611
12.872091,9,-43,0,-10,-84,-94,-19,23,1.880534611
12.872110,-50,-76,-14,9,51,61,-2,-29,1.880534611
12.874887,46,112,1,-8,-32,-12,17,8,1.880534611
12.874897,-20,-6,10,22,-1,-24,-51,12,1.880534611
12.885926,8,114,9,-10,-9,6,46,10,1.880534611
12.885950,-33,-80,-4,1,50,-45,-92,-12,1.880534611
12.896877,-27,-18,6,1,-28,-9,0,-2,1.880534611
12.896886,75,-39,-14,-11,12,14,16,-2,1.880534611
12.909674,-95,-49,-8,-7,-15,6,-2,2,1.880534611
12.909713,27,127,10,12,2,-31,-3,-21,1.880534611
12.910985,-4,-103,-6,-14,-62,10,-16,41,1.880534611
12.910992,-10,32,-2,3,80,5,2,-39,1.880534611
12.932173,-34,-46,9,21,-31,120,-23,74,1.880534611
12.932194,114,77,11,18,35,-64,61,35,1.880534611
12.935796,-93,37,-20,-24,73,87,-41,-33,1.880534611
12.935815,-10,-98,-11,-4,-127,-59,-29,-12,1.880534611
12.945833,54,29,0,11,109,6,61,-6,1.880534611
12.945856,-1,14,7,-10,-69,-15,-34,-33,1.880534611
12.955738,23,43,5,-26,13,24,-24,24,1.880534611
12.955754,83,94,19,46,49,-86,61,33,1.880534611
12.969730,-31,58,-3,-29,-90,-35,-10,-49,1.880534611
12.969750,-13,-96,3,2,64,8,-15,-20,1.880534611
12.972026,10,0,-11,1,14,-42,-7,-24,1.880534611
12.972043,-5,70,9,-19,-55,28,7,105,1.880534611
12.992591,-39,-33,1,7,28,-15,7,-10,1.880534611
12.992618,0,-45,-16,-15,-27,61,2,39,1.880534611
12.993507,27,78,21,31,-16,-27,-2,42,1.880534611
12.993521,21,-98,-2,-10,-17,15,-4,-22,1.880534611
13.005738,40,67,-5,0,126,-29,1,4,1.880534611
13.005753,-27,-108,-1,9,-80,40,10,-10,1.880534611
13.017801,19,-9,-3,10,26,-26,2,-7,1.880534611
13.017812,-17,85,-7,-1,8,13,6,6,1.880534611
13.030277,-1,-72,14,16,-60,-17,-23,-3,1.880534611
13.030319,23,54,-7,-32,0,-42,18,-3,1.880534611
13.033012,21,-54,6,29,-35,-69,41,-8,1.880534611
13.033028,57,-20,-15,-41,30,4,-5,-10,1.880534611
13.052011,15,-5,-4,5,4,24,-2,-2,1.925240993
13.052025,-76,-35,-3,1,-29,-3,16,-15,1.925240993
13.053853,22,18,8,-1,-19,-12,-56,-8,1.925240993
13.053880,-52,6,6,0,-37,-9,9,0,1.925240993
13.065648,-13,14,-4,4,24,26,-27,-19,1.925240993
13.065683,68,74,3,-2,-10,4,15,78,1.925240993
13.075198,-24,-51,-21,-14,60,2,22,-26,1.925240993
13.075209,-50,23,-2,-25,-8,6,-26,-17,1.925240993
13.089584,9,1,5,27,20,18,39,-1,1.925240993
13.089601,-14,7,-16,-12,21,-82,-80,-61,1.925240993
13.092391,27,106,16,11,-19,94,-1,4,1.925240993
13.092399,-72,-63,-18,-24,20,-26,-7,3,1.925240993
13.112513,-7,6,-14,-5,7,-45,15,3,1.925240993
13.112521,1,31,0,-5,-3,72,18,-16,1.925240993
13.113506,-2,24,-3,-14,58,4,-2,5,1.925240993
13.113520,-52,75,25,26,-22,0,-11,-3,1.925240993
13.127077,35,-79,4,3,-25,-24,-46,-27,1.925240993
13.127089,-69,-77,-22,-7,-7,45,-37,-5,1.925240993
13.136740,17,-3,-10,-6,-22,-36,10,8,1.925240993
13.136753,-45,-26,1,3,-19,30,-21,22,1.925240993
13.148988,35,38,6,2,-1,-24,0,4,1.925240993
13.149017,17,65,15,0,-9,-25,13,2,1.925240993
13.158538,31,58,-3,-37,-26,27,66,-24,1.925240993
13.158555,-60,-100,-17,36,68,-42,-57,-33,1.925240993
13.172048,1,30,-11,5,57,127,31,82,1.925240993
13.172072,-7,-105,-21,-27,-84,-88,-22,-39,1.925240993
13.174134,0,18,1,58,94,45,35,14,1.925240993
13.174145,49,50,25,-2,-47,62,46,13,1.925240993
13.186099,-9,57,12,-21,-22,-47,-41,-53,1.925240993
13.186130,14,57,14,41,99,79,33,13,1.925240993
13.194757,-51,-117,-11,-12,-31,-64,-35,3,1.925240993
13.194781,21,21,1,0,-30,0,-10,17,1.925240993
13.209759,47,-2,-3,10,11,2,0,-38,1.925240993
13.209781,8,22,8,-16,-33,-3,14,26,1.925240993
13.212303,14,24,-5,-17,-46,-52,-31,-5,1.925240993
13.212309,-31,-52,0,20,27,6,36,-25,1.925240993
13.232714,8,78,1,-28,-121,-76,-86,-50,1.925240993
13.232740,-65,-86,-16,18,112,77,74,4,1.925240993
13.234741,46,39,-16,-10,-73,32,-19,-19,1.925240993
13.234751,17,61,0,-32,26,-85,-9,24,1.925240993
13.246016,-11,-108,-2,17,-38,-80,9,-5,1.925240993
13.246050,61,77,8,-38,-128,64,-6,19,1.925240993
13.255899,-17,-25,13,70,56,-28,-14,7,1.925240993
13.255915,5,-10,-15,-1,16,31,0,-36,1.925240993
13.271049,26,-38,7,-3,1,16,43,39,1.925240993
13.271061,-71,-42,-12,-31,-65,-57,-27,-20,1.925240993
13.271067,-55,5,-14,-9,22,-20,-7,-47,1.925240993
13.271113,127,25,14,3,-18,-43,13,17,1.925240993
13.292231,-53,-28,-22,-2,20,16,-34,5,1.925240993
13.292255,57,14,14,9,12,4,-23,17,1.925240993
13.294355,-105,-102,-10,-31,-128,6,29,36,1.925240993
13.294361,81,32,2,10,75,-43,-31,-2,1.925240993
13.305789,0,-23,-10,16,33,61,1,-25,1.914726880
13.305812,11,49,-1,5,45,-119,49,-23,1.914726880
13.316902,9,-51,14,6,-71,57,-21,49,1.914726880
13.316909,24,14,-3,-3,21,14,3,-8,1.914726880
13.332533,-26,-3,7,7,53,-1,35,10,1.914726880
13.332540,4,15,-1,4,26,40,-20,7,1.914726880
13.332543,9,15,-4,2,62,-39,-73,-20,1.914726880
13.332546,-42,-11,-3,-8,-26,34,52,-27,1.914726880
13.352448,11,-14,-6,-10,-33,1,35,6,1.914726880
13.352510,-44,-1,-3,-15,-38,-28,-46,10,1.914726880
13.353674,95,43,6,-5,-22,-16,18,4,1.914726880
13.353697,-66,14,-5,-21,-116,47,-31,-79,1.914726880
13.374799,-81,-33,-4,21,46,30,12,-18,1.914726880
13.374830,51,-2,-6,-7,12,48,15,81,1.914726880
13.377587,17,11,2,-5,7,-30,29,-34,1.914726880
13.377598,-37,-83,-11,-46,8,-36,4,-10,1.914726880
13.390228,21,91,27,56,59,49,18,10,1.914726880
13.390263,-20,71,12,25,-16,-29,3,-33,1.914726880
13.392014,-7,-108,-19,11,127,49,6,-12,1.914726880
13.392020,8,94,11,1,-46,51,10,23,1.914726880
13.412378,36,10,-1,-12,-28,-76,-105,-8,1.914726880
13.412413,-13,6,-2,21,12,16,34,-13,1.914726880
13.413500,-10,44,15,6,25,-16,27,11,1.914726880
13.413521,-32,-92,-12,-12,-75,-58,-18,12,1.914726880
13.435152,49,-27,-10,-39,-9,24,26,24,1.914726880
13.435184,-8,23,0,6,58,41,-1,-22,1.914726880
13.437869,72,3,8,-20,-54,52,-10,26,1.914726880
13.437883,-81,-53,-3,39,17,-74,-21,21,1.914726880
13.449683,1,65,14,-16,46,101,49,57,1.914726880
13.449706,-34,-14,-3,-1,-1,-68,-5,-69,1.914726880
13.452002,-45,-42,-2,-7,-20,29,-27,-35,1.914726880
13.452010,33,-22,1,27,55,-20,54,-1,1.914726880
13.472063,51,49,7,22,43,-53,-42,20,1.914726880
13.472082,13,0,1,-23,-20,-58,4,5,1.914726880
13.473560,-39,112,10,-6,-6,-10,-10,-1,1.914726880
13.473656,96,23,4,17,-11,59,-27,33,1.914726880
13.494463,-84,-65,-25,-13,-12,-24,14,-43,1.914726880
13.494481,28,-6,-6,-13,-9,25,46,11,1.914726880
13.496013,13,38,-3,-11,-31,-76,-41,-7,1.914726880
13.496033,18,117,10,-18,-20,4,11,23,1.914726880
13.509141,-72,-51,-12,6,24,3,9,11,1.914726880
13.509162,28,2,5,-23,-48,19,-63,36,1.914726880
13.518514,19,44,2,-2,9,40,37,-33,1.914726880
13.518525,-68,-27,-1,56,22,-49,-24,1,1.914726880
13.533719,4,12,3,-32,-60,2,-4,-20,1.914726880
13.533729,21,7,-6,17,-34,15,11,2,1.914726880
13.533732,-21,74,13,-27,-85,-15,-50,6,1.914726880
13.533734,-12,-71,-30,-15,65,33,17,19,1.914726880
13.554771,7,-56,-3,-7,-1,11,19,-6,1.914726880
13.554787,24,9,8,14,-11,7,-17,5,1.914726880
13.556856,10,-40,-4,11,28,-28,-16,48,1.914726880
13.556871,25,54,6,-12,-47,34,-16,-1,1.914726880
13.568880,-6,-10,-2,3,-31,-59,-2,-6,1.890390744
13.568893,-9,54,3,1,26,66,11,13,1.890390744
13.575899,31,-119,-12,-4,-5,-29,5,-28,1.890390744
13.575923,-24,-59,-2,-26,-35,21,9,20,1.890390744
13.592221,-76,39,8,24,-17,97,53,36,1.890390744
13.592243,19,-71,-26,-38,-36,-119,-77,-90,1.890390744
13.594643,-38,-8,-17,13,84,53,87,-7,1.890390744
13.594654,3,44,5,15,-67,-36,-37,-24,1.890390744
13.614736,53,36,4,-19,17,65,30,-34,1.890390744
13.614758,-19,-44,-3,-4,-3,21,25,-9,1.890390744
13.616032,-27,19,-1,20,88,-27,-14,1,1.890390744
13.616052,23,22,8,-22,-93,-32,18,7,1.890390744
13.629010,32,84,15,35,81,-8,49,-2,1.890390744
13.629034,-28,-104,-3,7,87,22,-17,-10,1.890390744
13.635813,-8,-87,-18,-22,-60,-46,-58,-4,1.890390744
13.635836,1,39,-1,-8,-21,47,68,-16,1.890390744
13.652351,11,19,-18,-6,-44,-54,-46,-16,1.890390744
13.652382,38,47,10,16,16,20,12,13,1.890390744
13.655070,2,24,2,-1,-42,-2,25,-4,1.890390744
13.655082,-33,-14,-8,-19,-3,29,-24,-7,1.890390744
13.673998,18,1,1,-14,-57,22,-34,33,1.890390744
13.674010,-13,3,7,11,49,-46,42,12,1.890390744
13.684807,8,-11,-4,-15,-53,4,15,-5,1.890390744
13.684814,44,49,7,4,40,-72,-8,98,1.890390744
13.689051,-28,117,9,-20,-15,14,2,-42,1.890390744
13.689076,-33,-92,-16,30,61,56,53,5,1.890390744
13.696223,20,107,17,-64,-82,-28,43,28,1.890390744
13.696253,-17,-51,-7,98,127,52,-20,-55,1.890390744
13.712328,-30,2,4,9,-68,-56,-12,-2,1.890390744
13.712360,2,-13,-4,-2,4,-28,-45,8,1.890390744
13.713914,12,-1,7,11,-21,-11,21,-61,1.890390744
13.713927,14,14,8,-20,3,-32,-25,-40,1.890390744
13.735073,31,17,0,-14,15,77,-7,-31,1.890390744
13.737386,4,-23,11,3,-59,-78,-45,42,1.890390744
13.737398,-19,-128,-23,1,35,47,50,3,1.890390744
13.737401,18,30,-3,-16,-15,39,0,-71,1.890390744
13.748995,-23,29,-7,-3,17,-34,-58,3,1.890390744
13.749008,19,-3,-9,-22,-47,34,18,-39,1.890390744
13.755750,46,62,15,30,37,10,-17,83,1.890390744
13.755774,-10,4,1,-41,14,6,-20,4,1.890390744
13.772182,30,-72,-1,1,-64,-26,51,12,1.890390744
13.772198,-12,-43,-1,28,23,4,-43,-8,1.890390744
13.773781,15,51,2,30,29,12,-13,5,1.890390744
13.773898,-55,14,-4,1,13,35,-6,-28,1.890390744
13.794950,94,-27,-6,-1,25,14,-7,81,1.890390744
13.794973,-15,38,4,-19,-29,-36,-8,-18,1.890390744
13.796785,-62,-10,-3,9,-27,19,32,41,1.890390744
13.796798,-15,3,1,-9,-4,11,-60,11,1.890390744
13.809301,-3,13,7,-12,-15,-34,2,-31,1.890390744
13.809332,-4,94,-13,-2,1,18,0,1,1.890390744
13.815688,36,-90,-10,-5,-2,12,-13,-10,1.890390744
13.815714,82,31,2,-2,-15,-15,23,22,1.890390744
13.831931,-79,-69,-13,-7,32,11,15,0,1.884221081
13.831940,-59,31,-4,-6,-69,48,-21,-12,1.884221081
13.833441,30,95,4,37,32,-3,-49,-16,1.884221081
13.833448,-43,-83,-10,-8,-115,-79,19,17,1.884221081
13.854616,-4,-72,-16,4,126,56,2,-41,1.884221081
13.854633,24,92,9,3,-35,-41,25,1,1.884221081
13.856697,-46,-49,-3,-22,-17,47,51,51,1.884221081
13.856711,0,55,7,-12,-43,-25,24,8,1.884221081
13.868581,-23,-18,-9,12,69,26,9,-9,1.884221081
13.868621,74,15,-1,-24,-95,19,3,-5,1.884221081
13.879276,36,49,9,29,6,-21,-48,61,1.884221081
13.879287,-38,-89,-4,-21,-47,12,-9,-6,1.884221081
13.894678,-8,64,10,-12,-27,-37,-1,10,1.884221081
13.894694,64,29,5,41,127,25,-7,15,1.884221081
13.894701,7,54,2,8,10,-28,14,-95,1.884221081
13.894707,-58,-88,-18,-12,36,65,12,-7,1.884221081
13.914895,42,79,1,-8,-44,-95,-31,58,1.884221081
13.914915,-50,-55,-5,-8,2,8,8,-4,1.884221081
13.917192,33,58,3,-5,-5,3,-27,-14,1.884221081
13.917207,14,20,5,13,1,-37,34,21,1.884221081
13.928910,-28,-88,10,15,-36,12,45,13,1.884221081
13.928931,0,-75,-21,-63,-47,54,-21,-23,1.884221081
13.938938,-16,56,13,52,53,17,-14,-15,1.884221081
13.938955,-31,-48,-15,2,48,112,-29,-8,1.884221081
13.952328,23,32,2,-5,-34,-97,-4,-3,1.884221081
13.952350,-6,17,10,0,2,-1,11,34,1.884221081
13.958390,-21,-67,-16,-25,-14,23,-53,25,1.884221081
13.958419,24,38,13,2,-39,23,25,-24,1.884221081
13.974854,36,44,-2,-6,-19,2,-7,-13,1.884221081
13.974866,-91,-84,-14,0,-1,-8,6,49,1.884221081
13.976039,-3,12,-4,-24,-20,-39,5,16,1.884221081
13.976060,18,76,3,7,24,-8,2,10,1.884221081
13.988155,20,41,10,16,31,6,-14,32,1.884221081
13.988169,-15,-1,-3,-14,-30,-30,-3,-33,1.884221081
13.998411,18,-7,-3,-42,-80,25,30,-20,1.884221081
13.998420,-57,-111,-4,72,100,17,-41,13,1.884221081
14.027105,-41,-44,-4,5,41,20,23,-49,1.884221081
14.027123,72,63,5,-2,-91,-23,-51,2,1.884221081
14.028654,-15,-4,-5,-51,0,-42,22,-24,1.884221081
14.028672,37,-12,12,81,61,40,80,3,1.884221081
14.034456,-25,-13,-11,-15,-19,-11,7,-4,1.884221081
14.034482,31,4,0,-10,10,21,12,-36,1.884221081
14.036951,-34,-76,8,1,-6,-5,-5,-40,1.884221081
14.036964,0,-4,-10,-16,-38,-13,-9,-27,1.884221081
14.049641,17,35,2,1,-45,13,4,8,1.884221081
14.049652,-29,-31,4,9,50,-8,15,49,1.884221081
14.058592,42,82,0,8,23,9,8,-47,1.884221081
14.058599,-41,-84,-18,-24,-23,-47,-29,-28,1.884221081
14.072146,22,38,-8,-21,-11,42,-13,-4,1.884221081
14.072165,-8,45,18,0,53,-17,23,-12,1.884221081
14.074245,-52,-58,-7,46,45,49,-25,-37,1.911031390
14.074258,50,66,-2,-43,84,-54,-37,56,1.911031390
14.102160,13,18,14,36,52,89,-2,0,1.911031390
14.102179,11,-47,-14,17,-47,-16,-4,-4,1.911031390
14.104512,34,0,8,33,92,70,2,10,1.911031390
14.104525,-61,70,8,-18,-39,-26,47,-2,1.911031390
14.108270,-58,-126,-16,-19,-35,-42,-43,-69,1.911031390
14.108291,11,57,14,4,-19,18,10,0,1.911031390
14.118861,-17,-20,-10,-12,-1,-4,-11,1,1.911031390
14.118873,85,105,6,-7,-26,-26,-4,26,1.911031390
14.132450,-21,-10,10,5,17,8,-14,11,1.911031390
14.132477,5,-22,-4,8,5,0,0,-24,1.911031390
14.133914,-48,14,-2,-21,-26,-32,1,-3,1.911031390
14.133919,34,28,5,-12,-15,27,-4,7,1.911031390
14.154542,47,46,-5,-74,-95,-69,-11,3,1.911031390
14.154561,-45,-14,10,88,104,71,-1,0,1.911031390
14.156606,-24,25,-10,-33,-24,-108,12,-46,1.911031390
14.156619,23,-81,3,16,95,82,-22,35,1.911031390
14.168570,22,4,-9,-14,-69,-21,46,9,1.911031390
14.168597,-10,48,-6,-45,39,-11,-27,-5,1.911031390
14.179959,19,13,7,8,51,39,8,-28,1.911031390
14.179969,-20,50,-4,-18,-75,-27,-18,-36,1.911031390
14.192424,-70,-92,-29,-9,-24,-20,-17,-30,1.911031390
14.192447,80,-36,-7,-17,-15,27,-11,-22,1.911031390
14.193608,48,61,4,12,-38,-17,-4,35,1.911031390
14.193629,8,-72,-1,-10,-7,-14,-8,-64,1.911031390
14.215030,41,62,14,21,30,17,-25,58,1.911031390
14.215058,37,127,9,6,-12,-20,30,-13,1.911031390
14.217645,-53,-128,-20,-4,-18,19,-23,23,1.911031390
14.217653,10,80,-3,-17,-38,-32,-13,-18,1.911031390
14.228579,-37,60,10,3,-25,27,15,-28,1.911031390
14.228620,8,-41,15,58,36,-25,-28,7,1.911031390
14.238477,15,52,-13,-45,24,-62,-13,19,1.911031390
14.238487,32,71,3,23,-39,111,74,16,1.911031390
14.253787,12,-71,-4,23,75,-14,11,-4,1.911031390
14.253801,-28,30,7,-32,-82,0,28,30,1.911031390
14.253804,7,3,-1,-8,-73,11,-1,18,1.911031390
14.253806,-23,9,-4,0,-33,-19,-33,8,1.911031390
14.274854,-33,31,-3,-26,4,-1,13,-52,1.911031390
14.274885,10,18,11,26,63,27,-4,-4,1.911031390
14.277099,-52,18,-9,-14,-77,-73,-10,-55,1.911031390
14.277108,29,30,-2,1,42,-10,1,-12,1.911031390
14.297222,93,-15,9,17,-22,26,-9,54,1.911031390
14.297239,-1,-97,-13,-32,-27,-20,-33,10,1.911031390
14.298659,-10,-54,-3,9,56,35,-5,-11,1.911031390
14.298669,61,-11,8,-11,-32,-37,-6,10,1.911031390
14.312611,-16,46,-2,1,-5,-5,-18,-9,1.911031390
14.312642,6,-7,-15,-15,7,-15,-18,-18,1.911031390
14.315765,48,53,11,-22,-77,-21,7,47,1.911031390
14.315777,-80,-79,4,70,72,4,45,-21,1.911031390
14.334858,2,-51,-7,3,-27,-15,2,34,1.879371881
14.334885,12,46,-2,-27,-87,-42,-9,15,1.879371881
14.336328,-15,-41,11,27,13,26,-8,8,1.879371881
14.336349,-94,-25,-17,-41,22,32,-3,10,1.879371881
14.357144,63,36,14,28,56,14,1,51,1.879371881
14.357174,-28,-12,-10,-4,-23,-11,0,-16,1.879371881
14.359412,-14,53,10,19,53,-6,-11,44,1.879371881
14.359418,90,4,4,-32,-108,-14,-5,-40,1.879371881
14.372069,-59,-68,-5,22,42,46,-50,-26,1.879371881
14.372086,-12,19,0,-3,-17,-9,52,15,1.879371881
14.374885,-86,-104,-9,-7,-30,33,25,-16,1.879371881
14.374898,32,47,-5,-17,38,-3,3,32,1.879371881
14.394717,35,71,6,-25,-111,-1,2,36,1.879371881
14.394725,85,-46,4,13,79,29,-8,-33,1.879371881
14.395942,-47,20,-5,-16,-3,-48,32,-30,1.879371881
14.395956,9,-72,0,49,71,90,-38,16,1.879371881
14.417224,-86,16,-15,-44,-103,-79,-12,-44,1.879371881
14.417248,0,90,11,-5,65,88,-30,-1,1.879371881
14.418887,34,59,6,26,-3,-84,-17,9,1.879371881
14.418905,-37,53,-15,-19,-45,-14,-28,43,1.879371881
14.432474,75,-72,8,3,26,19,-55,68,1.879371881
14.432507,-25,21,-3,-14,-46,-14,-7,-8,1.879371881
14.434261,-38,-100,-4,-3,-50,71,10,-12,1.879371881
14.434279,-38,-60,1,-7,47,-41,8,-56,1.879371881
14.455453,24,48,-4,-2,-41,-32,-34,12,1.879371881
14.455506,-36,-33,-11,3,27,-27,62,-1,1.879371881
14.456020,94,27,1,-1,38,-7,-22,12,1.879371881
14.456028,-33,-46,0,-56,-75,-15,4,-26,1.879371881
14.477025,-14,29,6,57,40,40,44,-4,1.879371881
14.477048,-55,-67,-20,-41,-91,-58,36,-35,1.879371881
14.479038,70,53,5,20,-54,64,-44,0,1.879371881
14.479053,-16,-62,-7,9,10,21,-32,-8,1.879371881
14.491727,15,72,0,0,37,14,22,-27,1.879371881
14.491758,11,-73,-1,-11,-6,14,1,28,1.879371881
14.498278,-8,-33,4,-5,-32,57,4,-38,1.879371881
14.498300,-59,-13,-1,-13,-18,-97,31,20,1.879371881
14.514538,70,-30,-16,-3,68,33,24,79,1.879371881
14.514558,-88,-45,-7,22,-6,-9,-20,-52,1.879371881
14.516191,111,42,5,-22,-1,-11,10,8,1.879371881
14.516222,-59,-51,-6,9,-23,29,-18,0,1.879371881
14.537205,-2,30,8,10,59,-26,15,-56,1.879371881
14.537226,-6,39,-3,-49,-33,29,-17,20,1.879371881
14.539191,-42,-68,6,73,116,97,62,-4,1.879371881
14.539202,67,25,5,24,44,-53,4,69,1.879371881
14.551588,-33,61,1,-5,-70,-38,-22,-32,1.879371881
14.551621,-7,10,-10,-5,-48,101,26,-3,1.879371881
14.558136,-37,-37,-2,-14,25,-22,8,4,1.879371881
14.558158,31,46,9,-9,4,13,6,-4,1.879371881
14.575103,-51,16,-4,-2,-11,32,42,-10,1.879371881
14.575121,34,-3,-5,4,-4,-17,-25,-5,1.879371881
14.576492,-49,-51,-16,-16,-16,-76,-9,15,1.879371881
14.576510,-5,-64,-2,6,8,17,22,-29,1.879371881
14.597087,7,-16,8,-2,-29,-52,-55,20,1.897533849
14.597134,27,92,6,-11,8,-9,25,-51,1.897533849
14.598375,-54,1,-8,-24,-28,-5,-25,-4,1.897533849
14.598399,53,96,9,45,-21,15,-12,-10,1.897533849
14.611382,8,-84,-12,-15,19,37,35,-29,1.897533849
14.611396,1,25,18,50,56,-111,14,38,1.897533849
14.618481,49,29,-1,-18,17,53,20,23,1.897533849
14.620377,73,61,-3,-38,4,75,-8,-9,1.897533849
14.635124,-127,-95,-2,1,17,-65,-13,-36,1.897533849
14.635151,42,-19,-1,39,76,37,5,32,1.897533849
14.637753,57,0,-11,-15,-11,-22,26,35,1.897533849
14.637764,-56,50,-5,-22,-61,-56,-26,-86,1.897533849
14.659262,52,49,6,0,18,45,13,-5,1.897533849
14.659269,53,82,14,-1,-26,1,-31,-35,1.897533849
14.659272,-91,-88,-12,-6,-9,-8,-26,28,1.897533849
14.659275,26,28,4,9,8,10,13,14,1.897533849
14.671532,-3,24,1,-25,-62,-9,-18,-7,1.897533849
14.671553,-58,37,13,30,40,18,18,4,1.897533849
14.685998,-19,-11,2,25,33,-11,-36,-31,1.897533849
14.686025,-39,24,-4,-2,31,24,18,-5,1.897533849
14.694650,11,-23,-2,-15,-71,-57,-21,-20,1.897533849
14.694673,-20,2,-2,-19,-20,77,9,11,1.897533849
14.696153,52,-30,6,-5,-55,-50,12,6,1.897533849
14.696168,-40,-31,-3,28,119,53,-29,-6,1.897533849
14.717672,67,21,3,-2,-33,-36,46,19,1.897533849
14.717698,-66,-108,-8,5,84,42,41,-18,1.897533849
14.720393,31,41,-2,-3,0,10,-76,-2,1.897533849
14.720406,44,-13,-5,-41,-77,-111,16,1,1.897533849
14.731892,46,39,-1,29,45,74,-2,-75,1.897533849
14.731919,43,38,1,22,20,27,-54,-25,1.897533849
14.738194,-23,13,4,0,9,27,-23,-18,1.897533849
14.738211,43,15,4,-7,-33,-18,17,1,1.897533849
14.753957,11,-89,-6,2,21,18,-6,6,1.897533849
14.753978,-66,9,-3,-22,-54,-17,-5,-24,1.897533849
14.755327,6,19,-8,6,-43,-55,7,-20,1.897533849
14.755338,54,44,0,-12,5,71,4,20,1.897533849
14.776882,-49,7,-1,10,22,-40,-83,-2,1.897533849
14.776913,-17,-71,-17,-21,-85,-44,-4,3,1.897533849
14.776920,19,-9,4,-4,-29,89,19,10,1.897533849
14.779274,-32,-3,2,19,37,23,14,20,1.897533849
14.800152,-11,-5,-4,-6,15,46,59,15,1.897533849
14.800159,32,19,2,-15,1,-37,-21,63,1.897533849
14.800161,38,25,2,-23,-56,-24,21,-37,1.897533849
14.800164,-25,-10,0,33,80,-32,-87,-3,1.897533849
14.814731,-28,-13,-7,3,24,55,29,-4,1.897533849
14.814748,12,24,7,-1,-21,-36,-19,47,1.897533849
14.814754,44,45,-1,7,-14,44,6,80,1.897533849
14.814759,7,-6,-9,-22,-74,-7,-1,-58,1.897533849
14.836577,11,28,2,-6,36,-10,9,-1,1.897533849
14.836599,31,9,-8,8,0,-37,-25,11,1.897533849
14.838159,-39,-46,-11,-28,38,32,8,-37,1.897533849
14.838178,3,-33,9,-10,-111,-75,-1,20,1.897533849
14.851325,-28,63,8,31,-28,-69,18,15,1.887565049
14.851346,20,-103,-18,20,52,88,-13,-41,1.887565049
14.858430,-34,64,2,-12,-25,0,86,-1,1.887565049
14.858453,6,43,-1,-2,-3,-6,-54,4,1.887565049
14.873942,68,86,10,4,57,21,-9,3,1.887565049
14.873966,-50,30,9,18,30,-35,-15,-29,1.887565049
14.876895,55,95,5,-2,1,-26,17,62,1.887565049
14.876904,-50,-109,-19,-20,-44,53,-10,-7,1.887565049
14.896665,-8,-11,-4,-12,-39,-69,-14,-4,1.887565049
14.896708,20,5,4,4,35,107,9,19,1.887565049
14.897266,6,-13,-2,5,-14,-68,-6,63,1.887565049
14.897287,29,100,18,26,42,-13,35,-10,1.887565049
14.911159,-53,-50,-9,-4,11,3,-40,-18,1.887565049
14.911191,-4,-48,-9,-22,-24,42,31,3,1.887565049
14.918216,16,-8,1,6,29,-48,33,-26,1.887565049
14.918231,-62,20,-1,1,-6,106,-10,8,1.887565049
14.934222,-13,-34,3,8,-26,-59,-12,3,1.887565049
14.934245,-23,-48,-19,-7,-46,17,-29,-14,1.887565049
14.936998,-29,-34,-9,4,34,-31,-21,-85,1.887565049
14.937012,-84,-103,-10,-23,-60,-5,9,0,1.887565049
14.956491,56,85,10,-7,10,40,-2,10,1.887565049
14.956502,46,16,11,-33,-84,-123,-24,21,1.887565049
14.957166,-85,-56,-21,-1,25,4,-30,-49,1.887565049
14.957174,31,9,8,7,-1,-24,1,4,1.887565049
14.970786,33,30,-9,-15,-17,27,47,18,1.887565049
14.970812,-43,29,8,-7,75,-31,2,-31,1.887565049
14.978368,-22,-16,1,-6,-98,38,40,-13,1.887565049
14.978382,49,88,5,26,-22,-51,-19,3,1.887565049
14.994215,41,13,-5,1,49,44,6,-23,1.887565049
14.994247,-75,8,4,22,-17,23,23,-27,1.887565049
14.997032,17,-2,-4,7,-11,-11,-66,-30,1.887565049
14.997040,21,18,-8,-35,-34,-6,24,-5,1.887565049
15.018173,32,77,5,1,-105,77,-36,19,1.887565049
15.018190,4,-29,3,-1,20,-35,48,35,1.887565049
15.018192,3,46,-12,-19,-37,-68,-18,-36,1.887565049
15.018195,85,38,16,28,71,-1,-3,49,1.887565049
15.031225,-47,18,9,-8,21,0,26,19,1.887565049
15.031258,46,13,-10,-13,-1,-3,-26,15,1.887565049
15.038281,-49,1,1,1,23,14,-33,-24,1.887565049
15.040415,5,4,-4,-23,51,9,37,11,1.887565049
15.053913,8,-57,3,49,4,-34,-55,-26,1.887565049
15.053940,-23,1,0,13,34,25,66,-9,1.887565049
15.055984,-6,103,13,14,24,4,-24,-33,1.887565049
15.056006,60,41,3,10,40,49,13,-2,1.887565049
15.076992,-103,-57,-22,-30,23,-4,-1,-11,1.887565049
15.077022,9,74,5,-14,-24,4,11,37,1.887565049
15.079969,7,24,-4,34,40,-35,-14,9,1.887565049
15.079979,-2,18,9,-36,-39,106,30,3,1.887565049
15.099102,-70,-25,-10,16,92,-77,-46,-71,1.884000257
15.099118,27,58,3,38,1,-18,-51,-13,1.884000257
15.099818,-53,-87,-9,-27,-14,36,2,23,1.884000257
15.099834,73,3,-9,-15,-56,-35,10,32,1.884000257
15.114194,-62,-98,-14,-17,41,-28,33,46,1.884000257
15.114221,26,23,14,10,-9,14,-34,2,1.884000257
15.116602,-32,25,19,17,43,8,-12,-32,1.884000257
15.116610,25,-88,-7,-10,-30,-33,20,-95,1.884000257
15.136389,56,26,-5,-29,-47,22,10,-9,1.884000257
15.136413,-43,-70,-8,-3,-6,-18,3,-10,1.884000257
15.138751,4,23,5,10,-1,35,27,36,1.884000257
15.138762,3,-18,-9,-19,-18,-31,-15,-8,1.884000257
15.159061,15,0,2,-35,-11,-11,31,-62,1.884000257
15.159104,44,46,13,70,78,12,1,33,1.884000257
15.159838,38,39,9,28,-84,45,63,3,1.884000257
15.159858,-52,-54,1,27,76,25,-96,13,1.884000257
15.174017,-32,50,8,4,-37,80,18,34,1.884000257
15.174041,-20,-89,-20,-84,-32,-41,-3,-31,1.884000257
15.175945,119,53,10,26,46,92,38,18,1.884000257
15.175953,6,102,27,16,-3,-61,-20,32,1.884000257
15.196862,-48,-128,-23,1,-25,10,-54,4,1.884000257
15.196892,51,25,-11,-31,-19,-1,-13,-42,1.884000257
15.199111,-64,81,5,-8,-6,-40,82,-23,1.884000257
15.199120,71,54,1,6,-25,-4,-50,-5,1.884000257
15.220997,-41,-1,7,-10,14,-4,22,-28,1.884000257
15.221009,-42,-23,-7,-10,-128,15,-8,-7,1.884000257
15.221011,30,-105,-19,-21,73,8,-32,-42,1.884000257
15.221014,-50,87,13,39,49,-57,39,11,1.884000257
15.233967,44,-33,-16,-56,-33,-27,-45,28,1.884000257
15.234005,8,-67,-1,41,-37,-28,90,1,1.884000257
15.236439,13,-4,5,10,11,33,-24,44,1.884000257
15.236458,-50,-70,-6,7,-74,-51,7,-40,1.884000257
15.264871,64,93,8,9,-58,68,49,70,1.884000257
15.264908,-16,-29,-2,2,24,47,-60,-28,1.884000257
15.267304,55,38,9,-22,-56,-46,-58,44,1.884000257
15.267310,-89,23,-8,-10,-54,-95,40,87,1.884000257
15.279077,89,19,23,27,26,9,-5,-26,1.884000257
15.279100,-18,-1,-25,-32,-9,22,11,-19,1.884000257
15.281273,-18,-78,-6,5,12,28,20,32,1.884000257
15.281283,-10,9,-6,-31,-74,10,1,-21,1.884000257
15.294503,19,6,0,-12,47,-16,-2,-12,1.884000257
15.294538,19,110,18,44,19,-12,-6,51,1.884000257
15.296826,16,-31,2,3,-11,-8,-21,-18,1.884000257
15.296835,-26,-95,-24,-27,84,86,60,-23,1.884000257
15.316536,-18,22,-4,0,-24,-8,3,12,1.884000257
15.316544,28,30,5,-12,23,0,-8,-19,1.884000257
15.317113,-51,-24,-6,-12,-10,2,-43,-59,1.884000257
15.317151,2,8,-1,4,-55,-33,7,-48,1.884000257
15.347159,-49,0,-2,-12,-62,96,17,14,1.941424522
15.347169,-53,-39,0,-8,-38,-98,-75,23,1.941424522
15.348040,-50,-29,-14,-18,-27,-7,1,-52,1.941424522
15.348085,70,-77,-4,39,69,44,-16,1,1.941424522
15.353977,-23,-1,-8,1,-18,-26,12,-33,1.941424522
15.354003,-1,80,9,-15,13,9,23,49,1.941424522
15.356204,-55,84,6,-7,-32,-1,-4,32,1.941424522
15.356218,-38,-50,-5,-10,29,44,12,6,1.941424522
15.376461,37,-48,-9,29,25,-43,-6,-9,1.941424522
15.376476,44,52,10,-18,-13,46,-29,20,1.941424522
15.377056,5,27,4,-6,1,15,-27,8,1.941424522
15.377094,-32,57,-5,24,73,-4,65,-1,1.941424522
15.399573,10,-103,7,7,-13,-51,-36,69,1.941424522
15.399604,-19,16,-10,-12,-7,7,-40,4,1.941424522
15.402404,-33,2,-2,-23,-29,-76,-9,-11,1.941424522
15.402416,94,98,7,-3,-19,-4,-48,81,1.941424522
15.413985,-116,52,9,7,-29,16,24,-18,1.941424522
15.414009,12,-55,0,10,34,-56,19,-15,1.941424522
15.416225,27,-46,1,6,14,54,-5,17,1.941424522
15.416233,41,24,-10,-47,-128,-48,-15,10,1.941424522
15.437768,25,49,4,54,125,85,29,-23,1.941424522
15.437778,-22,-36,-15,-43,-71,-2,13,23,1.941424522
15.437781,68,47,8,33,19,-12,6,-22,1.941424522
15.437784,-22,22,7,33,56,71,-7,-25,1.941424522
15.459707,64,16,1,-15,14,-95,-16,-35,1.941424522
15.459734,-90,-42,1,4,-23,-7,21,63,1.941424522
15.461954,0,-25,-2,-10,28,4,29,7,1.941424522
15.461969,9,18,5,3,-11,-49,-38,-27,1.941424522
15.474184,-98,-90,-21,-15,-48,30,1,57,1.941424522
15.474217,23,-10,-1,16,22,52,18,-45,1.941424522
15.476021,2,-2,-1,-25,34,-2,16,15,1.941424522
15.476034,-1,9,5,-1,26,-36,-83,-1,1.941424522
15.496553,1,15,-3,-30,-22,-9,-26,-31,1.941424522
15.496583,17,-21,5,28,-58,-15,-27,-70,1.941424522
15.499421,-25,6,-10,8,26,27,-3,-1,1.941424522
15.499431,1,-51,-3,13,90,73,110,-26,1.941424522
15.518952,80,49,7,15,7,59,-16,-43,1.941424522
15.518969,-66,-78,-19,-53,-74,12,-2,-31,1.941424522
15.519688,127,-4,3,22,42,2,34,-12,1.941424522
15.519754,-102,-5,-8,8,-17,1,0,-26,1.941424522
15.534675,34,42,9,0,-18,-31,-23,4,1.941424522
15.534693,13,-4,5,9,8,43,48,53,1.941424522
15.541774,-45,-31,-8,-29,-41,15,52,13,1.941424522
15.541802,-5,-31,-13,-13,25,-63,-62,-79,1.941424522
15.556308,89,-14,18,47,-1,27,27,82,1.941424522
15.556332,-53,59,7,5,30,-11,-25,-8,1.941424522
15.558950,51,22,-7,-12,-92,-2,-7,0,1.941424522
15.558959,19,-48,0,-9,34,-69,2,32,1.941424522
15.579497,11,27,-8,-11,-56,4,28,2,1.941424522
15.579509,63,42,8,6,11,33,25,0,1.941424522
15.579512,-58,-22,-6,-8,72,-13,-65,-80,1.941424522
15.579514,-20,22,-4,1,-55,63,84,15,1.941424522
15.602125,22,15,3,8,14,-1,-68,-6,1.975797058
15.602149,31,11,1,35,92,-14,65,21,1.975797058
15.604973,-35,35,-2,-15,-70,-13,29,35,1.975797058
15.604985,51,46,11,-2,11,16,-65,1,1.975797058
15.616309,-73,-106,-28,-16,18,21,39,-30,1.975797058
15.616359,35,-67,-12,-22,-36,-27,-1,-18,1.975797058
15.624444,5,42,10,12,14,-12,-33,72,1.975797058
15.624476,-33,19,4,2,-29,-8,43,4,1.975797058
15.638951,-14,53,1,-20,22,-21,-1,13,1.975797058
15.638968,53,111,23,19,44,-61,-79,55,1.975797058
15.640869,-25,-75,-2,10,5,74,72,-7,1.975797058
15.640880,4,-42,-12,14,15,-3,3,26,1.975797058
15.653915,-49,-5,2,1,30,-62,-8,-27,1.975797058
15.653946,-10,57,0,12,-14,21,-5,-25,1.975797058
15.656029,0,51,3,-8,-50,8,2,34,1.975797058
15.656041,40,84,16,-13,-67,-9,-1,-21,1.975797058
15.677254,-55,-101,-27,-31,-85,-35,-14,-23,1.975797058
15.677279,8,18,5,24,84,3,12,-13,1.975797058
15.677773,29,-11,3,12,43,-2,-23,-8,1.975797058
15.677871,-87,-17,-11,-24,10,-1,-38,-35,1.975797058
15.699549,23,35,8,22,-20,5,26,20,1.975797058
15.699592,-91,-101,-20,-50,-33,59,-1,-92,1.975797058
15.702020,19,-22,-5,-29,-117,-7,-3,-15,1.975797058
15.702038,-4,18,1,15,67,66,-12,74,1.975797058
15.714032,10,-41,2,11,39,-62,-1,11,1.975797058
15.714063,-9,17,-2,7,-12,50,11,-10,1.975797058
15.716472,51,-56,-22,14,23,2,-19,-8,1.975797058
15.716479,-13,-55,-13,-46,-43,21,1,-50,1.975797058
15.736494,48,41,16,13,-38,-10,0,25,1.975797058
15.736513,0,-16,-6,-13,-42,-6,2,17,1.975797058
15.737097,28,45,6,7,11,-14,-33,55,1.975797058
15.737104,56,-6,13,29,44,19,8,-7,1.975797058
15.759515,-103,-17,-15,-24,-13,-3,-30,-46,1.975797058
15.759557,89,77,8,16,27,-32,11,-32,1.975797058
15.763347,13,-89,-11,-8,70,44,12,19,1.975797058
15.763359,-1,0,-3,-16,-101,51,39,-23,1.975797058
15.774033,15,52,9,21,95,7,-24,3,1.975797058
15.774065,42,55,15,-3,-63,1,-17,44,1.975797058
15.776930,-62,-9,-16,-3,-38,-46,54,-40,1.975797058
15.776936,37,-91,4,12,74,31,-6,-1,1.975797058
15.796416,-47,-28,-3,10,25,127,40,-26,1.975797058
15.796427,-13,-58,-9,-1,33,-10,-33,-31,1.975797058
15.797033,78,74,11,-2,44,-44,-31,6,1.975797058
15.797039,-94,38,6,10,-52,-24,-13,-39,1.975797058
15.819093,64,14,-10,-14,-42,-47,3,17,1.975797058
15.819116,-7,0,-1,-4,16,-19,3,-8,1.975797058
15.821295,-39,-9,5,4,-17,5,0,-8,1.975797058
15.821310,32,-23,2,2,3,-26,-22,14,1.975797058
15.833502,23,100,9,1,18,14,-5,-6,1.975797058
15.833578,29,-67,-18,-43,-32,-3,11,38,1.975797058
15.841688,66,10,2,2,-20,-27,-32,-42,1.975797058
15.841712,-30,27,7,60,39,63,-6,58,1.975797058
15.858736,40,-27,1,3,-20,-55,45,28,1.960239961
15.858743,-13,24,-22,-18,13,24,14,-21,1.960239961
15.858745,-20,33,17,0,7,-40,15,29,1.960239961
15.858747,23,-27,-11,-26,-63,27,-32,-2,1.960239961
15.879065,-2,84,3,-4,13,38,13,-37,1.960239961
15.879087,9,-86,-5,4,-9,-5,-12,18,1.960239961
15.881519,-92,37,11,16,-23,-24,-3,-11,1.960239961
15.881526,16,-62,-20,-32,14,-30,-13,-35,1.960239961
15.902544,-4,13,2,-21,-22,4,-34,33,1.960239961
15.902574,-28,38,12,-27,-77,-74,-2,-46,1.960239961
15.905044,-63,-90,-25,28,108,-9,-36,-5,1.960239961
15.905055,51,50,5,23,-6,-41,11,4,1.960239961
15.916969,-40,-47,-7,-9,-24,15,-17,8,1.960239961
15.916994,-8,31,11,8,33,42,6,-4,1.960239961
15.920002,34,94,12,-5,-56,-62,10,18,1.960239961
15.920015,-47,-39,-10,-16,-6,-34,15,-3,1.960239961
15.938907,3,-128,-21,0,18,43,-15,-19,1.960239961
15.938921,102,121,43,-5,59,7,-29,29,1.960239961
15.939473,-13,-75,-51,12,-59,52,-29,-39,1.960239961
15.939614,-18,30,-4,1,10,-22,-19,15,1.960239961
15.953304,21,52,5,-10,-20,-28,11,8,1.960239961
15.953329,-15,36,2,22,13,4,34,33,1.960239961
15.961566,62,71,17,-21,25,69,-24,63,1.960239961
15.961590,17,-87,-4,-16,-68,-103,6,18,1.960239961
15.976618,14,66,10,14,-10,-19,-22,-10,1.960239961
15.976634,23,-27,-13,0,-5,0,-17,2,1.960239961
15.977908,10,42,4,4,14,-19,17,-13,1.960239961
15.977916,-12,-12,-2,-3,-32,90,26,1,1.960239961
16.000330,36,45,13,3,83,-86,-21,-7,1.960239961
16.000338,-97,-18,-11,-13,-64,-22,27,-16,1.960239961
16.000341,-47,-106,2,-1,85,48,0,-7,1.960239961
16.000343,18,73,10,18,-18,-57,10,-20,1.960239961
16.013750,35,-23,2,-20,-128,-21,17,0,1.960239961
16.013787,61,74,6,31,109,92,-17,-4,1.960239961
16.021454,3,-94,-1,-10,-31,-69,70,11,1.960239961
16.021478,-40,-20,-12,-10,23,59,-16,38,1.960239961
16.036513,-10,85,5,-16,-27,-33,-19,24,1.960239961
16.036540,5,-40,-16,7,-13,-43,26,-8,1.960239961
16.039056,8,94,10,-7,-51,19,-16,-8,1.960239961
16.039065,48,29,2,-10,1,-33,15,-79,1.960239961
16.061213,16,-56,-5,7,-8,20,-3,25,1.960239961
16.061224,-8,47,3,7,4,-7,-12,0,1.960239961
16.061227,-17,-5,3,2,8,14,-13,-22,1.960239961
16.061229,-28,-15,-6,-19,3,-21,-2,14,1.960239961
16.073201,-17,-28,-17,-24,-8,30,10,-23,1.960239961
16.073220,-27,-63,-5,-19,31,-77,0,10,1.960239961
16.081517,-3,8,2,34,93,20,-28,-33,1.960239961
16.081540,28,56,-11,-10,-73,-47,-82,9,1.960239961
16.096609,-79,-110,-25,-25,-6,39,49,-13,1.960239961
16.096649,-63,6,-12,-17,-71,6,-15,-19,1.960239961
16.098589,100,96,22,-13,-53,-18,-7,0,1.960239961
16.098595,12,-55,-20,-6,6,20,-7,-4,1.960239961
16.119118,19,13,3,12,59,2,-10,-15,1.949153497
16.119135,-37,-5,-11,-5,-40,-5,-17,-11,1.949153497
16.121681,-17,38,5,-1,-19,0,16,10,1.949153497
16.121699,-26,5,8,13,24,20,0,-8,1.949153497
16.133779,4,-31,-5,2,-18,-4,19,-10,1.949153497
16.133809,75,-9,15,17,41,30,27,43,1.949153497
16.141975,4,20,3,1,-25,3,-19,-13,1.949153497
16.142002,23,-13,-2,-24,4,43,20,18,1.949153497
16.156311,-46,-14,4,36,49,-66,21,-3,1.949153497
16.156323,25,13,1,12,39,7,10,-6,1.949153497
16.157022,-25,-15,3,11,78,37,-70,-32,1.949153497
16.157129,-90,-70,-20,4,-51,-11,50,-24,1.949153497
16.179538,15,62,2,-7,-23,-10,-6,-23,1.949153497
16.179583,16,-66,-1,-2,12,0,8,1,1.949153497
16.182379,-41,-6,2,-11,-10,12,12,-4,1.949153497
16.182385,90,99,32,-7,-31,-43,-2,12,1.949153497
16.201997,-84,-73,-25,-9,-32,38,-19,-38,1.949153497
16.202009,-10,-36,-7,7,-19,12,11,-10,1.949153497
16.202874,-49,18,0,-3,-27,-20,-26,22,1.949153497
16.202891,39,92,23,24,93,36,2,-30,1.949153497
16.217547,57,-14,-4,-31,-28,22,24,31,1.949153497
16.217563,73,101,16,40,-15,-37,-65,-10,1.949153497
16.217568,-66,-128,-26,-27,-54,-25,58,-47,1.949153497
16.217573,42,20,6,17,86,98,1,63,1.949153497
16.238951,39,-22,0,16,-49,25,3,-3,1.949153497
16.238975,-15,21,-18,-24,19,-72,16,-21,1.949153497
16.241068,28,46,6,10,-30,49,-12,21,1.949153497
16.241076,-16,-6,-9,20,52,-3,22,5,1.949153497
16.263901,17,66,29,5,-39,2,3,19,1.949153497
16.263912,-38,-50,-1,-67,-88,13,46,59,1.949153497
16.263915,-28,-29,-4,56,72,-4,-11,-14,1.949153497
16.263917,32,43,-1,-28,-60,-85,15,-3,1.949153497
16.276692,-13,-11,-6,11,41,28,-25,10,1.949153497
16.276715,2,6,0,-17,-41,-71,-7,-73,1.949153497
16.279255,24,35,0,3,6,1,6,36,1.949153497
16.279263,-28,-104,-6,-5,-32,15,-7,-66,1.949153497
16.299467,36,36,18,6,52,-23,-38,-6,1.949153497
16.299491,-4,9,-3,38,62,73,-32,18,1.949153497
16.299957,32,-57,-3,-27,-33,-31,89,4,1.949153497
16.299978,-63,29,-16,-51,-93,48,-84,-25,1.949153497
16.322280,109,20,5,66,77,87,39,-5,1.949153497
16.322297,-53,-35,-12,-13,-23,95,-31,-37,1.949153497
16.324059,-10,-83,-13,18,83,12,-32,-2,1.949153497
16.324074,43,90,5,-7,-51,-127,-3,33,1.949153497
16.336379,-105,-23,-14,-51,-39,-44,28,2,1.949153497
16.336398,51,70,7,16,27,35,9,4,1.949153497
16.339367,45,56,8,-35,-46,-2,21,94,1.949153497
16.339381,-2,-5,-3,13,36,0,7,-61,1.949153497
16.359257,13,-10,5,14,5,-20,-49,4,1.949153497
16.359266,58,-37,-4,7,-16,-22,18,1,1.949153497
16.359991,5,5,-4,-29,-50,2,-14,-66,1.949153497
16.360013,-12,44,2,-21,-22,-8,10,28,1.949153497
16.382447,-32,-21,-3,16,72,26,8,-47,1.961416206
16.382478,-78,-70,-2,10,54,-15,-2,6,1.961416206
16.385772,2,69,6,-2,-102,28,15,-14,1.961416206
16.385787,61,-35,-1,39,111,-26,4,23,1.961416206
16.396743,-43,0,-4,-13,-52,66,13,16,1.961416206
16.396821,2,31,4,-10,-19,-54,31,7,1.961416206
16.399755,20,-14,6,-2,-43,-50,-81,-3,1.961416206
16.399763,-87,-6,7,3,-29,62,35,-16,1.961416206
16.420202,30,39,-8,-21,-32,-49,-35,-21,1.961416206
16.420220,-4,-88,-9,1,-11,10,53,25,1.961416206
16.420222,12,-19,-7,2,-21,-12,-5,0,1.961416206
16.420224,-7,14,2,13,-27,37,41,50,1.961416206
16.442347,8,34,9,10,26,-44,-12,28,1.961416206
16.443965,27,71,10,0,-6,42,4,50,1.961416206
16.443983,-70,6,1,18,78,-17,35,52,1.961416206
16.443989,36,-32,-22,-43,14,-18,-63,-10,1.961416206
16.456460,-25,-44,-3,19,12,75,6,12,1.961416206
16.456491,-10,32,1,8,-4,-4,20,-9,1.961416206
16.458358,-14,-47,-2,-4,-58,-82,-31,-26,1.961416206
16.458364,-12,0,-4,-19,60,39,-22,-61,1.961416206
16.479364,4,21,6,21,-7,-45,34,44,1.961416206
16.479395,18,-3,9,-5,-55,-62,-20,-8,1.961416206
16.482268,20,73,-11,-15,11,121,3,-26,1.961416206
16.482277,-81,-75,0,13,4,-16,-6,-7,1.961416206
16.502007,44,-19,-10,-29,-39,-28,-10,-25,1.961416206
16.502052,62,67,6,15,46,6,-5,23,1.961416206
16.502872,16,-22,-2,12,-21,-30,26,36,1.961416206
16.502892,-36,-47,-2,-16,-26,-16,-13,56,1.961416206
16.516302,57,31,2,-16,-10,9,-43,-4,1.961416206
16.516338,-39,24,-7,37,83,96,-28,-25,1.961416206
16.517145,34,18,-10,-6,-24,-50,66,-6,1.961416206
16.517185,59,-42,10,-7,-59,62,38,49,1.961416206
16.538912,-35,18,4,10,91,7,8,0,1.961416206
16.538934,44,48,9,3,-70,27,-12,-6,1.961416206
16.541046,-5,-70,-10,-24,74,28,-15,-34,1.961416206
16.541052,-53,-20,0,17,38,67,60,-2,1.961416206
16.562513,-32,-46,-5,0,-9,-49,-8,-2,1.961416206
16.562524,41,73,8,-18,-40,-7,-20,-59,1.961416206
16.562657,14,14,1,-3,-10,-3,-16,9,1.961416206
16.562690,7,46,8,7,-14,-67,8,9,1.961416206
16.576420,56,54,-7,-56,-34,21,-23,9,1.961416206
16.576431,-56,-87,-8,27,18,32,32,-17,1.961416206
16.577154,-31,74,-4,63,97,35,-31,4,1.961416206
16.577170,3,26,-2,6,-28,-40,16,-8,1.961416206
16.598980,-2,21,0,11,28,15,29,32,1.961416206
16.599003,-24,-2,6,-13,56,15,16,14,1.961416206
16.601239,24,-35,4,-18,-11,25,-9,-6,1.961416206
16.601250,43,-11,-6,13,-40,-47,-1,-8,1.961416206
16.623688,7,28,15,15,-6,86,27,-18,1.961416206
16.623698,-31,-64,-15,-45,-24,-80,-40,-4,1.961416206
16.623701,-25,39,-13,-49,-25,3,0,-7,1.961416206
16.623703,5,-15,14,96,94,12,-64,-23,1.961416206
16.638560,-14,-53,-16,-15,-104,-29,6,16,1.943984321
16.638573,17,18,2,7,-1,17,-18,12,1.943984321
16.638576,-40,-10,-2,-11,-38,-36,-3,-36,1.943984321
16.638578,52,49,4,-10,1,44,9,56,1.943984321
16.658850,-3,28,8,6,18,-55,-56,-9,1.943984321
16.658869,-42,-83,-20,-12,-32,-22,30,13,1.943984321
16.659821,29,1,3,-16,-30,71,-5,-9,1.943984321
16.659840,-8,-31,-10,-34,2,34,2,50,1.943984321
16.682409,-34,-49,-3,26,45,-18,7,44,1.943984321
16.682440,29,32,2,-50,-95,-93,-1,8,1.943984321
16.684834,23,11,8,9,-16,5,-78,17,1.943984321
16.684846,-36,87,12,5,8,50,39,-28,1.943984321
16.696002,-31,-64,-9,38,70,-10,6,-30,1.943984321
16.696033,18,22,4,32,73,19,-19,-2,1.943984321
16.704070,-33,-7,-13,-37,-79,-71,-26,10,1.943984321
16.705158,47,49,8,4,-7,8,-22,-10,1.943984321
16.718887,-14,37,-2,-35,-77,-10,11,-26,1.943984321
16.718902,-6,3,0,0,-18,14,15,-25,1.943984321
16.719720,18,-4,6,17,44,7,20,-41,1.943984321
16.719748,20,-22,0,2,6,-29,-23,16,1.943984321
16.742572,-88,-84,-28,-22,-29,12,-6,15,1.943984321
16.742604,-73,-36,-6,4,-29,-29,4,10,1.943984321
16.745240,0,70,4,4,49,18,33,29,1.943984321
16.745245,-10,-3,-8,-69,12,-21,-2,-61,1.943984321
16.756414,-26,84,14,51,11,-36,-20,-10,1.943984321
16.756432,22,-3,-18,37,127,26,6,-17,1.943984321
16.759464,-3,9,0,5,-56,-30,31,-10,1.943984321
16.759481,-12,15,-6,-56,-103,-35,-41,-23,1.943984321
16.779053,51,93,18,57,96,56,4,47,1.943984321
16.779061,77,14,-5,-15,10,-8,11,1,1.943984321
16.779495,-59,-18,-5,-12,-25,40,11,-21,1.943984321
16.779502,31,-50,-5,32,36,-12,-13,48,1.943984321
16.802294,23,42,10,-22,-33,10,-15,-45,1.943984321
16.802311,-71,18,5,13,26,-37,-47,20,1.943984321
16.804382,86,103,22,17,31,-9,14,49,1.943984321
16.804398,-128,-103,-29,-13,-33,14,18,19,1.943984321
16.815832,-2,-47,-13,-31,-57,-7,-10,19,1.943984321
16.815855,59,4,4,-15,19,127,49,31,1.943984321
16.824109,-36,-31,-4,8,5,-68,-11,-49,1.943984321
16.824140,37,73,12,19,15,26,-15,-37,1.943984321
16.839323,35,-7,-1,-31,20,-13,-26,31,1.943984321
16.839347,-77,-12,-9,-47,-128,8,34,5,1.943984321
16.842409,-13,-15,15,79,87,-9,-14,21,1.943984321
16.842427,2,-9,-13,-13,-93,-37,29,4,1.943984321
16.862557,37,44,1,3,60,11,-1,-29,1.943984321
16.862580,46,5,4,-28,-89,6,3,33,1.943984321
16.863126,-74,-88,-25,-38,-56,17,-24,-9,1.943984321
16.863133,-68,28,11,25,34,7,22,-14,1.943984321
16.875970,35,19,-4,-20,-66,-35,-1,-29,1.943984321
16.875978,18,-39,3,15,40,-12,7,44,1.943984321
16.883969,43,11,-1,3,30,61,15,-6,1.938368983
16.886913,51,58,5,11,7,-49,23,12,1.938368983
16.899181,-9,-4,8,-20,-67,37,42,19,1.938368983
16.899205,35,65,19,-1,82,56,-44,-23,1.938368983
16.901987,-52,-23,-8,5,-68,-63,36,-6,1.938368983
16.902000,81,58,-7,12,94,61,7,-33,1.938368983
16.922029,-10,-18,-5,-1,60,23,21,-7,1.938368983
16.922046,9,45,8,29,-103,-31,11,-14,1.938368983
16.922631,3,7,14,-5,54,-25,-18,65,1.938368983
16.922638,-11,-38,1,26,45,15,-26,-6,1.938368983
16.937368,-15,-1,-3,-2,-28,-15,27,-34,1.938368983
16.937380,-91,27,-2,0,-20,-3,-5,-26,1.938368983
16.943796,68,-4,-12,-41,-46,19,29,-6,1.938368983
16.943812,-25,68,25,15,-7,-20,-47,-3,1.938368983
16.958950,-24,-44,-10,5,8,-6,34,2,1.938368983
16.958975,-8,-4,-9,-14,-21,38,-9,-21,1.938368983
16.960150,11,100,5,8,1,-67,-69,-39,1.938368983
16.960159,55,-67,1,-16,-46,29,41,11,1.938368983
16.983118,15,27,-14,-41,59,-109,-8,-12,1.938368983
16.983125,22,-42,-26,13,-6,72,-19,-19,1.938368983
16.983128,2,-15,4,3,-29,72,33,-3,1.938368983
16.983130,16,-6,-1,40,65,25,26,6,1.938368983
16.996097,-3,2,4,-18,-106,23,-4,-1,1.938368983
16.996129,-68,10,5,-2,-44,-73,-13,5,1.938368983
17.011666,46,-63,-11,-1,28,103,-1,-26,1.938368983
17.011698,-23,-42,-15,-30,52,-105,-36,-1,1.938368983
17.019158,-53,-98,-4,15,-35,25,-15,-17,1.938368983
17.019241,-45,-7,4,7,30,-1,14,19,1.938368983
17.019754,-6,43,5,-25,-26,-5,7,-10,1.938368983
17.019773,54,36,4,-2,-45,-8,-8,94,1.938368983
17.042330,-17,109,17,24,-12,13,-18,-4,1.938368983
17.042347,16,-83,-28,-12,3,-36,-7,-19,1.938368983
17.044567,-10,31,2,-19,-31,-24,-6,2,1.938368983
17.044578,4,51,-1,1,-68,-6,31,33,1.938368983
17.055721,69,-49,-11,-7,-32,61,-8,-7,1.938368983
17.055739,21,56,17,16,16,-54,-20,14,1.938368983
17.064919,-25,-50,-11,16,99,13,57,3,1.938368983
17.064951,-24,-79,-7,12,15,50,-12,-41,1.938368983
17.078961,46,83,8,-7,-72,-61,29,25,1.938368983
17.078995,-55,-16,-8,-24,-10,-64,-16,-28,1.938368983
17.079687,24,-67,-4,-27,-33,31,-1,10,1.938368983
17.079707,-38,34,-1,11,4,-6,-20,-63,1.938368983
17.102584,-37,-46,-4,10,79,16,0,27,1.938368983
17.102616,64,94,9,9,36,27,0,6,1.938368983
17.104936,-67,-26,-1,4,-16,-55,4,62,1.938368983
17.104954,46,2,-5,-33,-18,17,-10,11,1.938368983
17.116121,-11,1,8,24,-68,0,-21,-29,1.938368983
17.116161,0,98,5,20,32,-22,38,6,1.938368983
17.124748,45,-7,-14,-27,38,86,-23,-23,1.938368983
17.124778,-93,-39,6,24,-2,18,-46,-36,1.938368983
17.139013,90,42,1,6,80,116,1,17,1.921202998
17.139032,-4,-34,4,-13,-27,-8,-10,-11,1.921202998
17.139475,90,97,24,8,-52,46,-18,0,1.921202998
17.139482,-34,-118,-36,-27,82,-58,42,-36,1.921202998
17.162254,37,0,2,-4,-10,-50,-36,-12,1.921202998
17.162285,-6,-18,-5,-2,-7,53,-5,-5,1.921202998
17.165201,45,40,3,-8,-64,-43,-4,-30,1.921202998
17.165211,-9,112,6,-18,-13,38,35,47,1.921202998
17.187054,-91,-40,1,1,-11,-55,-1,-19,1.921202998
17.187066,123,13,5,18,15,39,19,95,1.921202998
17.187068,-79,-68,-9,25,36,7,-7,-61,1.921202998
17.187071,39,49,2,-10,-47,-39,4,-2,1.921202998
17.201693,-38,-61,-11,-23,-72,59,-7,-7,1.921202998
17.201705,0,3,8,-21,67,-3,-9,-16,1.921202998
17.206473,-1,-40,0,40,-21,-72,33,-21,1.921202998
17.206506,-8,-7,6,-7,-7,34,-16,-4,1.921202998
17.222092,14,50,-3,-13,-31,-74,-11,3,1.921202998
17.222113,-57,-31,-8,-11,52,46,15,-58,1.921202998
17.225155,51,102,25,25,94,-47,-11,47,1.921202998
17.225162,-49,-96,-22,-6,-22,75,63,-26,1.921202998
17.245094,24,28,-2,6,-2,-63,-46,10,1.921202998
17.245125,-1,-2,-5,-3,-58,-15,-5,22,1.921202998
17.247674,10,-43,-11,-20,-28,-16,-10,17,1.921202998
17.247690,-40,22,0,-5,-56,2,25,-65,1.921202998
17.259207,21,31,2,-10,40,-8,26,28,1.921202998
17.259239,-40,-22,-1,7,36,58,15,-12,1.921202998
17.262183,-17,-5,1,19,28,-66,-1,76,1.921202998
17.262192,62,53,15,23,79,-2,-76,-11,1.921202998
17.281351,-73,-53,-13,-13,-17,82,25,-34,1.921202998
17.281397,55,27,-2,2,-81,-92,-15,-43,1.921202998
17.288878,-7,3,12,-4,17,64,17,3,1.921202998
17.288896,5,-36,-23,-17,-4,-18,20,25,1.921202998
17.304624,-8,84,1,16,3,-74,-27,-5,1.921202998
17.304644,9,-62,1,43,14,53,-51,6,1.921202998
17.306833,-22,-46,-16,-24,-86,-24,-6,-35,1.921202998
17.306842,15,50,6,-11,-80,-9,15,-16,1.921202998
17.319106,-16,38,4,10,67,113,-4,-6,1.921202998
17.319129,36,-19,1,-3,-9,-98,10,-42,1.921202998
17.321132,-60,38,-2,-6,-6,9,43,-21,1.921202998
17.321146,-19,68,16,-14,-39,-39,-103,15,1.921202998
17.342104,36,-99,-10,3,29,-23,14,42,1.921202998
17.342115,-39,-29,-12,-15,-2,28,2,-40,1.921202998
17.342783,12,75,4,8,49,31,-1,-27,1.921202998
17.342790,25,42,10,-2,-50,97,32,56,1.921202998
17.364742,-7,8,2,-13,-60,-86,2,-19,1.921202998
17.364764,-8,24,-3,-20,38,58,32,2,1.921202998
17.366030,15,-35,-7,8,34,35,-93,-5,1.921202998
17.366037,6,-17,-6,12,65,61,36,38,1.921202998
17.378988,11,48,7,-11,-26,6,49,12,1.921202998
17.379018,68,-80,6,37,26,-16,-42,46,1.921202998
17.380783,-33,-63,-28,-50,-66,-5,-59,25,1.921202998
17.380790,22,4,2,39,58,-115,27,-10,1.921202998
17.403239,3,-1,-3,1,37,41,-30,6,1.935903825
17.403260,25,15,5,-18,-60,-11,-5,25,1.935903825
17.403263,-1,77,13,0,34,-19,53,1,1.935903825
17.403265,-15,19,3,0,-9,41,-42,-14,1.935903825
17.424597,8,-60,-7,11,31,38,-15,-6,1.935903825
17.424615,-9,65,2,-8,-47,12,7,-37,1.935903825
17.425498,86,73,5,11,22,-36,2,10,1.935903825
17.425550,-53,-93,-27,-33,-15,-9,41,-22,1.935903825
17.438894,-15,32,3,-34,-46,-50,-74,-18,1.935903825
17.438920,-15,16,11,10,69,24,7,-88,1.935903825
17.440818,40,-3,-6,51,15,117,26,7,1.935903825
17.440833,47,16,17,34,97,-59,-20,-2,1.935903825
17.462502,-49,70,2,-13,-28,-25,29,-41,1.935903825
17.462546,-20,-1,0,-22,-20,-22,1,6,1.935903825
17.464473,6,4,-16,-30,3,5,-11,-25,1.935903825
17.464480,7,-18,-5,9,-49,-1,-22,6,1.935903825
17.484892,51,-19,-1,5,-16,74,-5,-18,1.935903825
17.484920,-41,65,8,4,46,25,47,13,1.935903825
17.485419,-83,1,7,7,-42,-34,-55,-13,1.935903825
17.485446,19,-28,-12,-32,-42,-4,-12,-9,1.935903825
17.498976,-22,-10,3,4,-10,-54,15,0,1.935903825
17.498989,-1,-10,-4,11,-6,19,39,37,1.935903825
17.499588,59,59,-4,-26,47,5,8,13,1.935903825
17.499609,-83,-75,-2,-24,-100,-35,-17,31,1.935903825
17.522080,1,-62,0,35,127,72,-21,-6,1.935903825
17.522099,-6,-21,-1,4,-106,19,-14,33,1.935903825
17.523656,-12,24,6,19,104,-67,3,23,1.935903825
17.523670,15,61,31,30,47,8,16,23,1.935903825
17.544860,-85,-87,-17,4,-24,-23,-29,-10,1.935903825
17.544882,-2,-16,-25,-31,-42,33,-10,23,1.935903825
17.545340,-50,2,6,-5,-96,-21,-27,-11,1.935903825
17.545360,-44,16,1,4,57,25,-45,-30,1.935903825
17.559353,-3,38,12,3,1,-20,22,16,1.935903825
17.559382,-20,9,2,7,22,-56,-35,-8,1.935903825
17.559916,-32,-85,-10,-28,-77,0,30,-12,1.935903825
17.559936,24,48,6,-2,-34,5,12,3,1.935903825
17.582281,21,-76,-9,20,-40,18,12,10,1.935903825
17.582311,2,41,3,-30,-103,-41,16,8,1.935903825
17.586156,2,-27,-6,-1,-54,38,-13,-70,1.935903825
17.586170,6,20,-4,-5,51,1,-4,-64,1.935903825
17.604543,98,62,-1,-17,58,-30,30,17,1.935903825
17.604558,-48,-88,-21,-9,23,-2,-73,-25,1.935903825
17.605326,71,-41,2,33,-29,31,63,57,1.935903825
17.605334,93,23,-1,-3,18,-5,8,-18,1.935903825
17.627119,-21,71,-1,-30,-24,5,14,13,1.935903825
17.627136,1,-13,-2,-25,37,-28,-15,-60,1.935903825
17.629614,6,-88,-1,9,98,-13,12,-4,1.935903825
17.629620,20,114,13,13,-15,31,40,36,1.935903825
17.642216,24,-50,-34,-10,14,38,-26,-44,1.935903825
17.642247,-38,15,-1,10,34,-27,3,11,1.935903825
17.644662,-26,23,-1,-32,-51,0,-9,-1,1.935903825
17.644668,69,-27,-5,24,-15,-10,6,-9,1.935903825
17.665415,19,16,11,-20,-17,33,-13,-5,1.922185455
17.665422,0,-17,-1,26,-10,-45,0,-11,1.922185455
17.665425,22,66,-4,-10,-70,-33,-46,-24,1.922185455
17.665427,-81,29,-4,7,77,-15,4,18,1.922185455
17.678838,-42,-38,-5,-4,-32,-2,21,0,1.922185455
17.678848,40,28,-11,17,-21,10,-21,10,1.922185455
17.686572,6,63,7,-9,1,10,10,0,1.922185455
17.686590,42,46,4,-5,-13,4,11,-29,1.922185455
17.702407,-16,-24,11,19,11,-10,-15,71,1.922185455
17.702433,-92,-77,-15,-28,-4,13,11,0,1.922185455
17.704357,4,-92,-11,-12,-5,-1,-10,-29,1.922185455
17.704376,17,-64,-6,-8,-16,-24,-45,-10,1.922185455
17.732246,29,127,12,7,9,51,126,36,1.922185455
17.732260,125,26,16,-4,-81,-32,-85,27,1.922185455
17.733993,-61,-85,-20,-12,10,37,40,-14,1.922185455
17.734003,-106,-33,-11,4,4,7,-27,-47,1.922185455
17.738207,36,50,-1,-2,64,-62,4,-8,1.922185455
17.738224,49,24,12,-4,0,41,24,28,1.922185455
17.747168,-41,40,8,13,18,43,-1,1,1.922185455
17.747193,22,5,-1,-28,-27,-104,-29,43,1.922185455
17.762325,-40,-43,1,5,6,38,55,-16,1.922185455
17.762350,-16,1,-4,27,127,115,31,-51,1.922185455
17.765579,26,-10,7,11,-27,-86,-33,-58,1.922185455
17.765588,4,-119,-18,-33,-84,95,51,7,1.922185455
17.784733,11,55,11,47,50,-13,-65,-16,1.922185455
17.784759,1,-10,-2,-7,-39,69,28,9,1.922185455
17.787745,39,79,17,24,88,-24,30,39,1.922185455
17.787756,-16,-5,-1,-15,-50,9,-1,3,1.922185455
17.798330,43,46,13,-7,1,-14,-14,-7,1.922185455
17.798346,10,95,3,5,-39,14,-2,7,1.922185455
17.808907,-110,-53,-16,-19,0,1,-35,12,1.922185455
17.808923,78,63,23,3,-8,14,26,40,1.922185455
17.822090,-78,-17,-10,-10,-17,-10,-10,-18,1.922185455
17.822103,-43,-45,-7,-2,2,-52,13,-3,1.922185455
17.823523,30,48,-2,-4,58,28,41,61,1.922185455
17.823530,48,82,2,-29,-74,9,25,5,1.922185455
17.845154,-40,-11,-5,45,42,19,-37,-19,1.922185455
17.845183,36,17,8,-21,-115,-29,27,52,1.922185455
17.848417,-4,-36,5,40,85,-45,-42,-31,1.922185455
17.848426,-9,8,8,23,-54,40,51,17,1.922185455
17.858698,21,-18,-5,-35,-76,-36,-72,-4,1.922185455
17.858729,-48,-50,-7,-23,-7,-41,23,-30,1.922185455
17.868866,11,15,5,6,-9,42,-27,14,1.922185455
17.868881,-14,11,-6,-12,35,-25,-22,2,1.922185455
17.883379,9,-6,-10,-43,-59,-22,3,-89,1.922185455
17.883387,-31,-13,30,75,91,13,43,-28,1.922185455
17.883491,55,64,-24,-16,-5,-46,23,0,1.922185455
17.883498,-1,-27,-8,-6,-32,20,11,-16,1.922185455
17.904553,71,49,-6,-3,-30,-120,22,16,1.933312475
17.904576,65,98,2,-29,-61,115,-45,-22,1.933312475
17.907638,-16,-88,-8,13,43,-19,39,-2,1.933312475
17.907653,-128,-83,-14,13,78,-52,-60,-26,1.933312475
17.918979,71,16,15,8,-58,24,26,93,1.933312475
17.919003,1,46,4,44,120,16,-21,18,1.933312475
17.930038,8,13,7,-14,-128,-10,-25,-3,1.933312475
17.930046,-2,13,-6,0,6,23,-9,-33,1.933312475
17.944452,-54,-56,-4,-24,-27,4,26,47,1.933312475
17.944460,-3,-45,-6,-16,-16,-58,20,9,1.933312475
17.944463,-13,-14,0,1,45,38,-27,-12,1.933312475
17.944466,86,63,17,23,-12,-9,-2,-9,1.933312475
17.965020,-71,22,2,8,16,33,-20,3,1.933312475
17.965042,79,20,-10,-18,-16,-12,8,8,1.933312475
17.967798,-14,2,-14,-48,30,-8,25,-51,1.933312475
17.967815,15,33,15,22,-21,48,31,73,1.933312475
17.987155,64,70,-2,29,-44,-93,-42,-58,1.933312475
17.987178,-65,-112,-8,-15,-17,-33,3,-1,1.933312475
17.989185,11,127,14,2,45,101,33,6,1.933312475
17.989194,-63,-84,-7,4,30,-9,-82,-22,1.933312475
18.002357,62,19,-6,-11,0,97,47,3,1.933312475
18.002376,-30,12,0,0,4,-31,-36,13,1.933312475
18.004694,21,-46,-2,-20,-76,-22,5,70,1.933312475
18.004708,51,-29,-15,-16,1,-33,-12,-15,1.933312475
18.024663,-66,-50,3,12,20,26,17,45,1.933312475
18.024700,13,26,-2,-9,26,-22,-24,1,1.933312475
18.025999,-27,-34,3,12,-19,6,7,13,1.933312475
18.026006,-39,17,-9,-11,-10,2,16,-9,1.933312475
18.039052,8,25,1,-40,-21,-5,-15,-30,1.933312475
18.039064,47,-38,5,28,56,15,-7,6,1.933312475
18.049031,-13,17,10,44,-34,-32,-18,-21,1.933312475
18.049046,-29,-117,-16,-3,-14,-50,16,-80,1.933312475
18.062148,-1,19,-4,-22,-30,71,-50,-51,1.933312475
18.062179,-32,39,6,16,19,-13,36,-2,1.933312475
18.063672,93,93,25,2,-25,47,33,-3,1.933312475
18.063682,-76,-80,-7,-7,20,-45,-48,-21,1.933312475
18.085306,62,-23,-9,17,79,30,19,63,1.933312475
18.085320,-31,67,-6,-10,-34,20,-11,13,1.933312475
18.086219,-65,-78,-17,-8,5,-8,6,-52,1.933312475
18.086244,89,127,24,11,-17,33,20,102,1.933312475
18.107352,-19,-61,-7,-7,-15,4,0,30,1.933312475
18.107372,-70,-2,1,7,6,8,-18,-10,1.933312475
18.108680,58,51,2,-9,10,-39,-2,1,1.933312475
18.108696,-27,-51,-13,-12,40,4,6,18,1.933312475
18.122055,-16,-45,-4,-24,-48,82,6,-47,1.933312475
18.122078,36,-31,1,49,44,-121,-47,-20,1.933312475
18.123650,-27,17,-5,-13,7,112,-36,13,1.933312475
18.126346,-46,-42,-3,4,-9,-64,-3,-25,1.933312475
18.145117,-19,-4,3,2,-6,-16,-32,-67,1.933312475
18.145148,-13,-18,-8,9,-13,-80,8,6,1.933312475
18.147596,-2,-6,-1,-16,-1,48,47,0,1.933312475
18.147607,15,54,4,22,54,17,-10,-10,1.933312475
18.167936,-32,0,1,-15,-34,-63,-2,-16,1.920107869
18.167960,53,30,-4,-10,8,38,16,6,1.920107869
18.171114,60,63,12,9,-30,-39,-6,74,1.920107869
18.171127,-60,12,-10,-20,-51,17,37,-40,1.920107869
18.181304,-22,11,0,11,81,12,-1,-19,1.920107869
18.181313,-36,-79,-2,-26,-30,98,-9,-29,1.920107869
18.190781,36,75,-6,-10,-32,-101,-19,-13,1.920107869
18.190788,14,-50,3,-3,8,23,-4,3,1.920107869
18.204782,-31,38,11,33,20,-9,9,11,1.920107869
18.205963,-62,-80,-16,-24,-52,69,-39,-42,1.920107869
18.206146,-36,-14,-1,8,63,46,87,-13,1.920107869
18.206183,-33,50,-5,-13,60,-73,-46,-4,1.920107869
18.227169,33,-8,8,54,49,40,59,29,1.920107869
18.227177,23,63,6,-14,-41,-27,-3,7,1.920107869
18.228548,-33,-43,6,2,-24,-24,1,-33,1.920107869
18.228568,57,-72,-12,-43,2,42,-27,11,1.920107869
18.240712,50,21,2,16,38,-79,41,-8,1.920107869
18.240726,-59,-4,-1,1,15,6,19,-35,1.920107869
18.251520,-1,-18,4,9,-21,-19,-51,-32,1.920107869
18.251535,3,94,8,-1,-53,49,32,11,1.920107869
18.264785,12,-90,-24,-25,-39,-14,-32,-30,1.920107869
18.264808,15,58,3,-3,-35,-19,-12,0,1.920107869
18.266681,0,-93,-12,-23,23,-9,15,-23,1.920107869
18.266687,89,92,11,28,-111,-45,-8,4,1.920107869
18.288125,-37,-33,-5,-8,92,-7,27,22,1.920107869
18.288138,28,49,7,36,62,94,29,-14,1.920107869
18.288481,-20,3,3,6,-83,4,-45,19,1.920107869
18.288488,27,86,15,15,115,83,28,-4,1.920107869
18.304820,15,-94,-3,-3,-83,-16,-29,55,1.920107869
18.304831,84,17,6,-14,-13,-68,-26,-37,1.920107869
18.315879,-63,-104,-25,-8,18,8,-19,13,1.920107869
18.315910,-21,32,2,6,100,30,50,2,1.920107869
18.324825,-71,60,10,-5,-15,30,-57,-37,1.920107869
18.324842,-21,11,-12,-34,-28,-17,-3,7,1.920107869
18.326201,66,63,22,12,-7,37,-66,91,1.920107869
18.326215,107,47,-11,0,-20,-10,26,55,1.920107869
18.349433,-64,-20,-10,-13,62,-18,23,-28,1.920107869
18.349449,9,80,4,-11,-58,-26,35,43,1.920107869
18.349455,-34,-44,-10,-27,-31,4,-16,31,1.920107869
18.349460,-26,-41,3,5,33,-22,27,-2,1.920107869
18.361753,33,30,2,-1,-54,19,20,-1,1.920107869
18.361777,8,20,5,24,49,-61,0,7,1.920107869
18.368869,16,8,3,3,14,15,53,-15,1.920107869
18.368893,-36,7,-1,-13,-98,-41,-48,-30,1.920107869
18.385044,35,-73,-8,-6,36,46,24,21,1.920107869
18.385068,-8,13,-2,-24,-64,-59,-25,38,1.920107869
18.387001,-48,-61,-2,10,62,9,26,-24,1.920107869
18.387021,57,3,-3,17,-17,-90,-44,12,1.920107869
18.407274,-21,15,4,5,-23,-11,-20,-13,1.920107869
18.407306,9,-15,-2,2,21,50,-29,33,1.920107869
18.410053,49,108,13,13,6,-5,7,-2,1.920107869
18.410063,16,-56,-8,-15,21,67,-5,-10,1.920107869
18.421576,-22,33,-1,-2,-42,-51,19,-3,1.925488858
18.421593,61,28,-4,-7,2,115,41,29,1.925488858
18.435843,-13,-20,-11,24,24,-71,-34,56,1.925488858
18.435866,-94,7,-13,-17,-54,-8,-10,-73,1.925488858
18.444729,4,-70,3,19,61,35,-16,-12,1.925488858
18.444746,-39,-18,-2,6,-19,61,69,-29,1.925488858
18.447008,7,120,12,-3,-37,-54,-69,-22,1.925488858
18.447017,-40,-102,-7,4,-16,30,-2,-6,1.925488858
18.467526,15,113,12,-12,24,-6,39,55,1.925488858
18.467547,-6,-107,-24,-2,-11,8,5,-15,1.925488858
18.470488,-4,-63,-1,-4,49,24,22,-54,1.925488858
18.470501,35,-36,-5,1,-47,-23,-40,17,1.925488858
18.481649,0,39,4,-14,28,-24,-15,-12,1.925488858
18.481680,12,-67,-4,5,11,2,-12,-3,1.925488858
18.488308,-27,13,-7,-11,32,21,24,-13,1.925488858
18.488325,59,105,10,-22,-24,25,-4,19,1.925488858
18.505548,-66,-95,-11,38,63,-26,51,-30,1.925488858
18.505561,6,113,8,-2,-1,27,-51,-17,1.925488858
18.506218,20,-112,-30,5,-1,-28,-9,-68,1.925488858
18.506229,13,25,5,-13,-51,-42,47,64,1.925488858
18.526967,22,103,1,-5,51,51,-110,-6,1.925488858
18.526985,6,-37,0,-15,-2,-31,61,10,1.925488858
18.528460,-54,54,9,-2,-64,18,22,-44,1.925488858
18.528475,2,-44,-4,9,40,15,20,46,1.925488858
18.541507,45,55,-7,-12,-49,-24,22,-7,1.925488858
18.541530,-45,-62,8,-6,-47,-48,-82,13,1.925488858
18.548737,111,-2,9,15,92,99,6,19,1.925488858
18.548766,-43,-37,-5,13,56,7,9,-32,1.925488858
18.564656,22,41,7,-10,-128,-51,-4,0,1.925488858
18.564673,-58,3,-17,-3,57,24,-9,-13,1.925488858
18.567252,-19,-3,1,-1,14,1,50,19,1.925488858
18.567263,27,65,10,-7,-30,-21,-49,-13,1.925488858
18.587259,-55,-65,-11,6,-16,-5,27,-18,1.925488858
18.587380,-45,-53,-8,-48,-54,-30,56,-44,1.925488858
18.590078,-17,-111,-10,13,70,8,-92,-39,1.925488858
18.590095,-18,6,8,46,-16,63,56,56,1.925488858
18.600760,77,65,4,-19,-28,-11,-57,-1,1.925488858
18.600796,-13,-46,3,3,25,-24,18,-4,1.925488858
18.610759,-5,55,-8,-24,-52,-55,23,-6,1.925488858
18.610777,-43,-58,-13,-8,19,-22,-36,-42,1.925488858
18.624824,32,-5,3,-1,-17,30,3,-3,1.925488858
18.624848,23,48,-2,7,28,32,31,8,1.925488858
18.628163,0,93,4,-13,-30,-59,-62,-70,1.925488858
18.628173,-4,-104,3,-4,7,54,46,-7,1.925488858
18.647448,-22,-44,-16,22,67,-58,29,15,1.925488858
18.647475,4,28,1,-17,-77,-17,8,0,1.925488858
18.650090,-23,-16,-6,27,35,58,35,-14,1.925488858
18.650106,11,118,12,-14,40,-24,38,-17,1.925488858
18.660630,-9,-117,1,11,28,17,-25,-3,1.925488858
18.660647,30,39,-2,1,-90,8,-3,15,1.925488858
18.671449,61,-49,-8,-45,-3,82,-26,16,1.925488858
18.671464,-26,30,0,0,10,-45,18,-32,1.925488858
18.684918,14,-87,-15,10,27,72,-11,51,1.924123334
18.684951,-24,-15,-7,-2,6,-36,-28,23,1.924123334
18.687657,-6,34,6,4,-55,10,31,24,1.924123334
18.687670,2,29,3,-5,-23,10,-32,-30,1.924123334
18.707003,5,54,7,-14,-14,-7,13,7,1.924123334
18.707014,27,-1,5,21,21,-15,-7,14,1.924123334
18.708572,60,53,9,-4,-34,-44,5,-16,1.924123334
18.708579,15,-62,-17,-27,-10,25,-52,11,1.924123334
18.722244,28,-25,1,15,-39,-25,-4,-20,1.924123334
18.722256,-37,-18,0,20,59,-65,34,-19,1.924123334
18.731256,-2,-3,4,30,-28,51,-58,85,1.924123334
18.731272,-1,65,-4,-37,-64,38,63,4,1.924123334
18.754223,-50,-72,4,16,57,14,-20,52,1.924123334
18.754237,8,-67,-11,-8,1,44,-24,20,1.924123334
18.754240,54,29,-4,16,4,-88,-35,26,1.924123334
18.754243,-61,-2,4,6,10,-9,0,5,1.924123334
18.767513,-3,99,-3,-51,-122,34,-35,-20,1.924123334
18.767549,-71,-67,-17,6,32,2,56,-59,1.924123334
18.770343,-17,58,8,-3,-41,-29,-55,-11,1.924123334
18.770356,14,-50,-12,-24,45,26,-65,-17,1.924123334
18.780718,17,14,7,27,16,-67,24,-26,1.924123334
18.780739,8,52,7,-10,10,21,-40,-4,1.924123334
18.790034,20,60,5,-1,-42,-86,24,33,1.924123334
18.790053,9,12,10,30,36,52,24,6,1.924123334
18.804597,-15,16,-4,0,-17,-15,-12,-29,1.924123334
18.804622,3,-70,-4,-6,62,118,27,17,1.924123334
18.806519,-59,-28,-15,-22,-40,-64,-8,58,1.924123334
18.806534,-4,65,5,14,15,-8,-5,46,1.924123334
18.826980,-86,-89,-2,-9,21,27,3,-25,1.924123334
18.826998,94,-9,6,30,-20,-28,37,3,1.924123334
18.828716,-85,-14,-19,-41,-3,37,20,-26,1.924123334
18.828757,9,55,5,20,-7,-49,-21,-26,1.924123334
18.840645,11,-30,-23,-24,-54,6,14,-7,1.924123334
18.840663,27,72,10,-5,-2,-7,-39,5,1.924123334
18.849522,-19,12,10,16,27,19,24,-14,1.924123334
18.849601,0,-24,-7,-8,-22,-12,-20,-31,1.924123334
18.872087,-26,-3,-2,0,16,58,83,11,1.924123334
18.872105,4,-15,0,-7,-48,-98,-26,4,1.924123334
18.873678,18,46,6,-1,-16,80,46,0,1.924123334
18.873689,-2,-55,-7,20,17,-50,-19,3,1.924123334
18.887171,-2,-16,0,-4,74,9,-21,-4,1.924123334
18.887198,38,5,-7,-16,-4,14,-33,-20,1.924123334
18.888735,-42,43,5,0,-5,-46,37,40,1.924123334
18.888749,44,-26,-13,4,-54,-13,31,11,1.924123334
18.901172,-32,15,7,-12,-48,5,-31,-33,1.924123334
18.901198,-18,37,8,-2,-12,-30,18,-21,1.924123334
18.912289,9,-67,11,11,22,13,-10,9,1.924123334
18.912297,60,-30,-7,2,9,5,3,13,1.924123334
18.924581,18,93,-5,-16,46,29,-22,-70,1.924123334
18.924599,15,0,7,23,-8,-15,44,68,1.924123334
18.926993,-20,28,-9,-7,67,17,8,-34,1.924123334
18.927004,-16,35,12,-6,-34,-15,-11,-4,1.924123334
18.954498,-12,-24,-6,-31,-45,-22,16,17,1.941848149
18.954517,-6,8,1,50,94,12,0,-8,1.941848149
18.956573,27,-41,-1,4,-8,-32,-39,-23,1.941848149
18.956591,16,40,9,44,117,89,40,11,1.941848149
18.961147,-49,74,2,-23,-81,-71,-31,7,1.941848149
18.961168,-32,37,-18,-11,79,67,-23,-27,1.941848149
18.971883,-3,-109,-6,8,23,88,-2,29,1.941848149
18.971897,-8,39,13,-19,-52,-26,17,-34,1.941848149
18.984722,113,82,10,2,-41,8,19,47,1.941848149
18.984753,-50,-88,-28,-18,-44,-6,-57,-25,1.941848149
19.002108,-11,-77,-13,-3,-1,7,31,-41,1.941848149
19.002119,21,42,19,7,21,9,-9,2,1.941848149
19.007321,27,-67,-20,-7,-21,0,-3,4,1.941848149
19.007353,4,26,6,-4,-9,-11,-29,-15,1.941848149
19.009216,17,19,-7,-34,-8,-2,41,-54,1.941848149
19.009223,-6,-11,2,30,11,-5,0,30,1.941848149
19.020791,-23,45,12,17,74,5,7,-3,1.941848149
19.020809,-39,-90,-4,17,60,12,2,-1,1.941848149
19.032588,27,36,4,23,6,-11,5,-12,1.941848149
19.032596,-21,-10,-8,-6,-41,4,-24,-5,1.941848149
19.044811,-22,42,-1,2,18,66,7,-56,1.941848149
19.044842,26,-40,-4,-36,-95,21,47,51,1.941848149
19.047695,1,29,2,-15,-4,-5,-35,13,1.941848149
19.047701,-16,-93,-18,-16,17,-18,-10,-12,1.941848149
19.068860,61,-35,-1,6,4,59,-30,106,1.941848149
19.068874,5,127,17,-3,-1,-75,35,15,1.941848149
19.068877,-50,-25,-8,5,-39,-2,12,-21,1.941848149
19.068880,13,-49,-20,-27,-41,-16,-29,-16,1.941848149
19.089665,-55,-41,2,-11,-39,-43,9,-22,1.941848149
19.089684,61,77,38,-9,38,51,9,-11,1.941848149
19.091115,33,-40,-15,29,72,-48,-30,54,1.941848149
19.091131,13,66,-2,32,87,-15,-35,-12,1.941848149
19.104657,17,26,4,5,13,59,25,72,1.941848149
19.104682,38,72,15,14,25,23,-63,7,1.941848149
19.106045,-68,-71,-10,-1,-88,-72,19,-19,1.941848149
19.106054,-30,-59,-9,-22,19,10,19,-40,1.941848149
19.127408,54,56,14,-8,-86,-27,16,26,1.941848149
19.127449,-4,-40,-3,28,70,25,-4,-22,1.941848149
19.129749,-34,39,-3,-26,-47,30,-17,-51,1.941848149
19.129758,-22,-23,2,-6,-30,-5,6,0,1.941848149
19.149808,-15,-22,-4,10,6,-57,-10,-33,1.941848149
19.149830,22,45,-8,-32,-54,-16,-14,-21,1.941848149
19.151331,-13,7,8,0,-74,-2,12,-26,1.941848149
19.151345,15,32,10,10,120,5,11,-2,1.941848149
19.164794,33,1,9,56,-23,-23,-7,45,1.941848149
19.164818,57,33,0,-21,-44,24,-23,2,1.941848149
19.165891,-36,-49,-9,-4,-33,102,27,7,1.941848149
19.165898,56,43,1,1,-37,-19,-57,-21,1.941848149
19.187194,14,-10,-2,21,107,92,-6,-14,1.906186700
19.187218,-19,-15,6,-1,-42,-23,14,40,1.906186700
19.189380,51,-5,-10,-8,-13,-31,-30,101,1.906186700
19.189389,-49,-45,-9,-30,-47,30,15,7,1.906186700
19.209747,-11,29,-6,15,-8,-67,-22,-70,1.906186700
19.209771,-27,-37,-2,-1,9,1,-10,4,1.906186700
19.211064,-2,49,9,-3,-40,-26,-9,-38,1.906186700
19.211085,81,42,1,4,-58,54,36,82,1.906186700
19.223595,-13,-80,-10,-25,-9,-46,-2,1,1.906186700
19.223610,-1,15,4,8,27,9,14,-18,1.906186700
19.233850,28,35,12,10,13,-17,-1,1,1.906186700
19.233860,-76,31,-9,-26,-65,-27,51,-9,1.906186700
19.247170,-21,-3,-10,-15,57,33,-45,-33,1.906186700
19.247201,-8,7,-1,8,-23,41,14,-3,1.906186700
19.250242,45,11,-3,27,127,48,25,-1,1.906186700
19.250251,-4,25,33,-5,-79,-71,6,17,1.906186700
19.271086,-17,-51,-27,-30,-52,19,42,-31,1.906186700
19.271099,-49,-34,-13,46,67,-20,-70,50,1.906186700
19.271102,27,39,15,12,13,-11,12,24,1.906186700
19.271105,49,67,1,-15,-39,42,10,3,1.906186700
19.284331,-81,-92,-15,-27,-9,-50,-19,-64,1.906186700
19.284358,29,41,-8,-8,-18,-37,-16,-36,1.906186700
19.290755,-59,36,4,-4,6,3,-14,-10,1.906186700
19.290772,-6,58,-3,-4,14,-12,-3,-4,1.906186700
19.307225,13,-35,4,-3,30,-73,-57,-10,1.906186700
19.307245,26,-12,-1,23,26,34,27,13,1.906186700
19.309530,40,70,6,-49,-69,-10,16,-2,1.906186700
19.309538,24,10,-12,50,127,107,-24,-15,1.906186700
19.329657,-39,-16,-7,4,-115,-95,-4,-33,1.906186700
19.329681,-5,-1,-3,-7,-50,43,64,-9,1.906186700
19.331344,30,38,0,5,19,-42,-51,-34,1.906186700
19.331360,30,31,20,-4,-41,40,31,34,1.906186700
19.343859,-24,51,-5,-16,10,15,-10,1,1.906186700
19.343877,6,42,1,-6,-9,-44,2,-26,1.906186700
19.351010,47,-28,1,-6,23,8,13,2,1.906186700
19.351041,-96,-123,-15,-7,-3,-33,-7,-91,1.906186700
19.367480,13,43,10,11,16,38,-10,32,1.906186700
19.367511,-89,-75,-13,-29,14,-36,-6,-27,1.906186700
19.369949,-18,-17,-2,-12,-49,47,7,67,1.906186700
19.369962,-34,-34,-13,-6,83,-41,-15,-37,1.906186700
19.389582,92,112,27,19,-39,5,23,50,1.906186700
19.389601,37,-52,-21,9,52,40,-41,-10,1.906186700
19.392409,1,-6,2,8,19,-50,18,-35,1.906186700
19.392431,-7,-57,-7,-22,-33,-8,-52,19,1.906186700
19.403861,58,127,25,-4,52,101,8,39,1.906186700
19.403879,-9,-13,-16,-39,-47,-40,-2,-14,1.906186700
19.410596,-5,-34,-4,46,88,52,26,11,1.906186700
19.410618,34,12,2,7,-25,-25,11,71,1.906186700
19.426945,-34,26,28,-15,-18,-17,6,-24,1.906186700
19.426955,-85,-82,-31,-8,-31,-13,-25,-18,1.906186700
19.428451,-9,-5,-9,-20,-52,-15,-15,-54,1.906186700
19.428483,29,52,5,-6,-46,-42,7,-4,1.906186700
19.449679,-52,81,9,15,68,50,60,-14,1.906853687
19.449703,-14,-81,-12,-28,-18,-15,-36,1,1.906853687
19.452316,-67,9,-4,18,-9,-17,-4,-90,1.906853687
19.452329,0,-10,-5,-9,60,18,24,20,1.906853687
19.464126,52,-19,-13,6,30,-71,-69,0,1.906853687
19.464216,31,-6,15,13,-58,115,64,10,1.906853687
19.470964,-28,-11,0,-3,80,-113,-16,-7,1.906853687
19.470990,-37,-36,2,20,10,95,-77,-83,1.906853687
19.487269,11,-12,0,-2,-37,27,99,47,1.906853687
19.487280,87,110,2,-14,-50,-18,7,40,1.906853687
19.488565,36,65,10,-2,7,37,-4,28,1.906853687
19.488571,-44,-59,-10,-5,-19,5,13,-18,1.906853687
19.509850,-26,-41,-7,-15,-14,-2,-18,-19,1.906853687
19.509870,29,98,22,16,-9,-23,-7,-2,1.906853687
19.511039,-15,59,8,-3,-51,45,23,7,1.906853687
19.511053,37,-23,-16,-51,-62,-2,9,-50,1.906853687
19.523241,-23,-87,-26,56,40,18,-30,-37,1.906853687
19.524512,-82,29,-9,-1,37,-48,19,-4,1.906853687
19.532707,45,40,15,25,-41,72,-4,28,1.906853687
19.532712,15,50,-4,3,79,-37,-1,10,1.906853687
19.547461,42,-18,2,0,-1,85,-1,14,1.906853687
19.547493,15,-17,12,-3,17,-81,3,-12,1.906853687
19.550323,-20,-123,-22,-19,-14,58,-4,0,1.906853687
19.550332,22,84,0,-6,-123,-28,22,36,1.906853687
19.570162,27,-77,-11,-8,66,-6,-5,44,1.906853687
19.570224,1,30,8,12,22,-7,5,6,1.906853687
19.571224,65,-15,12,-18,-34,-11,-18,9,1.906853687
19.571243,-51,-111,-40,-26,-6,-34,-23,0,1.906853687
19.583306,-23,86,8,55,29,31,26,2,1.906853687
19.583343,25,35,7,-17,-24,-39,-33,-5,1.906853687
19.594042,4,80,14,21,45,-37,-15,-4,1.906853687
19.594056,3,-22,15,38,53,24,44,12,1.906853687
19.607238,12,-37,-15,-4,28,-37,-54,34,1.906853687
19.607270,-31,-9,7,-10,-34,125,14,10,1.906853687
19.609889,83,86,16,8,-22,-92,-29,65,1.906853687
19.609896,-93,-111,-35,-13,-5,9,84,-52,1.906853687
19.629587,-33,111,-2,-28,-88,-47,-67,-36,1.906853687
19.629597,11,8,-9,-6,-10,44,56,10,1.906853687
19.630931,16,59,-3,-7,-2,42,11,30,1.906853687
19.630938,20,85,34,51,82,-55,-23,32,1.906853687
19.643529,-48,-11,-19,-12,-37,-34,22,0,1.906853687
19.643546,-2,30,-1,14,-30,42,-26,15,1.906853687
19.654392,-89,-60,-11,-12,-24,-3,30,-33,1.906853687
19.654407,111,127,44,13,2,-12,-25,52,1.906853687
19.667656,8,-32,-26,-33,-8,5,12,-59,1.906853687
19.667687,33,10,9,5,30,-22,-31,3,1.906853687
19.671000,-8,-11,-8,3,18,30,28,-12,1.906853687
19.671013,13,-39,11,-6,-54,-6,-27,62,1.906853687
19.691454,15,42,7,-25,48,5,5,-27,1.906853687
19.691461,60,-92,-3,18,-25,54,6,11,1.906853687
19.691464,-32,-51,-7,-6,-28,10,39,-5,1.906853687
19.691467,-6,6,-12,10,76,23,-93,-21,1.906853687
19.703491,-87,-104,12,60,58,46,54,-12,1.890616078
19.703514,39,23,-2,15,9,-51,24,-2,1.890616078
19.713484,51,-1,-7,-8,-29,-6,8,34,1.890616078
19.713498,3,55,4,-16,-68,5,50,-15,1.890616078
19.727093,-2,-29,-3,-22,7,38,22,24,1.890616078
19.727111,-20,99,16,2,29,-19,-17,-48,1.890616078
19.729253,-112,-128,-36,-18,-2,-27,10,-84,1.890616078
19.729267,-22,-16,-15,-15,-23,-7,-26,-46,1.890616078
19.750215,113,-44,16,-8,-50,-31,8,62,1.890616078
19.750245,19,36,5,-38,24,77,32,-52,1.890616078
19.753394,-29,46,8,39,-36,-72,-101,-11,1.890616078
19.753407,15,8,-4,24,101,90,29,72,1.890616078
19.763711,-13,18,1,-11,-95,-15,1,-32,1.890616078
19.763740,-17,9,0,-13,-77,-65,5,-2,1.890616078
19.772597,-29,-39,-6,2,64,12,-39,3,1.890616078
19.772611,33,55,17,5,33,66,43,13,1.890616078
19.787490,-22,-63,-24,-28,-23,-5,28,-38,1.890616078
19.787502,-6,25,-10,12,24,-26,-48,14,1.890616078
19.789028,32,46,4,-14,-35,-2,48,22,1.890616078
19.789034,-7,43,5,16,48,8,-11,21,1.890616078
19.809634,63,64,1,-17,-50,40,23,4,1.890616078
19.809657,42,27,-2,12,4,-55,-14,12,1.890616078
19.811224,-57,-104,-12,-21,15,102,-32,-50,1.890616078
19.811238,96,19,-17,-27,-90,-39,18,69,1.890616078
19.823367,4,102,10,24,39,-5,-21,55,1.890616078
19.823398,-10,-64,-5,7,11,-1,9,-16,1.890616078
19.833492,20,79,10,-6,17,34,1,-15,1.890616078
19.833503,-31,-53,-7,15,56,2,-9,-1,1.890616078
19.846942,14,12,8,22,33,-24,-13,-6,1.890616078
19.846952,-20,-63,-1,1,-92,36,-6,22,1.890616078
19.848514,57,124,23,-20,48,-51,-5,31,1.890616078
19.848521,-128,-128,-59,-44,-43,27,-38,-107,1.890616078
19.869861,37,120,2,-1,-36,-9,-20,1,1.890616078
19.869885,20,41,-2,6,91,10,0,-3,1.890616078
19.871310,34,12,-8,16,28,23,79,7,1.890616078
19.871329,-36,30,17,8,-19,-30,-92,-30,1.890616078
19.883305,25,-52,12,4,36,37,1,24,1.890616078
19.883328,-36,-22,-5,-16,-21,-20,5,-4,1.890616078
19.893054,31,30,0,-16,-57,3,-18,6,1.890616078
19.893066,-21,-90,2,9,-5,-37,25,-6,1.890616078
19.909536,89,102,30,12,26,3,19,15,1.890616078
19.909554,-102,-99,-66,-65,-122,-30,-36,-32,1.890616078
19.909560,48,60,0,24,119,-17,34,19,1.890616078
19.909565,65,127,20,-51,-126,-29,-69,-84,1.890616078
19.929625,3,-35,-14,68,26,-56,17,12,1.890616078
19.929671,-23,-13,14,19,127,97,48,-24,1.890616078
19.931927,0,-12,-4,15,-32,-48,50,-3,1.890616078
19.931934,-30,13,0,-11,-101,-8,-4,13,1.890616078
19.943388,19,33,20,-31,8,-15,2,-28,1.890616078
19.943423,-20,7,-1,-36,-88,-43,-12,6,1.890616078
19.953789,-56,-116,-20,27,30,43,-54,-18,1.906506676
19.953808,49,72,24,24,44,-32,50,0,1.906506676
19.967334,-39,-51,-11,-23,-55,13,-12,15,1.906506676
19.967399,4,47,3,25,83,-31,-27,-3,1.906506676
19.969648,-35,7,2,-33,-72,66,-16,-17,1.906506676
19.969660,28,8,2,34,-3,-73,26,89,1.906506676
19.989617,-24,-53,-6,-18,18,65,-23,-61,1.906506676
19.989639,-14,23,7,-9,-28,-45,-15,13,1.906506676
19.991146,-16,49,11,-18,-102,-2,-30,5,1.906506676
19.991169,49,44,-18,24,54,87,-20,-39,1.906506676
20.012248,-13,13,-7,-21,51,22,68,-11,1.906506676
20.012280,23,-61,2,15,-16,12,-7,15,1.906506676
