timestamp,emg1,emg2,emg3,emg4,emg5,emg6,emg7,emg8,label
10.011845,20,-34,-8,5,6,8,-6,17,0.330944719
10.011916,-17,1,1,-4,-5,1,1,10,0.330944719
10.011920,-6,-15,-2,-2,-46,-3,0,-2,0.330944719
10.032786,3,-1,-1,8,25,7,-2,-11,0.330944719
10.032801,-3,20,2,-5,4,-7,-2,-4,0.330944719
10.033418,-21,-22,-3,-1,4,0,0,2,0.330944719
10.033433,57,30,-3,1,-10,0,5,98,0.330944719
10.049434,-60,-31,-2,-5,8,-1,3,4,0.330944719
10.049450,-2,2,0,-3,8,3,-3,-5,0.330944719
10.049454,19,-2,1,1,-30,-6,4,10,0.330944719
10.049456,-62,-11,-2,-2,33,8,-11,-30,0.330944719
10.070008,25,3,-2,-1,-5,3,4,9,0.330944719
10.070032,-3,7,-1,-4,-27,4,-4,5,0.330944719
10.070488,11,-5,-1,5,27,-2,-2,-18,0.330944719
10.070506,-5,-8,1,-5,12,-4,0,-10,0.330944719
10.092775,-22,6,-3,-4,-24,4,-3,-30,0.330944719
10.092793,12,-16,-4,-8,-19,-3,-1,3,0.330944719
10.095259,6,26,0,3,18,-4,1,-1,0.330944719
10.095271,6,-23,1,2,3,-17,-5,-15,0.330944719
10.107162,-16,-12,1,2,-2,24,-1,2,0.330944719
10.107195,6,5,0,-7,-4,-4,1,-10,0.330944719
10.109579,-53,-37,-5,-5,-6,5,0,4,0.330944719
10.109591,30,36,-1,1,-21,-14,8,3,0.330944719
10.129854,-39,-9,-2,-5,8,7,-1,8,0.330944719
10.129875,-4,-7,0,1,-4,-3,-4,-17,0.330944719
10.130293,27,9,1,2,7,12,14,72,0.330944719
10.130306,8,-18,-5,-1,-27,-15,-7,-13,0.330944719
10.152661,35,24,3,2,18,-12,0,8,0.330944719
10.152680,-66,0,-5,-3,4,13,-5,-13,0.330944719
10.154040,18,-20,-3,1,-17,-7,-3,-29,0.330944719
10.154051,-20,12,-1,-2,-12,3,3,-9,0.330944719
10.167070,-3,-1,2,-1,33,20,5,19,0.330944719
10.167088,38,0,-3,-3,11,-22,-2,-8,0.330944719
10.168930,13,7,-2,-2,-7,-4,-10,-15,0.330944719
10.168945,-8,-14,2,-1,-20,5,-2,15,0.330944719
10.189889,-5,30,1,3,14,-11,-5,-5,0.330944719
10.189901,3,-5,2,-5,-19,19,12,3,0.330944719
10.190064,-8,-1,-1,-4,-15,0,-4,-3,0.330944719
10.190079,-3,-3,-1,2,23,1,-1,-11,0.330944719
10.212731,-4,-5,-2,-1,-20,-13,-1,-7,0.330944719
10.212757,12,-51,-1,0,3,1,4,10,0.330944719
10.215136,12,2,-4,-2,27,-21,-8,-9,0.330944719
10.215151,-16,-4,1,3,21,8,4,-1,0.330944719
10.227219,-9,5,3,2,-49,-14,0,3,0.330944719
10.227251,-13,25,-6,-3,29,18,6,8,0.330944719
10.228757,16,-10,-2,-2,-43,-13,3,89,0.330944719
10.228763,7,1,-2,-2,46,-5,-7,-20,0.330944719
10.250607,-12,-12,-1,-6,-22,2,4,2,0.335446902
10.250623,27,31,1,12,19,-12,-1,-1,0.335446902
10.250626,-17,-33,2,0,-12,6,-5,-32,0.335446902
10.250629,-3,-3,-1,-4,-6,0,2,-1,0.335446902
10.272531,4,4,0,1,17,1,-2,12,0.335446902
10.272549,-38,-4,0,-2,-14,-7,-7,-46,0.335446902
10.273266,2,1,-4,-4,4,-2,-5,-18,0.335446902
10.273278,19,6,0,3,-18,13,5,26,0.335446902
10.287145,2,-28,-6,-3,30,-5,-2,-13,0.335446902
10.287163,11,21,0,-2,-10,1,-3,2,0.335446902
10.288116,-18,13,1,0,17,1,0,-10,0.335446902
10.288123,26,-5,-1,-2,-21,-11,-2,-2,0.335446902
10.309726,5,-35,-5,-4,-23,1,-3,-5,0.335446902
10.309750,-25,7,3,1,10,-5,-2,14,0.335446902
10.313141,-3,7,0,3,-40,-11,-6,-13,0.335446902
10.313155,-27,-10,0,-7,29,33,6,-4,0.335446902
10.332688,17,13,-2,1,10,3,-1,7,0.335446902
10.332703,24,14,0,3,-13,-7,2,4,0.335446902
10.333298,-52,-4,0,-5,10,11,-2,-17,0.335446902
10.333307,12,-24,-5,-7,-22,-6,-2,-9,0.335446902
10.347029,5,1,3,7,17,-4,0,4,0.335446902
10.347051,16,22,6,1,-33,-16,4,69,0.335446902
10.347856,8,-44,-6,1,27,33,7,12,0.335446902
10.347875,10,10,-2,-2,-44,-27,-10,-5,0.335446902
10.369799,-39,4,-1,-4,32,2,-3,-15,0.335446902
10.369829,-3,-11,2,2,1,-3,0,-16,0.335446902
10.371732,11,20,2,-4,16,-3,-1,-19,0.335446902
10.371739,-13,16,2,6,21,-1,-1,44,0.335446902
10.392759,-4,15,-1,-3,-34,-1,1,5,0.335446902
10.392767,18,-12,-1,4,-13,-6,-6,-7,0.335446902
10.393214,-21,-1,-3,-2,50,11,-3,-15,0.335446902
10.393221,21,11,-1,-2,-34,3,1,-13,0.335446902
10.409571,-14,8,-4,-20,-44,-29,-6,-7,0.335446902
10.409581,-23,-16,1,19,3,15,2,2,0.335446902
10.409584,20,12,0,-6,-26,-2,5,3,0.335446902
10.409587,-4,3,2,6,6,-10,-2,-11,0.335446902
10.429761,18,4,-1,-2,4,10,-2,12,0.335446902
10.429792,-33,-5,-5,-7,-12,-5,-2,-12,0.335446902
10.431265,-4,-6,-1,1,5,-4,-7,-6,0.335446902
10.431279,-15,3,0,2,14,11,2,-8,0.335446902
10.452976,27,8,0,4,1,-14,-5,3,0.335446902
10.453002,-12,-50,-4,-9,10,-1,-2,-11,0.335446902
10.455371,2,14,2,6,-8,-14,-4,-3,0.335446902
10.455383,-13,-11,-2,-9,-1,20,2,2,0.335446902
10.467027,-14,5,3,3,-6,0,6,4,0.335446902
10.467357,56,46,-2,-1,35,-2,-15,-6,0.335446902
10.469354,-61,-22,-8,-7,-17,2,8,43,0.335446902
10.469372,6,-18,-2,1,54,-3,-4,14,0.335446902
10.489332,6,-1,-1,1,-22,15,4,2,0.336907073
10.489350,-3,14,3,-2,-29,-25,-2,8,0.336907073
10.490013,39,7,0,-14,4,-6,-2,-20,0.336907073
10.490048,-32,4,-2,21,11,-5,-7,-17,0.336907073
10.512869,1,-3,-1,1,-3,8,2,-10,0.336907073
10.512904,-3,-7,1,-6,3,1,1,-17,0.336907073
10.515035,18,7,1,0,-12,-1,-5,-5,0.336907073
10.515057,1,-4,-3,-7,-17,-9,-1,0,0.336907073
10.526243,-2,-4,2,1,14,1,-1,-5,0.336907073
10.526266,-24,-17,-4,-3,-12,-1,-2,-8,0.336907073
10.534438,10,10,6,1,-17,4,5,1,0.336907073
10.534455,24,18,-2,2,76,-8,-13,-19,0.336907073
10.549889,-16,-20,-9,0,-31,4,3,5,0.336907073
10.549901,7,-1,-4,-9,27,7,1,7,0.336907073
10.550371,-9,9,1,4,-4,2,-1,-5,0.336907073
10.550380,-2,-1,2,-6,-35,-12,0,-2,0.336907073
10.573133,19,10,1,2,15,-1,-2,1,0.336907073
10.573158,-10,1,1,1,1,4,0,0,0.336907073
10.575165,5,-5,-1,1,-11,-5,-1,-2,0.336907073
10.575180,-4,5,0,-1,5,2,-6,-53,0.336907073
10.586752,-2,-13,-1,-3,3,0,-3,9,0.336907073
10.586784,-2,-5,-1,-3,-13,4,5,-7,0.336907073
10.594897,2,-3,-3,-16,-19,-5,-6,-11,0.336907073
10.594920,0,-7,0,20,-15,2,3,-25,0.336907073
10.609717,-20,12,8,7,78,-7,-2,3,0.336907073
10.609751,47,-20,-15,-8,-41,-6,-13,-24,0.336907073
10.612064,-40,-6,-3,-1,7,8,-8,-6,0.336907073
10.612076,11,0,-7,-14,-15,-4,0,2,0.336907073
10.632891,39,-25,-1,6,-14,-3,3,-2,0.336907073
10.632956,4,17,5,3,6,15,5,23,0.336907073
10.633395,5,-13,-4,4,4,-2,-6,-14,0.336907073
10.633425,-17,3,0,-12,-37,-2,1,13,0.336907073
10.646888,-24,2,-2,2,3,-6,-1,5,0.336907073
10.646923,15,6,2,-2,14,0,2,3,0.336907073
10.654416,7,8,0,4,4,0,6,0,0.336907073
10.654434,-24,-16,0,-4,-5,-6,-1,17,0.336907073
10.669685,31,5,-5,-20,-21,-1,-6,-11,0.336907073
10.669710,-19,-12,-3,14,13,-3,-2,-3,0.336907073
10.671882,8,18,2,1,41,-5,1,2,0.336907073
10.671896,-14,-16,0,1,4,4,-6,-54,0.336907073
10.692785,11,7,-1,-9,4,5,4,12,0.336907073
10.692794,-13,-7,-2,-11,-57,-15,-4,-7,0.336907073
10.693277,-44,-11,-3,10,52,-13,-6,-9,0.336907073
10.693316,50,7,-3,-4,4,0,-3,1,0.336907073
10.706503,-23,-21,-2,1,-13,1,-3,-9,0.336907073
10.706514,0,1,3,1,4,4,7,6,0.336907073
10.714714,22,14,1,4,-15,1,2,-6,0.336907073
10.714743,-27,-4,-1,-4,-18,-12,1,18,0.336907073
10.729746,13,18,0,0,-24,-4,-1,1,0.336907073
10.729772,-5,11,1,5,44,29,4,17,0.336907073
10.731847,-1,-29,-4,-6,-28,-10,-13,-6,0.336907073
10.731860,5,-7,-1,0,12,6,2,16,0.336907073
10.754149,-4,10,-2,4,-1,-14,-2,0,0.334662739
10.754159,-10,5,1,-8,6,0,3,-36,0.334662739
10.754162,-6,-3,-2,7,4,6,1,-17,0.334662739
10.754164,-19,-4,-3,-1,3,3,1,14,0.334662739
10.766487,6,-3,1,0,-1,0,-4,-15,0.334662739
10.766504,-3,6,-1,1,24,-3,-1,6,0.334662739
10.774772,-5,-8,-2,-8,-28,3,-1,6,0.334662739
10.774804,-2,1,1,-1,-16,6,7,10,0.334662739
10.789473,-1,1,0,5,-6,-19,-10,-5,0.334662739
10.789495,24,4,1,-3,38,-1,-7,-1,0.334662739
10.790925,-13,5,-2,-5,-22,4,14,15,0.334662739
10.790934,6,3,0,-4,-30,2,-3,2,0.334662739
10.812967,8,-27,0,4,28,10,-1,-39,0.334662739
10.813002,-4,3,0,0,-12,-6,-4,-39,0.334662739
10.815817,3,14,0,0,10,-2,-2,3,0.334662739
10.815834,-4,-8,3,2,-5,-6,1,6,0.334662739
10.835817,-19,25,1,-2,-12,-8,-1,-7,0.334662739
10.835848,2,-41,-5,-4,-10,15,-1,-1,0.334662739
10.836130,11,0,0,2,4,-2,0,0,0.334662739
10.836152,15,10,-1,-17,-23,-3,-4,-11,0.334662739
10.849562,-10,-21,0,9,18,2,7,13,0.334662739
10.849602,-18,-4,-2,-3,-24,-16,-5,12,0.334662739
10.850304,13,-17,-5,-1,1,2,-1,10,0.334662739
10.850330,-2,2,1,1,31,6,3,15,0.334662739
10.873022,2,19,3,-7,-18,8,12,10,0.334662739
10.873040,14,-8,-3,7,6,3,-22,14,0.334662739
10.874430,-15,-7,2,-2,10,-21,1,-25,0.334662739
10.874436,5,28,-3,-2,23,2,-4,-6,0.334662739
10.902759,16,-26,1,0,-1,3,-1,4,0.334662739
10.902791,-33,52,0,-5,17,1,5,40,0.334662739
10.904138,7,-8,0,2,-10,1,-4,-6,0.334662739
10.904144,20,-5,-3,4,4,-5,1,-2,0.334662739
10.910957,8,6,-2,-5,-2,5,-2,-1,0.334662739
10.910965,-3,-13,0,0,-15,-5,11,67,0.334662739
10.910967,5,12,0,0,5,4,-2,13,0.334662739
10.910970,-5,29,-1,-13,-35,-20,1,2,0.334662739
10.932824,-2,-10,-3,21,1,24,-4,-12,0.334662739
10.934053,-6,-2,2,0,-3,-13,-4,-26,0.334662739
10.934062,-16,-4,-1,-5,8,16,2,2,0.334662739
10.934066,5,5,-5,1,14,-1,-5,-3,0.334662739
10.955858,-8,6,-4,-11,-19,-9,-4,2,0.334662739
10.955882,-22,-11,-3,0,-6,-2,2,-16,0.334662739
10.957865,9,7,3,0,-28,-14,-5,6,0.334662739
10.957876,-17,-20,-1,2,40,4,-2,-5,0.334662739
10.969915,-19,-11,-4,-7,-6,4,2,2,0.334662739
10.969948,33,5,2,6,43,-23,-6,5,0.334662739
10.972406,-6,-2,-3,-7,-10,6,5,2,0.334662739
10.972521,24,-18,0,-6,-14,0,3,1,0.334662739
10.992929,-17,0,-3,1,-6,-4,-6,0,0.334662739
10.992950,18,-10,1,-1,13,4,2,-12,0.334662739
10.993360,-9,0,0,2,12,6,2,52,0.334662739
10.993376,-9,-4,-2,-2,32,-12,-7,-17,0.334662739
11.015494,-46,7,-4,-3,2,4,0,-36,0.339133377
11.017506,6,-2,1,-4,-19,0,1,27,0.339133377
11.017549,28,4,-1,-2,-9,8,1,-11,0.339133377
11.017552,-21,-34,1,6,-5,3,1,-3,0.339133377
11.030169,10,5,1,-8,-11,-2,-4,15,0.339133377
11.030203,-27,-8,-5,0,-13,-9,-2,-26,0.339133377
11.030211,-10,10,-3,-2,8,-5,-2,-19,0.339133377
11.030219,12,18,2,2,-27,8,4,19,0.339133377
11.052625,9,-7,-1,0,1,-24,-11,-3,0.339133377
11.052669,19,18,1,-5,-5,18,3,-9,0.339133377
11.053287,-6,-17,-3,-3,21,-4,-3,10,0.339133377
11.053321,-27,-5,1,-10,-43,-1,-1,-10,0.339133377
11.076055,42,7,2,22,10,-3,-3,19,0.339133377
11.076079,-34,22,-4,-3,14,9,-1,-12,0.339133377
11.077905,2,0,-1,1,-14,-5,-1,-17,0.339133377
11.077917,3,-2,-5,1,6,3,-2,6,0.339133377
11.089395,-1,-11,0,-12,-32,-1,4,2,0.339133377
11.089412,5,-4,2,4,-8,-4,1,-1,0.339133377
11.090563,16,20,1,2,1,13,5,-4,0.339133377
11.090568,-18,7,0,1,2,-4,0,7,0.339133377
11.115129,8,-14,-4,-6,19,5,3,5,0.339133377
11.115143,2,0,-2,1,-13,-6,0,-16,0.339133377
11.115146,5,-4,-1,-3,7,-9,3,56,0.339133377
11.115149,-5,8,2,5,-17,-3,-3,-2,0.339133377
11.135396,10,-8,-2,-3,15,6,3,3,0.339133377
11.135421,-27,0,-4,-19,-2,3,2,-30,0.339133377
11.137244,-16,0,0,12,1,-16,-3,69,0.339133377
11.137253,37,-14,-2,-1,12,1,-2,-1,0.339133377
11.149472,-5,-1,-2,-2,-25,1,0,4,0.339133377
11.149491,-7,-3,5,-6,-23,-7,-1,-8,0.339133377
11.151239,-2,4,2,2,1,1,-1,-35,0.339133377
11.151253,-7,23,0,4,-31,-12,0,1,0.339133377
11.173267,3,-10,0,-4,59,-1,-6,2,0.339133377
11.173294,15,0,1,2,-18,3,4,0,0.339133377
11.175599,-21,20,-4,-9,-27,-16,-2,-29,0.339133377
11.175607,30,-3,-5,3,47,14,-7,2,0.339133377
11.195761,-10,8,1,-2,-7,-8,0,-6,0.339133377
11.195789,23,-3,-1,4,0,3,-2,2,0.339133377
11.198533,8,-14,1,-3,21,-7,-3,-14,0.339133377
11.198546,-32,21,0,15,-18,19,5,-9,0.339133377
11.209445,-1,5,0,-5,26,-19,-20,33,0.339133377
11.209465,14,-1,1,13,52,14,6,54,0.339133377
11.210020,14,9,1,-8,-43,-2,-4,-21,0.339133377
11.210035,13,-15,-2,-7,-28,-5,7,4,0.339133377
11.232689,4,6,-2,-5,21,13,3,-2,0.339133377
11.232707,-2,0,0,5,-19,-11,-7,-11,0.339133377
11.235105,-12,-29,-3,-3,12,5,-4,-16,0.339133377
11.235113,10,9,2,-2,8,-3,4,84,0.339133377
11.255397,8,-13,-3,1,-26,-5,2,-14,0.339133377
11.255418,7,-18,-2,-6,9,-3,4,-5,0.339133377
11.255777,-2,38,-1,1,-15,2,-2,-18,0.339133377
11.255793,-28,-27,2,-2,9,-5,-3,-49,0.339133377
11.269437,-12,11,-5,3,-1,-1,1,5,0.343545429
11.269450,-11,-11,-4,-4,-8,-5,-1,1,0.343545429
11.270057,-6,-1,1,-9,-40,-2,-2,-10,0.343545429
11.270064,1,-2,0,10,-11,19,7,-6,0.343545429
11.292978,-34,-1,-1,-8,26,0,-5,-14,0.343545429
11.293010,13,10,3,7,-55,-6,-6,-9,0.343545429
11.294294,20,-42,-3,2,68,16,6,-2,0.343545429
11.294299,-13,0,-1,-15,10,-9,-8,-10,0.343545429
11.315911,11,1,2,3,-29,5,3,-4,0.343545429
11.315929,-6,3,-1,-3,-11,-8,-3,-2,0.343545429
11.315932,0,-4,-1,1,3,-3,-1,2,0.343545429
11.315935,5,-3,-2,-1,3,-7,-6,-32,0.343545429
11.331150,-8,16,1,-3,-33,0,6,9,0.343545429
11.331167,-14,-1,-4,-4,21,-5,-7,-4,0.343545429
11.337087,17,-9,0,4,-1,-5,-3,-9,0.343545429
11.337103,-10,-14,-4,0,11,2,-1,-11,0.343545429
11.352814,17,25,3,-1,-31,-1,2,29,0.343545429
11.352835,-46,-42,-4,-16,-44,7,-1,-4,0.343545429
11.354736,0,-4,-4,18,25,-4,-5,-50,0.343545429
11.354748,-5,-13,1,-2,3,-2,-5,11,0.343545429
11.375616,4,4,-1,0,27,-17,-10,-19,0.343545429
11.375648,4,17,2,3,-6,3,7,13,0.343545429
11.377612,-8,-5,-1,-5,9,18,2,-8,0.343545429
11.377623,-27,0,-3,-5,-21,-17,-5,1,0.343545429
11.389504,19,-26,0,1,47,3,1,-9,0.343545429
11.389529,1,49,-2,-1,-6,-2,-1,-25,0.343545429
11.399600,-13,-5,0,-7,-96,-12,-3,2,0.343545429
11.399615,20,-1,-2,2,44,4,-4,39,0.343545429
11.413146,-26,-5,-1,-6,-6,7,7,1,0.343545429
11.413179,6,6,1,-1,-5,-2,-3,4,0.343545429
11.416122,6,-3,0,-1,4,-6,-3,9,0.343545429
11.416137,7,10,-1,-19,-39,-4,-3,-1,0.343545429
11.435172,-9,0,-3,20,-11,1,-4,-58,0.343545429
11.435197,2,-26,-3,7,70,3,0,6,0.343545429
11.437654,-2,-2,2,-2,-7,0,-11,-2,0.343545429
11.437665,14,39,-4,-3,-6,-4,0,-4,0.343545429
11.457714,11,-16,2,-8,-9,-6,-1,1,0.343545429
11.457752,2,-2,-1,-2,-2,4,2,35,0.343545429
11.459038,-3,6,2,1,19,-14,-3,8,0.343545429
11.459046,7,1,0,0,-6,9,1,-12,0.343545429
11.472595,4,3,0,-2,-24,7,9,19,0.343545429
11.472608,-21,0,-5,-3,11,4,-4,-14,0.343545429
11.474031,4,0,-3,-6,-14,11,9,12,0.343545429
11.474039,-4,-14,-3,4,31,-17,-7,-9,0.343545429
11.495553,14,2,1,-2,6,6,3,8,0.343545429
11.495572,-14,-6,-1,-12,-15,-16,-4,-15,0.343545429
11.498076,-3,8,-3,-1,28,10,-2,2,0.343545429
11.498089,-5,-5,1,1,1,-4,-1,-9,0.343545429
11.508985,-3,4,-1,-1,7,0,0,5,0.343545429
11.509010,6,1,-2,1,15,-3,-1,-2,0.343545429
11.519156,4,12,0,-1,4,-2,1,12,0.354744555
11.519174,-25,-22,-1,1,-11,2,2,-4,0.354744555
11.532800,8,8,-3,-12,-6,-2,-4,2,0.354744555
11.534182,3,-12,0,1,-23,-6,-1,-15,0.354744555
11.534194,5,-4,-1,1,4,13,6,2,0.354744555
11.534278,-9,-29,-3,-3,-43,-33,-22,-52,0.354744555
11.555306,0,-12,-2,-3,-23,-12,-5,-3,0.354744555
11.555329,22,5,-5,-4,-23,12,-5,-3,0.354744555
11.557178,-14,-10,-1,5,33,-4,-6,-9,0.354744555
11.557184,0,20,0,-1,25,11,5,3,0.354744555
11.568877,-1,-8,1,-18,-51,-8,-8,1,0.354744555
11.568892,-16,-23,-4,25,23,-9,-2,-3,0.354744555
11.579613,-1,24,0,-7,-15,3,0,-7,0.354744555
11.579630,-3,-21,0,1,-10,5,2,14,0.354744555
11.592825,-2,6,-2,2,-10,-4,-3,-11,0.354744555
11.592857,8,5,4,-2,46,3,2,14,0.354744555
11.595097,8,4,-1,-3,-21,-4,1,3,0.354744555
11.595103,-16,-2,-1,8,18,-2,-4,-62,0.354744555
11.615340,-14,-13,-3,1,9,0,0,23,0.354744555
11.615365,29,10,-1,-8,-7,-5,-2,-10,0.354744555
11.616780,-14,-9,-1,3,10,8,1,5,0.354744555
11.616791,3,-4,-3,-7,-6,-5,-5,-11,0.354744555
11.628731,-3,38,-2,1,-15,12,2,-1,0.354744555
11.628771,-10,-16,-1,-2,18,-6,-4,0,0.354744555
11.638116,11,13,-1,-7,6,-26,-12,-7,0.354744555
11.638123,4,-21,3,1,-2,9,9,34,0.354744555
11.652695,-2,23,-3,3,8,-6,0,-30,0.354744555
11.652721,19,2,1,-4,-21,17,3,12,0.354744555
11.654804,3,-9,-3,-1,-5,-3,-2,-7,0.354744555
11.654815,-12,1,0,-13,-37,6,2,41,0.354744555
11.675946,6,-3,0,13,35,-10,-6,-5,0.354744555
11.675958,5,3,0,-3,-15,-15,2,-9,0.354744555
11.676744,-17,0,0,1,12,13,6,-4,0.354744555
11.676829,30,-2,1,-3,-18,-4,3,1,0.354744555
11.690837,-15,24,-5,-6,43,5,3,3,0.354744555
11.690849,2,-9,0,0,-19,-5,-1,7,0.354744555
11.705286,14,12,-3,-2,-34,-5,-4,2,0.354744555
11.705354,-13,7,-1,8,19,7,2,10,0.354744555
11.713378,3,-10,2,-4,71,17,5,14,0.354744555
11.713406,-2,14,2,0,-22,-13,-6,-4,0.354744555
11.715637,35,-16,-7,-4,9,-8,-3,-3,0.354744555
11.715660,13,-4,2,4,10,-3,-1,2,0.354744555
11.735976,-26,-32,-4,-3,-30,-2,-1,0,0.354744555
11.735989,3,26,1,-4,3,5,-1,-4,0.354744555
11.736750,5,-26,2,4,-16,-4,4,87,0.354744555
11.736770,4,5,-1,4,40,13,5,2,0.354744555
11.748853,-4,-7,-4,-18,-60,-27,-14,0,0.354744555
11.748875,13,-14,-3,25,41,6,0,-4,0.354744555
11.758350,-37,2,0,-5,-71,-19,-3,-30,0.354744555
11.758364,2,7,0,4,79,22,2,-1,0.354744555
11.772573,8,-2,2,0,-34,5,2,10,0.341941046
11.772590,-14,-11,-1,-10,5,0,-6,-44,0.341941046
11.774172,-1,-32,4,0,9,-4,1,19,0.341941046
11.774183,16,17,-5,-1,-5,-6,-9,-5,0.341941046
11.795492,-14,11,1,3,-15,-2,-1,-22,0.341941046
11.795524,-2,-21,-3,-7,-8,0,-5,-3,0.341941046
11.797655,-10,11,-5,-2,21,7,7,-26,0.341941046
11.797673,-1,1,2,-5,-33,-23,-11,20,0.341941046
11.817650,10,-16,-2,3,10,0,-1,6,0.341941046
11.817666,-27,11,-1,1,-11,1,-1,10,0.341941046
11.819178,9,10,1,-3,15,-3,1,-10,0.341941046
11.819307,-6,12,2,0,-25,0,3,1,0.341941046
11.832755,1,-39,-4,2,21,-5,0,-8,0.341941046
11.832769,-1,8,-2,-5,20,3,-12,10,0.341941046
11.834066,-2,1,-1,-5,-50,0,-4,-13,0.341941046
11.834105,19,-10,-3,-1,32,3,1,-9,0.341941046
11.855126,-17,1,-1,-2,4,4,5,4,0.341941046
11.855163,19,8,2,-3,-8,4,2,3,0.341941046
11.857623,-2,-1,-3,2,21,-5,-4,-3,0.341941046
11.857628,-17,1,-1,-13,-62,-11,-1,-2,0.341941046
11.877585,-1,-4,-1,25,54,7,-7,-62,0.341941046
11.877603,-9,-19,-3,-8,-18,6,8,24,0.341941046
11.879020,2,1,0,-2,6,1,-3,-8,0.341941046
11.879028,-3,9,-1,-1,-12,-6,-1,-2,0.341941046
11.893296,1,-7,-2,-8,-21,-3,-5,-11,0.341941046
11.893319,2,7,1,1,0,-7,2,-5,0.341941046
11.894079,2,-2,2,4,11,4,-1,-6,0.341941046
11.894086,-19,10,-2,-3,-1,-5,0,-4,0.341941046
11.915181,29,-5,4,-4,0,1,1,26,0.341941046
11.915202,7,-8,-7,0,-2,-2,-5,4,0.341941046
11.917012,-1,6,0,-4,37,3,-2,-38,0.341941046
11.917026,-18,-22,-3,0,-46,-19,-14,-8,0.341941046
11.937873,25,6,-2,-2,37,19,8,16,0.341941046
11.937900,3,19,3,-1,-14,-11,0,-2,0.341941046
11.940455,-14,-5,-3,1,22,19,1,-12,0.341941046
11.940467,-7,-1,0,2,-4,-8,3,-1,0.341941046
11.952607,-16,2,2,3,-35,4,-2,4,0.341941046
11.952640,-7,-7,-1,-4,21,2,3,-7,0.341941046
11.959308,-13,-16,0,0,-1,-21,-10,37,0.341941046
11.959336,41,3,-5,1,14,5,-9,-2,0.341941046
11.982818,-18,7,0,-13,-30,-8,2,11,0.341941046
11.982839,0,0,0,6,1,-3,1,3,0.341941046
11.984509,1,6,0,-2,-14,19,4,-3,0.341941046
11.984519,2,10,0,1,3,2,2,5,0.341941046
11.997786,-22,-21,-3,-4,-7,-4,-3,-6,0.341941046
11.997815,-8,2,-2,-5,-24,-15,-3,0,0.341941046
11.999706,17,5,-2,0,27,3,1,3,0.341941046
11.999726,-6,-7,2,-3,2,2,1,-6,0.341941046
12.012209,7,-18,-1,-1,-8,0,1,-1,0.341941046
12.012241,-8,-5,-3,1,-18,-12,1,73,0.341941046
12.019033,-15,-17,-4,1,35,-2,-6,-1,0.341941046
12.019069,-32,2,3,3,19,6,3,-6,0.341941046
12.035128,25,10,-4,-3,-6,-7,-1,5,0.330548132
12.035142,-5,-4,2,0,-4,2,-1,-26,0.330548132
12.036765,14,16,-2,-4,-24,-7,-4,-11,0.330548132
12.036774,0,-19,-3,-4,-2,-2,6,15,0.330548132
12.057812,-2,11,0,10,24,-4,-2,-38,0.330548132
12.057831,-2,-6,1,-4,7,9,-1,-12,0.330548132
12.059126,-9,14,-2,-4,6,-13,-7,-11,0.330548132
12.059140,9,10,0,2,-3,3,1,-8,0.330548132
12.071914,-32,-5,0,-2,-7,-5,-1,6,0.330548132
12.071931,14,16,1,5,-10,5,-2,-8,0.330548132
12.080537,26,-4,1,1,7,-13,0,8,0.330548132
12.080553,9,-14,-2,-1,6,21,5,0,0.330548132
12.095164,-15,35,-1,-3,-5,-6,-7,5,0.330548132
12.095181,-7,-3,-2,-23,-42,3,2,-9,0.330548132
12.096680,-20,-31,1,28,34,-4,8,3,0.330548132
12.096706,-14,-12,-3,0,16,-6,-12,-2,0.330548132
12.117864,3,19,3,1,8,2,3,-3,0.330548132
12.117882,2,-4,0,-4,-8,-3,-5,2,0.330548132
12.119117,13,19,-2,-4,-7,4,-1,1,0.330548132
12.119125,0,-1,0,1,7,3,10,2,0.330548132
12.132125,7,-8,-1,-1,-17,0,0,0,0.330548132
12.132157,-17,0,-2,1,6,-5,-3,-17,0.330548132
12.139054,-7,-14,-1,-8,-21,2,-3,6,0.330548132
12.139078,2,8,-1,1,-2,-2,4,65,0.330548132
12.155227,-18,18,-4,-6,-45,-5,2,21,0.330548132
12.155244,57,-14,0,6,39,11,3,-8,0.330548132
12.157096,-63,4,-2,-4,7,7,-6,-7,0.330548132
12.157108,12,2,1,-2,2,-10,-3,-14,0.330548132
12.178081,2,-4,-4,-10,-8,8,-3,-8,0.330548132
12.178110,-16,3,-1,-7,-8,-12,1,2,0.330548132
12.180039,29,5,-2,18,-2,18,2,-7,0.330548132
12.180053,-7,8,0,-4,9,3,-4,-22,0.330548132
12.192339,-11,-18,1,0,13,-7,-3,1,0.330548132
12.192372,3,-2,-1,4,-17,-6,-3,-3,0.330548132
12.198885,-12,-22,-2,-14,-12,-2,-4,-11,0.330548132
12.198907,7,-2,-2,0,-7,-2,-2,-6,0.330548132
12.215245,10,7,1,3,0,1,2,9,0.330548132
12.215288,-8,-18,-2,-4,8,-3,-1,29,0.330548132
12.216749,19,9,0,3,-11,-11,7,8,0.330548132
12.216761,-28,10,-2,0,11,2,-4,-14,0.330548132
12.238250,20,-28,-2,-5,23,-3,-16,-9,0.330548132
12.238271,-19,7,0,5,18,1,-1,-25,0.330548132
12.239060,22,4,-4,-11,-14,-1,2,20,0.330548132
12.239076,20,-4,-1,0,-11,-3,5,67,0.330548132
12.251849,5,38,2,5,12,2,2,-22,0.330548132
12.251864,-43,-65,-3,-9,-2,-14,-9,23,0.330548132
12.262133,11,7,-1,18,-1,-2,-2,6,0.330548132
12.262147,-13,6,1,2,-19,-11,-3,-30,0.330548132
12.275431,0,-9,2,1,8,5,-1,-8,0.330548132
12.275465,-2,18,-5,-4,-22,33,10,-18,0.330548132
12.277226,-11,-1,-2,-12,-16,-4,-2,-11,0.330548132
12.277231,20,-10,-1,-4,-23,-5,-6,-8,0.330548132
12.298112,12,-4,-1,6,6,-4,-1,3,0.332170540
12.298127,-5,3,2,1,13,-4,0,-16,0.332170540
12.299206,4,-33,-2,-7,-10,-2,-4,3,0.332170540
12.299228,-2,16,-3,0,10,-4,1,-21,0.332170540
12.314358,10,-1,-2,-3,-7,-4,-1,20,0.332170540
12.314372,0,7,0,2,9,-6,-3,-9,0.332170540
12.321019,-3,-3,2,-8,-17,-5,-1,-13,0.332170540
12.321026,-17,-5,0,5,-44,-9,-8,-5,0.332170540
12.335114,-2,-12,0,-4,-3,15,11,28,0.332170540
12.335134,11,-7,-5,7,28,-21,-16,-2,0.332170540
12.336688,2,58,1,-6,-35,-4,3,-47,0.332170540
12.336826,1,1,-3,1,54,-14,-8,-7,0.332170540
12.358518,-11,-9,2,-5,-32,11,6,82,0.332170540
12.358546,4,7,-4,-2,-11,1,9,-35,0.332170540
12.360818,-10,-6,1,-1,6,-1,-6,3,0.332170540
12.360826,-29,-8,-2,-10,-17,-6,0,-23,0.332170540
12.371377,-3,4,-2,2,3,-13,-4,-31,0.332170540
12.371402,15,20,2,2,18,3,-4,0,0.332170540
12.383175,11,-12,-4,-3,4,-2,3,12,0.332170540
12.383195,12,17,-1,-2,-24,8,3,1,0.332170540
12.395497,-1,-46,-2,-3,3,-2,-3,-13,0.332170540
12.395522,-12,4,3,7,11,-2,2,10,0.332170540
12.396849,-1,9,1,1,-52,-2,-5,6,0.332170540
12.396869,-5,-8,1,-3,43,14,0,5,0.332170540
12.417962,-3,-9,-5,0,24,-3,-6,-21,0.332170540
12.417979,0,12,-4,-5,-9,-6,-1,-2,0.332170540
12.419847,7,-6,1,-3,8,-2,1,8,0.332170540
12.419862,-8,-5,2,5,13,11,8,-2,0.332170540
12.431591,1,16,-1,-5,-4,-29,-12,-1,0.332170540
12.431612,-22,-11,0,-4,-2,-3,-1,3,0.332170540
12.442311,9,-40,-6,3,24,24,11,11,0.332170540
12.442318,3,-9,-2,-6,-17,-8,-12,0,0.332170540
12.455415,-18,5,-1,1,-8,21,4,-27,0.332170540
12.455427,22,2,0,4,40,-5,4,56,0.332170540
12.456586,-13,17,2,-1,14,-5,-6,1,0.332170540
12.456603,31,-4,0,-1,-13,-1,6,93,0.332170540
12.477902,-32,-19,-2,0,17,-7,-4,-20,0.332170540
12.477930,1,14,-2,-17,-63,10,-4,4,0.332170540
12.480901,4,-21,-5,15,32,-6,-1,8,0.332170540
12.480915,-10,14,-2,-4,-5,5,-4,-22,0.332170540
12.491832,6,-16,0,8,-26,-13,-6,3,0.332170540
12.491875,-4,3,-3,-9,1,8,4,-8,0.332170540
12.501023,-11,7,-2,-5,4,2,-2,-10,0.332170540
12.501030,-9,-6,0,4,-12,-16,-8,-23,0.332170540
12.515247,10,-1,-1,-8,14,2,3,3,0.332170540
12.515261,17,16,2,6,-17,-2,-2,-26,0.332170540
12.516721,-42,-16,0,-5,-7,3,-2,1,0.332170540
12.516740,7,-9,-2,4,20,-14,-1,-18,0.332170540
12.537651,6,7,0,-2,-13,27,1,3,0.354812156
12.537676,-12,12,-2,5,12,-2,1,-4,0.354812156
12.539171,-26,1,2,-2,10,-5,-1,2,0.354812156
12.539180,16,0,-5,-5,-7,8,-2,-7,0.354812156
12.551473,21,3,-4,-1,-1,-13,-4,-4,0.354812156
12.551498,-2,-6,2,1,2,9,3,-4,0.354812156
12.562050,27,31,1,2,1,-6,-1,0,0.354812156
12.562067,-19,-21,1,-1,-12,-7,-3,-16,0.354812156
12.576847,21,2,-4,-20,-17,-10,1,-4,0.354812156
12.576857,-9,-7,0,19,26,19,6,-9,0.354812156
12.576861,26,21,0,-5,-6,-11,-5,25,0.354812156
12.576864,3,-33,-3,1,-9,5,4,-1,0.354812156
12.597905,-11,20,4,1,-5,-1,0,3,0.354812156
12.597926,7,-13,-1,-8,-29,-15,-4,-1,0.354812156
12.599895,-20,-5,-2,-2,-2,9,0,-9,0.354812156
12.599907,-8,12,2,1,6,-25,-6,-2,0.354812156
12.611688,18,6,-6,2,-8,12,8,-4,0.354812156
12.611706,-8,-17,-3,-3,-5,0,-6,-26,0.354812156
12.620987,15,5,1,1,-8,-3,3,61,0.354812156
12.620999,-3,-2,-3,-6,8,7,0,-7,0.354812156
12.635143,-27,-7,1,4,4,-15,-3,-8,0.354812156
12.635169,17,4,-1,1,-2,7,-7,-11,0.354812156
12.637023,5,13,0,-4,-4,0,-3,-24,0.354812156
12.637036,-4,-36,-6,-5,10,2,3,-26,0.354812156
12.657787,3,7,-2,1,-1,-2,-3,8,0.354812156
12.657818,-2,-12,0,-18,-6,-3,1,12,0.354812156
12.660199,6,-5,-2,18,24,-2,-6,-15,0.354812156
12.660207,-2,15,0,-1,-6,9,0,-4,0.354812156
12.671320,-2,-3,-1,4,-4,-1,-1,-11,0.354812156
12.671337,-7,-5,-2,-3,7,-10,-3,2,0.354812156
12.681106,-3,0,0,-9,-22,-16,-1,-13,0.354812156
12.681120,14,12,1,5,31,11,2,1,0.354812156
12.695568,-40,-4,0,3,-4,9,0,1,0.354812156
12.695602,-4,10,-2,0,2,1,0,7,0.354812156
12.698690,-10,2,-6,-5,-11,-25,-9,-8,0.354812156
12.698709,-17,1,2,-2,10,3,0,3,0.354812156
12.717669,17,11,0,-1,-13,-5,-2,6,0.354812156
12.717683,13,7,2,7,20,-6,-1,0,0.354812156
12.719054,-29,-18,-3,-6,-4,10,2,-19,0.354812156
12.719064,3,16,1,1,-10,-3,-3,2,0.354812156
12.740178,-8,-16,0,-1,5,0,0,-1,0.354812156
12.740202,-9,-18,-2,2,-5,-3,-5,-2,0.354812156
12.741539,18,1,-1,-2,-23,-13,1,-2,0.354812156
12.741566,-31,7,-1,-22,-37,31,-6,-1,0.354812156
12.755044,43,-12,-3,23,29,-1,4,11,0.354812156
12.755061,-9,0,-2,0,11,-11,-3,56,0.354812156
12.756509,-1,-1,-2,-2,2,7,-2,-7,0.354812156
12.756534,0,-5,-1,-4,-16,-15,-3,-2,0.354812156
12.779819,-9,11,1,-3,7,1,4,77,0.354812156
12.779834,18,-7,-1,-2,-16,6,9,-19,0.354812156
12.779838,-21,-9,-2,1,10,-1,-4,-4,0.354812156
12.779841,10,5,-1,6,-15,-2,6,9,0.354812156
12.800356,30,-15,-1,-4,8,-11,-10,-31,0.342013152
12.800381,-71,-25,-4,-1,-15,12,-3,-28,0.342013152
12.802727,42,-7,0,-2,37,-6,-5,11,0.342013152
12.802742,-1,-3,-2,7,-17,2,3,22,0.342013152
12.815361,-14,9,0,-8,4,1,-1,-10,0.342013152
12.815384,3,26,0,-3,14,-12,-5,-8,0.342013152
12.817711,-17,-14,1,0,-31,3,6,-12,0.342013152
12.817717,1,-14,-5,-2,61,5,-17,-14,0.342013152
12.837961,12,13,1,1,-10,-2,-1,-2,0.342013152
12.837986,5,-4,1,1,-23,-12,1,10,0.342013152
12.845421,9,10,-1,-4,20,26,-2,-3,0.342013152
12.845442,13,19,1,6,4,-4,4,2,0.342013152
12.860377,-51,5,-2,-8,0,1,0,-33,0.342013152
12.860402,14,-16,-2,2,1,-2,-3,6,0.342013152
12.861978,-22,10,5,1,-4,0,6,3,0.342013152
12.862007,0,7,-1,2,-7,-9,-6,-15,0.342013152
12.873739,19,-12,-4,-3,24,2,-5,-19,0.342013152
12.873755,60,51,1,2,-19,5,-1,-2,0.342013152
12.883805,-64,-36,-8,-12,-40,-4,-6,13,0.342013152
12.883813,3,-12,1,4,16,-1,5,9,0.342013152
12.897812,-6,5,0,3,7,1,-1,-6,0.342013152
12.897840,9,2,2,-4,0,-6,2,10,0.342013152
12.899757,16,7,2,4,27,19,0,-11,0.342013152
12.899767,1,3,-1,-1,18,-8,-4,-5,0.342013152
12.920231,-2,-17,-3,-2,1,-4,0,3,0.342013152
12.920294,2,-1,-2,1,-4,5,1,-15,0.342013152
12.921545,13,11,-1,-2,15,8,3,-10,0.342013152
12.921553,-37,-12,-2,-2,-30,-11,-5,-1,0.342013152
12.934776,17,0,0,1,3,1,3,3,0.342013152
12.934792,4,-41,-2,-4,9,5,-2,3,0.342013152
12.941270,-10,12,0,3,-23,-11,0,-2,0.342013152
12.941294,-20,12,1,-6,-4,-14,4,-6,0.342013152
12.957611,33,1,-5,-1,2,15,-6,-1,0.342013152
12.957628,-27,-11,-3,-2,-3,-5,-7,-15,0.342013152
12.959080,25,-1,-3,0,-11,-5,-3,6,0.342013152
12.959131,7,3,2,-4,-53,4,12,78,0.342013152
12.982633,-30,-9,1,2,-6,-5,-5,-7,0.342013152
12.982648,-4,5,-5,-14,-6,7,5,10,0.342013152
12.982711,15,4,1,22,12,7,2,-6,0.342013152
12.982714,14,9,0,-3,3,-6,-8,-22,0.342013152
12.994771,-39,-8,-2,-3,-21,-7,-1,-6,0.342013152
12.994802,-19,10,1,1,-5,3,3,13,0.342013152
13.001423,-7,0,-1,-11,5,-6,-1,-10,0.342013152
13.001447,15,-9,-2,2,11,13,3,-14,0.342013152
13.017821,-5,4,2,-1,-9,-14,-7,4,0.342013152
13.017846,-11,20,2,4,7,-1,-8,-76,0.342013152
13.019354,-7,-11,-1,-7,8,-9,-1,18,0.342013152
13.019365,-2,-15,-4,1,34,12,0,-11,0.342013152
13.040514,-6,-7,-2,-9,16,-1,3,0,0.342013152
13.040547,-9,16,2,5,-30,-11,-10,-4,0.342013152
13.043196,-2,-6,-3,-3,16,-8,3,-6,0.342013152
13.043205,3,5,-1,-3,-27,8,-1,-7,0.342013152
13.054969,25,8,-1,-2,-8,0,-2,-1,0.337190993
13.054995,-25,-22,-1,4,10,-2,-2,10,0.337190993
13.061284,-7,-22,-3,-3,-7,-8,1,-3,0.337190993
13.061309,3,-3,3,3,-7,-6,3,0,0.337190993
13.077596,-16,16,0,1,16,6,-5,-35,0.337190993
13.077638,14,-16,1,-3,10,0,4,34,0.337190993
13.079078,-2,11,-3,-6,-9,0,-7,-10,0.337190993
13.079093,-6,-4,-3,-3,-10,-4,-3,-11,0.337190993
13.100201,9,-25,0,2,-7,1,5,-1,0.337190993
13.100220,8,15,1,0,8,1,2,2,0.337190993
13.101562,15,1,3,-1,-4,1,-5,12,0.337190993
13.101580,11,40,-6,0,5,6,0,-5,0.337190993
13.114597,-7,-23,1,1,-16,-17,-5,10,0.337190993
13.114628,-5,-6,-4,-5,-12,-9,-7,-4,0.337190993
13.121532,-10,1,-2,-10,2,26,-3,3,0.337190993
13.121557,10,1,1,11,76,-12,2,-19,0.337190993
13.137707,10,13,1,-6,-18,18,2,37,0.337190993
13.137737,-4,-3,-1,2,-40,-12,-4,0,0.337190993
13.139950,5,-11,1,2,40,3,6,53,0.337190993
13.139959,10,22,0,-4,-31,-9,-7,-13,0.337190993
13.160529,-15,-1,-1,0,4,-4,-1,-10,0.337190993
13.160555,4,-18,-3,-1,1,-2,0,12,0.337190993
13.163164,2,12,0,2,-18,-7,-1,-17,0.337190993
13.163179,-23,-23,0,-5,1,1,-2,-2,0.337190993
13.174519,-12,21,1,3,5,-5,2,5,0.337190993
13.174533,-5,11,1,-1,-6,6,1,-2,0.337190993
13.181431,13,1,-1,1,-5,0,-2,-20,0.337190993
13.181461,-3,-9,-4,-3,5,-4,-9,-27,0.337190993
13.197986,-4,-1,1,-3,-32,-6,-3,-11,0.337190993
13.198007,1,-13,-5,-3,39,5,1,-3,0.337190993
13.199782,2,29,-1,0,-5,14,8,-6,0.337190993
13.199794,-3,-14,1,-2,-14,-18,-4,7,0.337190993
13.220500,8,28,3,0,-8,-1,2,2,0.337190993
13.220557,-17,-16,-4,-8,-5,-15,-11,3,0.337190993
13.221700,25,-11,-6,-14,-27,-17,0,-16,0.337190993
13.221717,-18,22,-2,20,31,11,0,8,0.337190993
13.233846,-21,-32,-4,-1,13,1,2,-7,0.337190993
13.233860,15,10,1,2,20,-3,4,14,0.337190993
13.243327,-19,-15,0,-5,16,-5,-5,-20,0.337190993
13.243334,2,4,2,-4,-2,-8,-6,22,0.337190993
13.258171,12,-15,2,4,-1,0,-1,7,0.337190993
13.258196,0,13,-3,-3,-6,5,-3,-12,0.337190993
13.260083,11,-18,-4,3,-15,-9,-5,2,0.337190993
13.260092,-6,-8,1,-6,0,2,-2,-52,0.337190993
13.281404,11,18,-2,-2,0,-2,-3,0,0.337190993
13.281426,13,-12,0,2,39,2,6,37,0.337190993
13.281764,-19,4,-1,2,-31,16,2,2,0.337190993
13.281785,-1,-25,-4,-5,-17,-12,-5,-4,0.337190993
13.295873,10,2,-2,-2,-8,7,0,8,0.337190993
13.295889,-8,-8,-1,-5,-21,-7,-6,-19,0.337190993
13.303236,4,6,4,10,51,-3,-3,-19,0.337190993
13.303244,16,9,2,-6,-16,3,9,16,0.337190993
13.317706,-38,-9,-6,0,26,2,-2,-15,0.332580647
13.317731,-3,-3,-1,-7,-33,3,2,1,0.332580647
13.319326,10,23,0,19,45,-10,-10,2,0.332580647
13.319347,11,18,-4,-7,-12,8,6,6,0.332580647
13.342139,-1,-28,-3,1,12,4,-4,4,0.332580647
13.342148,-12,21,3,1,16,1,1,-5,0.332580647
13.342152,18,-6,-2,-11,-29,-1,-1,10,0.332580647
13.342154,-5,0,2,0,23,-8,-1,5,0.332580647
13.354109,17,16,2,2,-24,0,2,-4,0.332580647
13.354133,-3,-15,-4,0,1,5,0,-2,0.332580647
13.371973,-15,-7,0,-4,-31,-11,0,-4,0.332580647
13.371990,1,19,0,-1,12,0,-6,20,0.332580647
13.377584,2,-10,2,-10,-18,11,1,0,0.332580647
13.377602,1,-10,-1,11,59,-18,-9,-9,0.332580647
13.379514,3,10,1,-5,-30,-8,0,9,0.332580647
13.379524,-29,-10,0,8,14,9,6,-4,0.332580647
13.400374,9,-12,-3,-24,-43,-5,-2,-1,0.332580647
13.400395,23,3,1,30,9,6,5,0,0.332580647
13.402134,-25,-13,-1,0,49,-7,-3,-9,0.332580647
13.402147,-5,-12,-1,-7,-59,2,-10,-72,0.332580647
13.414174,10,9,1,3,11,-4,5,66,0.332580647
13.414202,4,6,-2,-9,-52,-5,-1,-4,0.332580647
13.422930,-15,-41,-3,-4,-13,0,-2,-6,0.332580647
13.422936,5,-19,2,3,-4,-10,-1,-7,0.332580647
13.437703,-14,24,-2,-1,29,13,-5,-19,0.332580647
13.437759,19,-3,1,-6,-5,-3,1,-7,0.332580647
13.439170,8,4,-4,1,-1,-2,-1,14,0.332580647
13.439175,9,-14,-4,-6,-7,0,2,-5,0.332580647
13.460476,-13,18,1,6,9,-13,-4,-10,0.332580647
13.460509,9,-24,0,-5,10,19,8,5,0.332580647
13.461975,-36,14,0,0,-18,-10,-7,-6,0.332580647
13.461981,10,-7,-1,-3,-32,12,0,13,0.332580647
13.473856,-14,-2,-3,5,-4,-12,2,-7,0.332580647
13.473882,-16,18,0,0,-11,2,-4,-10,0.332580647
13.483181,15,3,1,-5,4,0,1,-5,0.332580647
13.483188,1,-14,-1,3,8,7,5,18,0.332580647
13.497673,19,-3,-2,-2,-8,-4,-1,-4,0.332580647
13.497691,-20,8,-3,-6,-8,-8,-5,-8,0.332580647
13.499196,2,-17,-4,0,-34,10,7,30,0.332580647
13.499213,32,13,-1,-8,27,-7,-9,8,0.332580647
13.520088,-18,-27,-2,-1,-1,-2,-5,-26,0.332580647
13.520105,3,2,4,2,1,-2,2,8,0.332580647
13.522165,5,22,-1,1,-5,-16,-9,-21,0.332580647
13.522179,-4,-3,0,2,-14,17,3,5,0.332580647
13.533811,8,6,-2,4,27,5,1,-1,0.332580647
13.533831,-2,0,-3,-3,5,-17,-10,-15,0.332580647
13.544018,-6,-33,-1,-6,-9,1,2,-4,0.332580647
13.544025,-12,1,2,-1,-36,-14,-5,14,0.332580647
13.559917,8,1,-3,1,31,10,7,-7,0.332580647
13.559927,7,-2,-2,0,-32,-20,-6,0,0.332580647
13.559931,-1,7,-3,1,18,2,-10,-7,0.332580647
13.559933,-7,6,-3,-1,18,-3,-1,12,0.332580647
13.580632,-12,-15,1,-1,-40,-2,-1,2,0.345884400
13.580651,6,10,-1,-5,12,10,6,-1,0.345884400
13.582556,10,-12,1,-3,0,2,1,2,0.345884400
13.582569,-20,38,-3,3,19,-2,-3,-11,0.345884400
13.593880,-20,0,-2,-3,-15,-11,-4,8,0.345884400
13.595927,6,11,-1,-4,14,15,4,4,0.345884400
13.605126,1,-9,0,-1,-23,0,2,-5,0.345884400
13.605143,-17,-13,-1,5,-8,2,-2,-5,0.345884400
13.618107,26,4,1,-1,16,-19,-1,17,0.345884400
13.618140,-4,8,-1,-4,-33,27,-1,-15,0.345884400
13.620912,-3,11,0,3,30,-9,0,-7,0.345884400
13.620924,-5,-31,-4,-6,-1,-5,-6,-46,0.345884400
13.639883,5,32,-2,4,16,2,1,41,0.345884400
13.639902,-8,-22,-1,-15,-16,9,-1,-11,0.345884400
13.646894,12,3,-2,14,8,2,-5,1,0.345884400
13.646912,-5,6,0,-5,-3,-7,-5,-9,0.345884400
13.653994,9,-10,0,2,7,-6,-5,-28,0.345884400
13.654020,-9,-1,-2,-3,6,-1,3,-1,0.345884400
13.665108,-25,7,-2,-9,-33,3,0,8,0.345884400
13.665125,0,-9,0,-1,8,-5,2,23,0.345884400
13.678027,-4,1,2,0,2,8,2,-12,0.345884400
13.678060,-18,8,-2,4,-38,-5,4,8,0.345884400
13.680853,15,10,-2,-5,43,8,1,4,0.345884400
13.680872,4,-3,-1,-1,-1,2,5,10,0.345884400
13.700273,-1,4,0,-1,-24,-2,-9,-3,0.345884400
13.700287,0,8,3,7,67,-11,-3,-6,0.345884400
13.701676,-14,-2,0,-2,-8,-7,0,-14,0.345884400
13.701692,8,-3,-3,-4,-4,3,0,21,0.345884400
13.722563,11,11,0,-4,-17,1,3,-7,0.345884400
13.722580,-8,-13,-5,4,39,-8,-8,11,0.345884400
13.724011,5,6,0,-3,-20,4,9,6,0.345884400
13.724059,-9,18,0,-1,16,-5,4,8,0.345884400
13.737785,-6,-32,-1,-4,22,19,2,-8,0.345884400
13.737818,17,24,0,-1,3,-27,-7,-5,0.345884400
13.740082,1,3,1,4,-17,-10,-8,-8,0.345884400
13.740089,-2,8,0,-1,-26,7,-1,-4,0.345884400
13.761021,-10,-18,-1,-1,8,-3,-3,-10,0.345884400
13.761030,3,-36,-3,-3,-30,9,5,10,0.345884400
13.761556,-5,10,0,-3,8,2,-2,0,0.345884400
13.761564,19,-1,-1,2,10,-8,-3,-8,0.345884400
13.782924,15,-1,-3,3,-12,-6,3,73,0.345884400
13.782950,-31,11,-4,-8,2,14,4,-39,0.345884400
13.784415,16,5,1,-3,-14,-12,-1,-1,0.345884400
13.784423,7,-27,-3,-1,10,7,0,11,0.345884400
13.797925,-29,0,-1,3,4,-29,-9,-23,0.345884400
13.797956,19,-16,-5,-4,-44,4,-7,2,0.345884400
13.799834,18,-4,-1,-2,-3,8,5,8,0.345884400
13.799845,2,-1,-4,3,27,-2,1,-9,0.345884400
13.821710,2,-3,0,-6,-16,-4,-3,-17,0.344604503
13.821722,-18,13,0,4,21,-11,-2,6,0.344604503
13.821726,8,7,1,3,-12,3,-2,-9,0.344604503
13.821838,-1,-18,-1,-4,5,11,-3,2,0.344604503
13.842870,-2,16,-2,2,-8,-3,-2,-13,0.344604503
13.842902,12,-5,2,-3,19,6,1,11,0.344604503
13.844776,-3,9,0,-5,-8,4,-3,4,0.344604503
13.844781,-14,-21,-2,3,9,-9,-2,1,0.344604503
13.857224,-22,-3,-1,-2,-6,2,-2,-6,0.344604503
13.857252,-2,-28,-2,3,20,5,0,0,0.344604503
13.863822,-6,4,-4,-6,-3,0,2,-3,0.344604503
13.863845,-12,2,1,6,-2,-9,-1,-9,0.344604503
13.880363,15,0,-1,0,-1,5,2,2,0.344604503
13.880383,17,-4,2,-1,17,1,4,5,0.344604503
13.882517,1,19,-5,-2,-10,-18,-8,-9,0.344604503
13.882535,-3,0,0,-4,3,8,8,-6,0.344604503
13.902606,-6,-4,0,-2,-18,-3,4,53,0.344604503
13.902624,-2,10,3,4,-4,-3,-4,-5,0.344604503
13.904239,2,-12,0,0,16,9,4,5,0.344604503
13.904261,12,13,-1,-5,-7,-5,-1,2,0.344604503
13.916954,20,26,-3,3,9,-2,-3,-24,0.344604503
13.916968,-15,-20,0,-1,-7,-8,0,0,0.344604503
13.923721,-10,-29,0,-5,-27,-1,-1,6,0.344604503
13.923739,5,16,-5,1,39,-6,-4,-2,0.344604503
13.940035,-11,-13,0,3,19,3,1,-14,0.344604503
13.940052,-31,12,-2,0,-35,-14,-12,4,0.344604503
13.941538,9,8,2,0,40,5,10,60,0.344604503
13.941554,-6,-33,-2,-3,-28,-6,-3,31,0.344604503
13.964042,8,19,-3,-7,6,3,-3,-14,0.344604503
13.964057,16,6,1,6,-22,1,3,3,0.344604503
13.964333,-15,6,-1,-2,43,3,-2,-45,0.344604503
13.964340,0,-4,4,-1,-18,-6,-3,-1,0.344604503
13.980044,-4,-6,-4,-14,-2,4,-4,-11,0.344604503
13.980059,-14,-8,-1,7,6,5,1,-3,0.344604503
13.983819,-17,-17,0,3,-9,-9,-2,-8,0.344604503
13.983930,14,26,2,0,-24,0,-4,-8,0.344604503
14.000292,-9,-11,0,-6,-1,-5,-2,-17,0.344604503
14.000309,0,-3,0,-3,5,8,-1,-6,0.344604503
14.003145,7,-6,-1,-3,-7,0,-1,-10,0.344604503
14.003157,-12,3,1,1,13,-3,0,38,0.344604503
14.023140,-9,-15,-2,4,-7,2,4,0,0.344604503
14.023184,41,-8,-5,-7,-7,-16,-5,26,0.344604503
14.026230,-19,17,-1,4,-11,18,-5,-10,0.344604503
14.026242,-11,-10,-2,-4,-15,2,3,-17,0.344604503
14.037352,15,11,2,2,-22,-4,-6,-9,0.344604503
14.037376,-20,-29,-2,-1,12,2,4,-10,0.344604503
14.043917,-8,1,-2,-6,5,-3,-6,3,0.344604503
14.043934,19,4,0,-5,25,-5,-5,-13,0.344604503
14.060458,-10,-6,-4,19,17,19,0,4,0.344604503
14.060488,6,22,3,-4,-14,-9,-2,-8,0.344604503
14.061962,-29,-7,-1,3,-2,-6,0,1,0.344604503
14.062030,-6,-7,-3,-2,-9,0,-2,-12,0.344604503
14.082731,8,1,2,-5,-16,3,-1,5,0.348412654
14.082751,19,19,-2,-2,-4,5,3,0,0.348412654
14.084235,-12,-13,-1,-1,8,-8,-2,-7,0.348412654
14.084245,23,-10,0,3,-19,-4,-5,-2,0.348412654
14.096961,-14,22,-2,-6,3,-7,-3,-10,0.348412654
14.096984,-21,-15,-2,3,8,-11,-2,3,0.348412654
14.103852,15,2,-1,-3,6,8,-2,2,0.348412654
14.103872,-12,0,-1,1,12,4,4,-8,0.348412654
14.121402,-2,-2,0,-2,0,-9,-4,6,0.348412654
14.121411,2,14,-2,-4,-5,6,-1,-1,0.348412654
14.121568,4,-10,-2,0,-7,-16,-4,-7,0.348412654
14.121583,-15,-1,0,-2,11,26,2,-5,0.348412654
14.142859,-7,1,1,-1,-3,-26,-8,-2,0.348412654
14.142891,22,2,-1,-4,-27,0,1,3,0.348412654
14.144267,-1,7,-2,-12,12,-12,-5,-3,0.348412654
14.144279,4,-19,-6,22,10,-2,-3,-1,0.348412654
14.156200,6,-7,-2,-6,-13,2,4,-7,0.348412654
14.156217,-7,-6,-2,4,3,6,-1,23,0.348412654
14.166370,16,5,1,-9,-20,-3,8,54,0.348412654
14.166383,-8,-13,-3,-2,3,1,2,-3,0.348412654
14.180423,-3,-8,-2,0,9,-1,-4,-1,0.348412654
14.182396,-18,1,1,1,-8,-4,0,-8,0.348412654
14.182410,8,-8,-1,5,11,9,-1,-18,0.348412654
14.182413,14,46,5,-4,-26,-25,-3,9,0.348412654
14.202665,-30,-67,-11,-9,-3,19,0,-13,0.348412654
14.202698,-13,12,0,-3,6,-2,-5,-59,0.348412654
14.204198,3,-2,-4,-2,1,0,-4,-5,0.348412654
14.204211,-7,3,-1,-5,-5,1,-2,-12,0.348412654
14.216300,-5,10,1,3,32,-5,-3,-8,0.348412654
14.216431,10,5,0,-3,-18,-4,-1,3,0.348412654
14.226793,1,-11,-1,6,1,10,1,-8,0.348412654
14.226798,-25,-5,-1,-3,-12,-10,3,7,0.348412654
14.240510,39,9,0,1,10,-24,-9,-19,0.348412654
14.240543,-14,10,-2,-1,16,3,-2,5,0.348412654
14.242846,11,4,-5,-21,-90,-1,-2,-9,0.348412654
14.242856,-12,-9,0,18,67,14,3,11,0.348412654
14.263313,16,25,3,-1,-21,5,1,8,0.348412654
14.263346,9,4,-1,-1,16,-1,-4,-29,0.348412654
14.264549,-12,-1,0,-2,7,-8,0,-5,0.348412654
14.264578,14,-1,-1,-9,-35,-4,-2,-18,0.348412654
14.276388,-6,2,1,0,-1,3,0,14,0.348412654
14.276404,-2,-4,-2,3,9,-3,1,6,0.348412654
14.285999,-5,0,0,5,0,2,1,-7,0.348412654
14.286012,1,-3,-3,-7,-5,-2,-4,1,0.348412654
14.300206,-33,1,7,6,3,4,8,-7,0.348412654
14.300224,40,21,-4,-1,-31,-10,-12,10,0.348412654
14.302383,-17,-19,-8,0,77,21,11,38,0.348412654
14.302397,-14,-2,-1,-6,12,-27,-16,2,0.348412654
14.322548,13,-4,-4,1,11,-11,-6,-3,0.348412654
14.322560,-11,-8,1,-3,-6,0,4,11,0.348412654
14.324253,1,30,2,9,6,-5,-2,-14,0.348412654
14.324332,22,8,-1,-4,-21,1,2,-1,0.348412654
14.338007,-2,5,0,-4,-23,3,3,6,0.349169778
14.338021,-8,-10,0,-3,22,2,-3,-11,0.349169778
14.346708,11,-11,1,7,-3,-7,-4,-10,0.349169778
14.346728,-17,-5,0,-2,-7,6,-4,-4,0.349169778
14.360624,-8,6,-2,0,-15,-2,-4,-8,0.349169778
14.360701,9,-44,-2,-3,14,2,4,20,0.349169778
14.362441,-1,5,-1,-2,-44,12,-6,-26,0.349169778
14.362446,30,15,2,-1,16,-8,-5,63,0.349169778
14.384513,-16,17,-8,-12,-20,21,18,3,0.349169778
14.384525,-5,-9,0,5,8,-32,-8,-4,0.349169778
14.384528,-6,6,3,3,8,23,1,-3,0.349169778
14.384531,-1,-17,-3,-10,-10,-1,1,-24,0.349169778
14.396498,14,6,0,6,1,-1,-6,1,0.349169778
14.396518,-27,13,3,-5,-3,5,5,13,0.349169778
14.407197,9,-8,-2,0,3,-16,-4,-7,0.349169778
14.407204,-49,23,-2,-21,-35,13,2,-35,0.349169778
14.420346,44,-40,-3,23,31,-3,-3,47,0.349169778
14.420364,-11,16,-4,-2,-2,10,-1,-34,0.349169778
14.421572,3,-9,1,1,8,-17,-8,2,0.349169778
14.421589,8,-3,-2,-2,-41,13,9,-19,0.349169778
14.442524,-3,22,2,-3,44,-1,-4,-23,0.349169778
14.442548,3,-28,-2,-6,34,1,1,-2,0.349169778
14.444384,-1,5,-1,-2,-17,-1,1,8,0.349169778
14.444391,-14,-9,0,9,20,-4,-2,8,0.349169778
14.456243,-5,6,0,-4,-21,-12,-1,-3,0.349169778
14.456259,12,6,0,6,37,29,3,14,0.349169778
14.466443,19,-6,-3,-8,-9,-25,-2,-6,0.349169778
14.466449,-29,-14,-4,3,21,18,-2,-2,0.349169778
14.480147,16,4,-4,-7,-22,-4,1,1,0.349169778
14.480170,4,-29,-2,-5,-15,4,-3,-30,0.349169778
14.481821,8,9,0,1,4,-11,1,23,0.349169778
14.481844,14,6,-2,4,-2,-2,-6,-4,0.349169778
14.502673,6,13,4,-3,-3,1,0,-6,0.349169778
14.502690,-16,2,1,-3,-63,-1,-1,2,0.349169778
14.504237,-5,-3,0,4,23,6,-1,-6,0.349169778
14.504256,15,-8,-1,-13,-50,-28,-3,-6,0.349169778
14.516374,-4,-12,2,16,11,10,-1,29,0.349169778
14.516393,-44,10,-5,-5,23,2,-6,-47,0.349169778
14.525382,6,-14,-3,-4,-3,-9,-3,18,0.349169778
14.525391,6,-3,-2,-1,-3,7,4,14,0.349169778
14.541611,9,-16,-1,-2,6,-13,-5,-26,0.349169778
14.541621,30,21,-2,-7,-38,-1,-3,-1,0.349169778
14.541625,-14,0,-2,3,20,-2,-1,-9,0.349169778
14.541627,-7,6,1,-2,8,3,-1,-7,0.349169778
14.562833,-13,-1,1,-7,-7,-2,2,-5,0.349169778
14.562851,-11,10,-1,6,15,-3,3,58,0.349169778
14.564866,15,3,-2,-4,-17,0,-3,-11,0.349169778
14.564882,4,9,0,5,15,4,5,16,0.349169778
14.585191,-18,-49,-1,-4,-5,0,-3,-7,0.361491073
14.585217,11,-3,0,-2,2,4,2,1,0.361491073
14.587442,-20,-3,0,3,14,-7,-5,-17,0.361491073
14.587452,-6,-10,-1,1,-3,-1,-1,-10,0.361491073
14.600237,2,32,-3,-4,-9,-8,-10,4,0.361491073
14.600257,12,-7,-5,-2,-6,-6,5,1,0.361491073
14.602172,-18,-12,0,-15,-30,6,5,3,0.361491073
14.602183,5,19,-4,24,66,-4,-7,-6,0.361491073
14.622842,-17,-2,2,-6,-26,4,0,-14,0.361491073
14.622867,-13,9,-1,0,-32,-15,2,11,0.361491073
14.624243,-18,5,0,0,2,20,-1,-4,0.361491073
14.624267,6,-1,-1,-7,-8,1,-7,3,0.361491073
14.645726,-10,6,-2,-7,-10,-3,-5,-29,0.361491073
14.645742,13,4,4,9,5,-7,-5,-5,0.361491073
14.648485,31,-8,1,2,-12,2,2,4,0.361491073
14.648504,-26,8,1,-8,-17,-6,-3,-1,0.361491073
14.660876,-5,-23,-4,0,43,-5,0,-6,0.361491073
14.660893,21,38,0,-2,-5,11,3,-5,0.361491073
14.662795,9,2,0,2,-22,-15,-1,-6,0.361491073
14.662811,0,-8,1,-1,-7,10,-3,-14,0.361491073
14.682733,19,7,-1,-2,42,6,3,9,0.361491073
14.682754,-8,-2,0,0,-1,-14,-4,6,0.361491073
14.684120,3,9,-3,0,5,-9,-4,5,0.361491073
14.684137,9,-2,-1,-5,-14,-14,-3,3,0.361491073
14.705049,0,-11,-1,-2,-16,-1,-2,7,0.361491073
14.705073,-28,6,-2,2,47,10,2,-1,0.361491073
14.706620,17,0,-2,-8,-19,-2,1,11,0.361491073
14.706627,14,10,0,15,24,-10,-4,8,0.361491073
14.720327,20,-39,-3,-5,-21,4,-4,-13,0.361491073
14.720344,-13,-20,-1,-3,2,-6,-6,-15,0.361491073
14.721696,-34,11,0,3,54,0,-4,-6,0.361491073
14.721728,10,2,0,-8,-48,3,5,4,0.361491073
14.743920,-14,0,-2,-2,-5,3,1,1,0.361491073
14.743932,12,-6,-2,1,-4,-4,-1,8,0.361491073
14.744035,-11,-10,-3,-3,0,-1,0,-6,0.361491073
14.744043,17,8,0,-4,-19,-4,-1,-10,0.361491073
14.765243,-14,19,0,2,17,-4,0,-4,0.361491073
14.767064,-6,-49,-1,-2,-1,-7,-1,4,0.361491073
14.767076,8,4,1,3,1,5,-9,8,0.361491073
14.767079,-4,-17,-1,-2,8,1,4,-3,0.361491073
14.779799,-2,24,-2,-6,-7,2,3,4,0.361491073
14.779827,16,-11,-2,3,27,-6,1,83,0.361491073
14.786268,-5,6,1,-15,-46,6,4,-1,0.361491073
14.786286,-1,-42,-3,17,26,-10,-9,-10,0.361491073
14.804571,6,43,-1,-6,-20,1,4,6,0.361491073
14.804590,-26,-3,-1,-1,1,6,-2,-29,0.361491073
14.804597,-19,0,-1,0,2,-4,1,-12,0.361491073
14.804603,-8,3,1,-7,-3,7,5,5,0.361491073
14.825439,3,1,0,-1,9,-4,-4,1,0.361491073
14.825472,26,5,0,2,-36,0,0,-6,0.361491073
14.826867,18,-5,-4,0,-8,-12,-7,-39,0.361491073
14.826881,-29,8,-3,-2,22,8,-2,0,0.361491073
14.839412,12,-7,-1,5,-4,-3,-1,1,0.361491073
14.839429,-7,-7,0,-7,-37,5,-4,-12,0.361491073
14.846907,1,-21,1,4,69,-3,0,-9,0.348917403
14.846933,-15,41,-2,-3,-1,1,3,3,0.348917403
14.863030,2,-20,-4,-2,10,-8,-2,2,0.348917403
14.863067,-9,3,0,-1,-69,3,-2,-6,0.348917403
14.865744,-8,-8,-2,4,9,7,3,8,0.348917403
14.865761,-5,1,-2,-15,9,7,5,3,0.348917403
14.885263,-16,-5,1,23,7,-2,2,3,0.348917403
14.885278,18,35,0,-4,10,-36,-10,10,0.348917403
14.886603,8,-12,-4,0,-12,24,2,5,0.348917403
14.886620,-18,-12,1,-5,-5,-4,-2,-29,0.348917403
14.899495,17,6,4,-4,-31,-1,11,78,0.348917403
14.899513,19,-5,-3,0,74,22,5,-8,0.348917403
14.906193,0,12,-1,0,-57,-1,0,0,0.348917403
14.906211,-3,-21,-2,1,15,-7,-7,7,0.348917403
14.922565,-2,-3,-3,-9,-16,-4,-3,-28,0.348917403
14.922583,6,-4,0,1,20,1,1,-8,0.348917403
14.924028,-29,-4,-3,-2,-2,-10,-3,18,0.348917403
14.924042,10,-5,-3,-1,-15,3,3,-6,0.348917403
14.947651,-5,4,0,-1,9,-5,-6,-16,0.348917403
14.947672,-18,-28,-4,-3,-14,0,0,0,0.348917403
14.947680,3,16,2,2,41,2,0,-17,0.348917403
14.947686,14,1,0,-1,-32,-9,-2,5,0.348917403
14.959826,6,-9,-1,-2,12,4,-5,-11,0.348917403
14.959852,-11,12,-2,-2,11,-2,1,-4,0.348917403
14.966575,5,-10,1,1,-14,2,10,58,0.348917403
14.966594,18,8,0,1,49,0,1,2,0.348917403
14.982648,-28,-8,-6,-9,6,3,-3,2,0.348917403
14.983750,-15,-1,-1,2,0,-21,-10,-10,0.348917403
14.984179,11,-5,0,-1,0,-10,-5,-14,0.348917403
14.984230,4,-7,0,-1,-34,8,-1,4,0.348917403
15.005441,1,41,-1,-6,-21,11,1,-13,0.348917403
15.005458,-7,-9,-1,0,38,0,0,-3,0.348917403
15.007580,-9,-4,0,4,-23,-3,-2,-14,0.348917403
15.007590,2,-3,-2,-8,-18,-9,-4,7,0.348917403
15.019907,-1,-2,-1,1,0,-6,-3,-8,0.348917403
15.019940,7,1,0,-1,-3,8,-2,-4,0.348917403
15.026628,-7,7,-1,1,16,-4,7,-4,0.348917403
15.026657,25,-25,-2,2,4,-1,-1,-1,0.348917403
15.042986,5,-23,-3,1,7,0,-4,-7,0.348917403
15.043015,-9,12,2,1,-16,1,2,-1,0.348917403
15.045544,-9,-12,0,-3,-17,-6,-2,-3,0.348917403
15.045552,-4,3,-1,-2,10,5,1,-22,0.348917403
15.065357,-14,-4,-1,2,-16,-10,-6,9,0.348917403
15.065379,-6,9,0,-1,-38,-4,-3,-22,0.348917403
15.067086,18,-1,-2,0,30,7,-2,-9,0.348917403
15.067103,-3,0,0,0,6,-10,-3,4,0.348917403
15.080115,3,-13,-1,1,1,-4,-2,2,0.348917403
15.080161,-5,3,-3,-1,-6,4,4,-10,0.348917403
15.086282,2,38,1,-1,-16,-3,-4,-7,0.348917403
15.086300,-3,-8,-1,0,-32,-5,-1,14,0.348917403
15.102563,-4,-2,-1,0,17,-8,0,-7,0.350170265
15.102575,8,-15,-3,-19,-50,15,-1,1,0.350170265
15.104089,-1,4,0,26,55,15,-5,1,0.350170265
15.104104,4,-6,-3,-6,-5,0,3,10,0.350170265
15.125211,7,-3,1,-2,-27,-16,-5,-6,0.350170265
15.125228,-18,-13,-2,1,1,8,-5,-4,0.350170265
15.127523,-10,18,-2,-9,-16,-2,-5,10,0.350170265
15.127530,-2,-1,-2,1,-4,-6,-13,-15,0.350170265
15.138703,-8,0,3,3,0,4,2,0,0.350170265
15.138720,18,2,-1,3,30,-4,6,12,0.350170265
15.148671,-9,-17,-6,-10,-16,-1,-3,-13,0.350170265
15.148684,-5,13,0,2,9,-5,-1,2,0.350170265
15.165528,-1,3,1,-2,1,2,2,-4,0.350170265
15.165542,12,5,0,1,4,-8,-3,8,0.350170265
15.165545,-5,-19,0,-1,-1,2,0,-3,0.350170265
15.165548,16,19,1,0,3,1,4,0,0.350170265
15.185353,-31,-18,-4,-2,-25,-5,-3,5,0.350170265
15.185378,18,9,1,-1,14,11,8,-1,0.350170265
15.186699,-4,-5,-1,-3,37,-23,-19,-32,0.350170265
15.186721,-6,-1,1,2,2,1,0,4,0.350170265
15.198923,7,13,1,-3,-3,-3,-1,-11,0.350170265
15.198941,-3,3,-1,2,2,-10,-3,1,0.350170265
15.209638,-17,-9,-2,-8,-25,17,5,-2,0.350170265
15.209645,-11,-39,-1,0,0,2,-1,1,0.350170265
15.222765,-2,3,-3,-1,15,3,-2,-2,0.350170265
15.222798,-12,-8,0,-4,-11,-18,-3,-1,0.350170265
15.224246,38,6,-1,3,16,3,6,32,0.350170265
15.224253,-52,-10,-4,-2,1,-2,-6,-44,0.350170265
15.245237,26,-7,-3,0,-4,4,1,25,0.350170265
15.245248,-14,1,2,0,-49,2,5,9,0.350170265
15.246980,5,1,2,-5,30,-2,-8,-14,0.350170265
15.246999,-6,29,1,1,-8,5,5,0,0.350170265
15.258743,-8,-31,-4,-6,-39,-2,0,-8,0.350170265
15.258755,-10,-2,-1,1,4,-1,-5,-27,0.350170265
15.269332,4,7,0,0,-7,-6,7,17,0.350170265
15.269353,10,4,-2,-1,3,-3,0,7,0.350170265
15.282878,-8,-3,-2,-1,0,1,-1,-6,0.350170265
15.282898,12,-4,-3,1,8,0,-2,4,0.350170265
15.284388,-14,-16,-1,-3,-38,1,5,1,0.350170265
15.284398,8,0,-2,1,14,-6,-1,18,0.350170265
15.312875,-5,12,-1,-3,7,3,-2,-7,0.350170265
15.315259,-1,-8,0,0,11,8,2,-2,0.350170265
15.315279,-6,17,-2,-1,-13,-24,-10,-3,0.350170265
15.315282,1,-27,2,-2,4,-11,-5,-3,0.350170265
15.318804,-4,-4,2,-5,-25,25,10,1,0.350170265
15.318822,4,1,-3,3,0,-16,-13,-5,0.350170265
15.329671,-20,6,1,-1,19,21,1,0,0.350170265
15.329687,0,-18,-2,-3,-16,-4,-4,4,0.350170265
15.342691,21,25,-2,-2,24,-13,-8,-51,0.350170265
15.342717,-12,-22,-1,1,6,1,1,12,0.350170265
15.344728,0,-1,0,-5,-16,-3,0,-2,0.350170265
15.344741,-4,-2,1,2,-3,-2,2,-3,0.350170265
15.366251,-9,37,0,1,12,-1,-4,-27,0.333112437
15.366266,23,5,-4,-12,-12,2,-1,44,0.333112437
15.366708,-6,-7,-2,16,15,-8,-4,-17,0.333112437
15.366717,11,13,2,1,-35,10,5,42,0.333112437
15.378807,-28,-3,1,2,58,-4,1,12,0.333112437
15.378832,2,9,-1,1,-3,-4,2,-21,0.333112437
15.389779,19,-2,-3,-8,-32,-6,3,8,0.333112437
15.389789,-14,-17,-2,-3,6,12,8,-3,0.333112437
15.403225,-7,-18,-1,-1,24,-8,-12,11,0.333112437
15.405048,16,-2,-2,-4,19,-24,-13,-9,0.333112437
15.405055,-15,14,-2,-3,-12,17,7,5,0.333112437
15.405058,12,19,0,2,11,-8,-1,-12,0.333112437
15.427753,6,-9,-1,3,-17,-1,2,13,0.333112437
15.427770,-23,27,2,-20,-24,12,-2,-19,0.333112437
15.427777,14,1,2,27,35,-16,-2,40,0.333112437
15.427783,5,-17,-5,-1,2,4,0,-5,0.333112437
15.438841,22,-8,-3,-2,17,5,-2,9,0.333112437
15.438866,1,1,-3,-3,-34,2,2,-6,0.333112437
15.449468,-8,2,2,-5,-3,-4,0,-13,0.333112437
15.449482,1,8,4,-1,-6,-1,7,89,0.333112437
15.463047,10,18,-1,1,-6,-4,-4,11,0.333112437
15.463070,-13,-12,-1,5,18,1,-2,-7,0.333112437
15.464407,-3,4,-3,-6,-11,1,-2,-9,0.333112437
15.464436,11,-8,-4,-1,12,-5,-4,-33,0.333112437
15.485088,-4,5,2,-5,-41,-8,1,-14,0.333112437
15.485114,-3,0,2,7,50,11,8,7,0.333112437
15.486839,9,-16,-3,-28,10,-9,-2,12,0.333112437
15.486923,-21,4,-3,19,28,-2,-15,-41,0.333112437
15.498921,-5,14,-1,3,-3,0,-2,17,0.333112437
15.498940,-2,-24,3,7,-30,-11,1,-13,0.333112437
15.509328,-9,9,-2,-5,30,20,-5,-14,0.333112437
15.509334,-3,11,-2,-12,-4,0,3,-8,0.333112437
15.522509,6,3,1,2,2,-4,2,7,0.333112437
15.522521,4,0,-1,3,0,-3,-3,-1,0.333112437
15.523988,-7,-4,0,0,-24,-5,-4,-8,0.333112437
15.523997,5,10,-1,-2,-10,-3,-5,-21,0.333112437
15.545781,4,-9,3,3,5,4,1,16,0.333112437
15.545813,-8,22,-1,-2,10,0,0,3,0.333112437
15.548810,5,-64,-7,-2,-39,-1,-1,-15,0.333112437
15.548827,-17,12,4,-1,-14,-9,-4,-19,0.333112437
15.567725,49,-27,-10,-5,31,14,5,-5,0.333112437
15.567735,-28,3,-1,-3,4,9,-4,-1,0.333112437
15.569119,0,16,0,1,14,-1,-2,1,0.333112437
15.569129,16,11,1,1,-2,1,5,76,0.333112437
15.583255,-16,-23,0,-3,-7,6,4,0,0.333112437
15.583275,-5,10,1,-13,-6,-17,-6,-1,0.333112437
15.589176,-15,-19,-2,20,-12,0,0,-14,0.333112437
15.589200,5,38,-2,-6,-3,-5,5,-20,0.333112437
15.605226,-4,-11,0,2,-1,-1,-3,-8,0.333112437
15.605251,11,-20,-3,-3,14,3,4,-1,0.333112437
15.606771,-8,22,0,-5,-13,1,1,3,0.333112437
15.606787,1,3,-2,-2,-3,-3,0,-9,0.333112437
15.627702,-18,6,0,-1,-6,-3,3,-1,0.346078188
15.627744,-18,-8,-3,3,-9,-1,-4,-10,0.346078188
15.629245,29,-12,-1,-3,4,-13,-2,-4,0.346078188
15.629271,-3,7,0,1,-2,2,-2,-2,0.346078188
15.642735,-19,-4,1,-1,13,-3,-4,-9,0.346078188
15.642773,15,-14,1,3,-31,4,-1,6,0.346078188
15.644685,-8,39,0,-4,13,6,-4,22,0.346078188
15.644704,-3,-51,-5,-10,51,-20,-1,-9,0.346078188
15.665321,-2,20,-1,-2,8,8,4,0,0.346078188
15.665344,-6,0,-1,4,-30,-29,-9,-1,0.346078188
15.666728,-3,-6,-2,-2,43,11,3,-5,0.346078188
15.667606,-10,0,2,0,-37,2,-8,-32,0.346078188
15.687590,24,-11,1,2,0,-9,-3,2,0.346078188
15.687608,-8,30,-3,0,18,2,3,2,0.346078188
15.689026,-7,-3,0,-5,-30,-4,-1,1,0.346078188
15.689043,6,-8,-1,-2,0,12,-1,-8,0.346078188
15.702299,-14,-6,-1,-2,-10,-6,-3,-5,0.346078188
15.702323,-4,1,4,2,9,13,-3,-3,0.346078188
15.708955,17,11,-3,-2,-13,-16,-11,-86,0.346078188
15.708978,8,7,0,1,39,-7,-4,38,0.346078188
15.725098,16,-5,1,-4,-70,13,1,1,0.346078188
15.725137,-6,-5,-2,0,62,13,1,-8,0.346078188
15.726591,-1,-3,1,-1,-11,-6,5,-5,0.346078188
15.726607,-22,19,-4,-10,23,3,-12,-17,0.346078188
15.747711,-1,-5,-1,4,3,-6,-3,3,0.346078188
15.747728,0,-16,-1,1,-31,-14,3,-2,0.346078188
15.749363,0,-6,1,4,46,16,-4,16,0.346078188
15.749373,1,7,0,-8,-23,6,7,0,0.346078188
15.762643,-16,-23,-5,-3,-4,-10,0,3,0.346078188
15.762684,16,3,-3,-2,-19,3,0,0,0.346078188
15.768997,-22,-4,0,-3,53,12,4,13,0.346078188
15.769022,16,-24,-1,2,-39,-22,-5,-3,0.346078188
15.785830,-18,22,-1,0,26,0,-7,-13,0.346078188
15.785842,6,-12,-1,0,-2,3,3,1,0.346078188
15.786579,13,4,-1,-1,-23,-3,-4,11,0.346078188
15.786615,13,-11,-2,2,9,6,-1,-5,0.346078188
15.807846,-16,7,0,-1,-37,-2,-2,-9,0.346078188
15.807864,2,-4,-2,-3,17,2,-3,1,0.346078188
15.809045,-11,23,3,0,-26,-9,0,7,0.346078188
15.809060,-11,-3,-2,2,3,4,-2,3,0.346078188
15.822029,2,-17,-1,-4,2,-10,-2,-12,0.346078188
15.822047,-10,39,1,3,0,2,0,1,0.346078188
15.828922,-4,-44,-4,-3,1,5,1,-3,0.346078188
15.828939,-5,1,-1,0,-7,0,11,73,0.346078188
15.845839,-13,-7,-1,-3,13,-7,-4,-5,0.346078188
15.845871,21,24,-1,-1,-6,19,-1,1,0.346078188
15.848710,10,-5,2,2,-64,-22,0,5,0.346078188
15.848733,-17,6,-2,0,46,27,-8,-27,0.346078188
15.867693,34,3,-4,-4,-20,-9,6,10,0.334180525
15.867709,-9,-6,2,5,35,-3,0,12,0.334180525
15.869194,-9,-6,-3,-1,-14,5,5,-5,0.334180525
15.869214,29,10,0,0,-28,-27,-9,-14,0.334180525
15.882100,-2,-8,0,0,-4,2,-5,-3,0.334180525
15.882122,-3,-10,-3,-4,-21,2,-3,-14,0.334180525
15.888692,-7,0,0,0,-8,1,5,13,0.334180525
15.888717,21,-13,-2,-3,-18,3,6,-12,0.334180525
15.905329,-7,33,-1,4,49,5,-4,-3,0.334180525
15.905354,-2,-21,-2,-4,-36,-13,-1,-22,0.334180525
15.907969,-3,-6,2,3,6,-2,-6,-19,0.334180525
15.907977,5,0,-3,0,7,9,2,16,0.334180525
15.928059,-30,-5,-2,-3,-36,-8,-2,-8,0.334180525
15.928068,-11,9,-1,0,44,8,-2,-6,0.334180525
15.929025,19,4,-2,-3,25,-3,-4,-16,0.334180525
15.929032,16,-2,2,-1,-21,-1,1,-30,0.334180525
15.943367,23,-19,-4,1,-16,1,-5,6,0.334180525
15.943374,17,19,-2,-3,-3,-8,-2,13,0.334180525
15.949023,-26,-4,0,5,16,0,-1,12,0.334180525
15.949048,18,-4,-1,-9,25,-11,-1,-11,0.334180525
15.965349,8,7,1,12,16,16,4,12,0.334180525
15.965373,-5,-20,0,-3,-18,14,-3,0,0.334180525
15.966690,18,2,-1,-18,-39,2,8,17,0.334180525
15.966698,-25,24,0,16,21,-19,-10,-13,0.334180525
15.987899,-3,-33,1,-6,-1,2,-11,-56,0.334180525
15.987935,-21,14,-5,-1,-8,-8,-2,-4,0.334180525
15.990420,-9,-1,-4,-6,-2,-1,-3,-3,0.334180525
15.990429,-12,7,2,-1,-21,1,0,7,0.334180525
16.002395,-4,12,3,-1,4,-3,1,-2,0.334180525
16.002420,11,-42,0,3,9,-3,0,1,0.334180525
16.009163,-4,14,0,2,2,-7,-2,2,0.334180525
16.009185,-21,-10,-1,-3,-39,1,-1,-14,0.334180525
16.025373,15,6,-2,0,5,-11,-3,10,0.334180525
16.025405,0,-9,1,-8,20,5,3,1,0.334180525
16.027981,0,8,-1,2,-26,1,-2,8,0.334180525
16.027988,-12,-18,-1,2,-6,4,-4,-4,0.334180525
16.047781,14,4,-1,-5,32,-8,3,15,0.334180525
16.047808,-10,4,0,-2,-23,2,-2,4,0.334180525
16.049803,18,8,-2,0,11,-9,-6,-39,0.334180525
16.049815,-2,-11,-4,-1,5,12,3,10,0.334180525
16.062120,-18,-7,-2,-3,-7,-2,1,4,0.334180525
16.064824,-18,-5,-4,-2,8,-13,-4,-10,0.334180525
16.068724,19,-1,-1,4,2,4,-2,-3,0.334180525
16.068748,0,-7,0,-4,1,3,4,-3,0.334180525
16.085105,-38,16,-1,-2,-4,-3,-3,-3,0.334180525
16.085115,27,-5,-2,1,2,-1,1,5,0.334180525
16.086750,-35,-6,-3,-3,-22,-7,-2,10,0.334180525
16.086765,8,-8,-3,-1,-23,16,0,18,0.334180525
16.107773,5,5,2,0,10,-6,8,8,0.334180525
16.107790,13,4,-1,5,-6,0,-3,1,0.334180525
16.110028,-21,-12,-3,-25,34,10,-6,9,0.334180525
16.110041,-3,-31,-1,25,19,-8,2,-5,0.334180525
16.121345,8,6,-5,-4,-32,-1,-8,-59,0.337632651
16.121370,-5,-4,0,-1,-39,4,0,-22,0.337632651
16.132519,-4,1,5,6,5,-3,0,0,0.337632651
16.132533,-1,2,0,-10,-7,-3,1,-1,0.337632651
16.145379,-6,36,-2,-2,8,-4,6,50,0.337632651
16.145396,-14,-28,-1,0,-11,-2,-3,-6,0.337632651
16.147588,15,3,0,4,-3,-1,-2,0,0.337632651
16.147602,-14,4,-1,-7,1,-3,-2,-18,0.337632651
16.168818,15,-10,2,5,2,2,-3,5,0.337632651
16.168838,15,16,-3,-7,8,-5,-1,5,0.337632651
16.173841,4,-7,-4,6,0,-2,-1,13,0.337632651
16.173858,29,2,1,0,16,2,-2,2,0.337632651
16.181255,-19,-20,-4,-5,4,-1,-3,0,0.337632651
16.181273,-1,4,-1,-3,-13,5,5,12,0.337632651
16.190767,11,-34,-2,0,12,-18,-6,-8,0.337632651
16.190778,-11,22,-2,-5,-34,-4,-1,-5,0.337632651
16.205616,-10,-17,-3,-1,-11,4,-5,-2,0.337632651
16.205650,22,6,-2,-2,28,10,4,3,0.337632651
16.207614,-2,11,1,3,-24,-19,-7,11,0.337632651
16.207621,-6,-1,-1,-6,25,12,1,1,0.337632651
16.227643,7,-2,1,-2,-7,-2,-1,0,0.337632651
16.227655,-23,1,0,3,-11,-8,4,2,0.337632651
16.229054,-6,7,-3,0,30,17,2,-7,0.337632651
16.229062,-12,-5,-1,-2,5,-8,-3,21,0.337632651
16.241256,35,-2,-2,0,-22,3,-10,3,0.337632651
16.241289,-29,-1,-1,-1,11,-29,-11,-7,0.337632651
16.251085,-27,-24,-5,-4,-24,27,15,0,0.337632651
16.251094,-10,0,3,6,-6,-6,2,-10,0.337632651
16.265367,-17,9,-2,-4,12,14,1,-1,0.337632651
16.265388,6,0,1,1,14,-5,-8,-44,0.337632651
16.267209,12,-1,1,1,-18,-14,-6,12,0.337632651
16.267219,-7,-4,-1,-3,2,0,7,43,0.337632651
16.287599,3,-11,0,-1,-14,-4,1,-28,0.337632651
16.287617,18,34,-1,2,-30,-3,-3,1,0.337632651
16.289093,-6,-5,-3,0,23,-13,-6,-10,0.337632651
16.289129,26,-6,1,-2,-10,-2,-3,-21,0.337632651
16.303253,-9,9,-1,-2,-2,-7,0,-4,0.337632651
16.303268,-14,5,2,1,7,2,2,10,0.337632651
16.312107,5,0,-2,2,3,14,5,1,0.337632651
16.312114,-8,-3,-1,-4,5,-18,-11,3,0.337632651
16.325415,-12,-9,0,-1,-77,-5,2,9,0.337632651
16.325448,12,-7,-5,-4,16,8,-2,2,0.337632651
16.327075,14,-2,-1,-1,6,-1,1,7,0.337632651
16.327081,-16,15,-4,-1,9,4,-3,-23,0.337632651
16.347818,-7,-19,1,-1,20,-1,3,8,0.337632651
16.347839,13,-2,-1,2,10,0,-1,11,0.337632651
16.349657,24,8,2,-19,-125,-26,-5,-10,0.337632651
16.349671,-24,-7,-1,18,99,10,2,7,0.337632651
16.361700,18,-15,-6,-8,25,11,-4,-2,0.337632651
16.361730,-1,28,-1,-17,-27,-3,-6,-35,0.337632651
16.371999,-6,0,0,16,24,-3,2,25,0.337632651
16.372010,1,0,-1,-10,-36,-5,-3,-18,0.337632651
16.385045,-4,10,0,5,18,-4,1,10,0.337497448
16.385062,-15,-14,-2,-4,-5,-1,1,9,0.337497448
16.386727,-13,-11,-3,-2,12,5,-2,-17,0.337497448
16.388257,26,7,-2,-7,-10,-5,-2,-5,0.337497448
16.408359,-43,4,2,1,8,18,9,-11,0.337497448
16.408385,30,-19,-6,-4,-12,-25,-22,-9,0.337497448
16.410040,-30,9,-1,0,16,8,7,-5,0.337497448
16.410051,7,-13,-1,4,-8,0,0,14,0.337497448
16.421751,20,2,-3,-6,-10,-1,0,5,0.337497448
16.421784,-2,12,2,5,14,12,3,12,0.337497448
16.432251,-35,-37,-1,-2,29,-3,-8,7,0.337497448
16.432265,6,-19,-5,-5,-5,1,-7,-13,0.337497448
16.445083,-5,25,-1,-1,-37,-12,-3,3,0.337497448
16.445124,3,-5,0,1,33,5,7,11,0.337497448
16.455071,0,21,-1,1,5,-2,-3,-20,0.337497448
16.455079,-21,-7,1,-1,-14,3,1,-7,0.337497448
16.467076,-6,-5,-5,1,23,-19,-8,-14,0.337497448
16.467096,-4,-51,1,-16,-60,20,3,52,0.337497448
16.468437,4,10,-3,25,80,0,-2,-7,0.337497448
16.468452,-2,4,1,-3,-64,-9,2,0,0.337497448
16.489362,10,17,-1,7,31,-1,-7,-63,0.337497448
16.489374,-30,6,1,-7,39,7,-1,8,0.337497448
16.490056,2,11,1,-5,-8,-1,-2,-1,0.337497448
16.490080,19,-21,-1,-2,-17,17,10,7,0.337497448
16.505298,-19,-10,1,0,8,-19,-14,-9,0.337497448
16.505311,16,21,-1,3,-4,-1,7,0,0.337497448
16.505317,-1,-21,2,0,-12,0,-5,-1,0.337497448
16.505323,33,-4,-6,2,35,0,-7,-20,0.337497448
16.527513,0,3,-4,-17,-55,9,7,22,0.337497448
16.527538,6,5,1,26,12,-6,0,-5,0.337497448
16.530123,-8,12,3,-8,12,-9,-5,15,0.337497448
16.530138,-15,-2,1,-3,22,-2,7,-2,0.337497448
16.549593,11,4,-4,1,31,24,14,20,0.337497448
16.549612,0,-19,1,0,-21,-9,0,0,0.337497448
16.551620,7,30,-2,-6,-66,4,0,-9,0.337497448
16.551638,-9,2,-1,4,54,15,-6,-2,0.337497448
16.564575,15,1,1,-3,-1,-6,4,45,0.337497448
16.564595,-26,1,-1,5,18,2,1,-18,0.337497448
16.566098,45,-2,0,-1,-22,0,7,31,0.337497448
16.566111,-8,8,2,-6,-26,-8,-4,1,0.337497448
16.587180,11,11,-1,2,23,16,10,87,0.337497448
16.587199,10,-5,-2,-16,-41,-32,-9,-9,0.337497448
16.587679,-20,-15,-3,19,41,13,-4,-10,0.337497448
16.587688,-17,6,-1,-4,4,-8,0,-6,0.337497448
16.609483,6,7,1,5,-25,-2,-4,-31,0.337497448
16.610619,-6,-56,-4,3,56,2,1,-8,0.337497448
16.610624,5,3,0,-13,-61,-4,1,7,0.337497448
16.610627,-11,6,-1,-1,32,-3,-8,2,0.337497448
16.624389,-17,2,1,4,11,6,10,-20,0.337497448
16.624406,7,18,-4,-6,-7,-1,-9,-1,0.337497448
16.626310,19,3,-3,-3,5,-4,-2,-14,0.337497448
16.626317,-13,-7,4,3,-54,-15,2,-5,0.337497448
16.647457,7,-9,-3,-3,7,0,-13,-9,0.367750868
16.647473,0,-8,-1,-2,4,14,8,1,0.367750868
16.647747,-3,6,-4,-3,35,14,3,-6,0.367750868
16.647755,-1,13,-1,-5,-28,-24,-5,2,0.367750868
16.669684,-3,-10,4,-11,-37,-14,-7,-3,0.367750868
16.669708,-3,3,3,12,62,-1,-3,3,0.367750868
16.670902,17,33,-3,-6,-5,0,2,-4,0.367750868
16.670912,-25,-10,-2,7,27,1,-1,-19,0.367750868
16.684499,16,6,-1,-6,-7,-3,1,16,0.367750868
16.684524,-4,-11,-1,-4,-28,1,6,65,0.367750868
16.685879,-7,4,4,-2,-36,-6,0,-6,0.367750868
16.685887,19,7,-3,-4,34,7,3,-10,0.367750868
16.709594,-37,-5,-1,-1,16,-1,-10,-20,0.367750868
16.709600,-6,9,-4,-5,-31,2,3,-22,0.367750868
16.709603,-3,-9,-3,-1,20,-2,1,7,0.367750868
16.709606,11,1,2,-4,-38,0,-2,20,0.367750868
16.729823,5,-10,3,7,-1,-23,1,-17,0.367750868
16.729844,4,-9,-3,1,14,26,-2,10,0.367750868
16.731658,0,31,-3,-11,-25,-5,-1,-5,0.367750868
16.731672,6,-39,-5,6,-8,4,-3,-10,0.367750868
16.744645,-16,2,-3,0,9,2,-2,-8,0.367750868
16.744664,-11,17,4,1,-18,-13,-3,-5,0.367750868
16.746607,3,-22,-2,5,2,-2,-5,2,0.367750868
16.746622,-36,37,1,-11,-3,16,6,12,0.367750868
16.767138,5,-40,-4,-1,1,-30,-12,-4,0.367750868
16.767156,4,5,1,8,18,0,1,-12,0.367750868
16.768414,-14,-8,1,-6,-4,1,-3,-2,0.367750868
16.768423,-7,-5,-3,-1,-2,0,-3,2,0.367750868
16.789337,1,-7,-1,-2,-16,2,3,1,0.367750868
16.789354,-8,10,-2,-6,-21,-6,-2,-18,0.367750868
16.790152,-17,-5,2,2,13,0,2,-4,0.367750868
16.790190,28,1,-4,-4,-10,-10,-18,-5,0.367750868
16.804634,4,6,0,2,-18,14,9,7,0.367750868
16.804652,-3,-5,-3,0,24,-17,-10,-9,0.367750868
16.805874,12,-15,-3,4,2,-2,-1,3,0.367750868
16.805883,-1,-34,-1,0,19,-25,0,4,0.367750868
16.827631,-2,3,-1,0,-3,33,-1,-3,0.367750868
16.827675,-28,-5,-3,-5,-29,-4,0,-31,0.367750868
16.830445,33,2,-5,-6,-15,-12,-8,4,0.367750868
16.830462,-25,9,1,4,23,6,0,-17,0.367750868
16.849522,2,1,-1,-2,-14,-12,-1,5,0.367750868
16.849539,14,4,0,4,12,-19,-8,-28,0.367750868
16.850098,-15,-4,0,-6,3,3,2,-3,0.367750868
16.850107,9,-25,-1,-3,-20,4,1,8,0.367750868
16.864795,-9,-7,-2,1,7,-4,1,-12,0.367750868
16.867075,9,13,3,-5,-15,5,1,9,0.367750868
16.867087,11,-2,-1,2,2,2,-2,-3,0.367750868
16.867090,7,9,-1,1,-10,-6,-1,2,0.367750868
16.886921,-3,-5,-5,-1,15,5,-3,0,0.367750868
16.886939,2,-6,-1,-3,-15,-4,-1,6,0.367750868
16.887855,9,9,1,-1,4,15,4,0,0.367750868
16.887862,-6,8,-1,-4,-19,-8,-1,-4,0.367750868
16.910327,5,5,1,3,5,-5,-1,-4,0.355289865
16.910336,-4,35,2,-9,1,-32,-4,-13,0.355289865
16.910339,35,-32,-3,4,50,53,-1,6,0.355289865
16.910342,-24,8,-2,-5,-10,-1,-1,-2,0.355289865
16.925881,11,-3,-3,-1,15,-3,-3,-1,0.355289865
16.925899,5,0,-1,-6,-27,-7,3,-7,0.355289865
16.925906,-20,5,6,1,-13,-19,-1,13,0.355289865
16.925910,3,8,-1,-1,7,5,1,-5,0.355289865
16.947063,14,-1,0,0,-4,-2,1,29,0.355289865
16.947091,0,-5,0,7,-1,14,2,-6,0.355289865
16.949055,-25,-7,0,-4,-3,-5,6,62,0.355289865
16.949071,11,5,-1,-1,14,-29,-9,2,0.355289865
16.970875,-17,-40,-3,-5,-36,9,4,-23,0.355289865
16.970883,-4,11,0,4,24,14,5,16,0.355289865
16.970886,-5,0,-4,-4,-11,-11,-8,-21,0.355289865
16.970889,12,14,-3,-6,3,10,7,5,0.355289865
16.983857,9,16,0,-1,3,-7,-3,3,0.355289865
16.986033,-6,-26,3,4,5,10,4,3,0.355289865
16.992092,14,-5,-5,-1,-14,-10,0,-26,0.355289865
16.992125,-4,4,1,1,-35,4,-1,-1,0.355289865
17.006952,0,8,1,-1,22,2,-4,-12,0.355289865
17.006975,8,-14,-2,-3,-11,13,-1,8,0.355289865
17.008871,-18,6,0,0,3,-16,-3,-13,0.355289865
17.008886,3,-4,-2,-2,-1,5,1,3,0.355289865
17.029917,8,0,2,-11,3,-11,1,1,0.355289865
17.029955,-25,13,-1,17,-8,3,2,18,0.355289865
17.032891,23,-41,-6,-6,8,11,-4,-18,0.355289865
17.032905,-10,9,-3,-3,9,1,2,0,0.355289865
17.044578,8,-13,-1,-2,-12,8,4,-10,0.355289865
17.044595,1,12,0,-3,10,-25,-13,-3,0.355289865
17.046578,-5,3,1,2,3,-8,1,-7,0.355289865
17.046592,-10,-11,2,1,-16,8,0,2,0.355289865
17.067068,-5,5,0,2,21,-4,-2,-2,0.355289865
17.067093,5,-13,-1,-4,-8,8,3,0,0.355289865
17.067670,-10,11,-2,0,0,-1,-4,-8,0.355289865
17.067706,17,-8,2,-3,2,-5,-7,-28,0.355289865
17.089360,-7,11,0,3,-12,-4,5,66,0.355289865
17.089378,13,1,-4,-3,16,12,1,16,0.355289865
17.090779,-1,1,2,-1,-42,-9,-2,-7,0.355289865
17.090793,-71,3,3,4,7,8,11,-24,0.355289865
17.103708,41,14,-9,-2,15,-2,-14,-35,0.355289865
17.103733,-10,-51,-9,-8,-17,-2,-1,3,0.355289865
17.112098,-4,7,0,-2,1,-6,-1,4,0.355289865
17.112115,11,25,-1,2,-5,2,3,21,0.355289865
17.127747,-10,11,1,2,-4,-7,-2,-10,0.355289865
17.127755,8,11,2,-3,12,2,-1,-1,0.355289865
17.127758,19,-20,-6,-3,3,-7,-3,-18,0.355289865
17.127760,14,-15,-1,1,-12,-16,-6,9,0.355289865
17.149541,-21,1,1,1,22,31,5,-11,0.354843707
17.149565,16,-6,-2,-19,-39,-5,-15,-23,0.354843707
17.150211,-13,-1,0,15,40,4,-3,15,0.354843707
17.150231,14,10,1,-4,-7,2,0,9,0.354843707
17.163942,-12,6,-2,1,10,-8,-2,-3,0.354843707
17.163971,-10,-2,0,-5,21,8,5,0,0.354843707
17.172053,-11,19,0,1,-2,3,4,-4,0.354843707
17.172077,5,-13,0,-2,-2,-6,-3,6,0.354843707
17.187106,10,-3,-1,0,5,-5,-3,-10,0.354843707
17.187133,15,17,-2,2,-37,10,3,-2,0.354843707
17.188414,-11,-50,-2,-8,-19,-9,0,10,0.354843707
17.188424,-11,-5,-2,3,22,6,-3,-8,0.354843707
17.210175,-1,-23,5,1,-21,-5,1,3,0.354843707
17.210200,-3,27,-5,3,15,-5,-1,-5,0.354843707
17.217105,26,12,1,-2,-19,-16,1,64,0.354843707
17.217122,19,-5,-4,-6,17,22,2,3,0.354843707
17.224055,-21,-8,-2,0,-1,-12,-2,-38,0.354843707
17.224072,-25,-7,0,2,-6,-10,-8,-6,0.354843707
17.232131,-15,17,3,-4,20,17,1,-27,0.354843707
17.232156,4,-19,-3,1,-43,-11,7,5,0.354843707
17.247175,9,8,0,0,39,20,-3,1,0.354843707
17.247210,-50,-2,-1,4,-13,-4,6,-1,0.354843707
17.249070,16,-26,-4,-5,-17,-9,-15,-13,0.354843707
17.249082,7,18,0,-2,2,-1,-2,-3,0.354843707
17.270331,5,4,-2,0,-11,2,0,20,0.354843707
17.270341,9,-7,3,0,13,-5,-1,3,0.354843707
17.270344,-25,18,0,0,-2,6,1,-5,0.354843707
17.270347,26,1,-2,1,-14,-4,-1,-18,0.354843707
17.285429,-6,-8,-4,-3,8,-2,-2,13,0.354843707
17.285445,14,-23,-3,1,-9,-4,-2,-6,0.354843707
17.291920,-8,13,1,-1,-3,-3,3,-4,0.354843707
17.291944,-10,0,-1,1,26,3,-5,2,0.354843707
17.306990,3,8,2,-4,-31,-11,2,-12,0.354843707
17.308526,4,-1,2,2,28,6,1,41,0.354843707
17.308537,-5,-7,-5,-2,3,-4,-5,-21,0.354843707
17.308544,-12,4,0,-1,-11,-1,0,-1,0.354843707
17.332097,18,-6,-4,-2,-2,-2,3,70,0.354843707
17.332117,9,26,-1,-2,-2,2,-4,-10,0.354843707
17.332120,-2,-2,4,0,-3,-4,0,-8,0.354843707
17.332123,-30,-6,-3,-1,-3,7,0,4,0.354843707
17.343846,-5,5,-1,-2,-10,-13,-1,-13,0.354843707
17.343863,4,5,0,0,5,6,5,-13,0.354843707
17.352540,3,-6,-2,-3,-53,0,4,12,0.354843707
17.352575,11,3,1,2,40,-25,-2,-2,0.354843707
17.367081,-18,-15,-3,0,47,31,-3,-13,0.354843707
17.367098,-7,4,-1,-4,-10,-5,-9,-5,0.354843707
17.367723,10,-1,-1,-1,16,1,-1,-19,0.354843707
17.367739,-7,-1,-2,-3,-35,-4,2,14,0.354843707
17.389821,-27,-3,-1,-4,-9,-13,-4,-39,0.354843707
17.389846,31,-8,0,1,14,3,5,5,0.354843707
17.392441,-36,31,-1,1,-4,-7,-6,-5,0.354843707
17.392453,24,-21,-4,0,35,0,-2,-1,0.354843707
17.403824,1,-1,0,-1,-10,-4,2,1,0.334221081
17.403844,-3,10,1,0,-3,0,0,-4,0.334221081
17.412548,-26,-7,1,-1,1,0,1,-2,0.334221081
17.412582,20,-19,1,-1,-1,5,-2,-8,0.334221081
17.427444,9,64,-1,1,-13,-4,-3,-7,0.334221081
17.427478,-28,-18,-1,-3,1,-6,0,-7,0.334221081
17.427947,-3,6,-1,0,10,1,-3,-12,0.334221081
17.427969,-8,6,0,-2,-14,-3,-5,-3,0.334221081
17.449530,-12,-6,-3,-2,-10,3,4,2,0.334221081
17.449548,21,5,-3,1,3,-14,-7,3,0.334221081
17.451094,-9,-16,-3,-5,7,5,9,-8,0.334221081
17.451101,-4,-10,-3,-6,34,7,-4,5,0.334221081
17.472524,4,-4,2,1,-28,3,-6,-5,0.334221081
17.472560,-18,1,0,2,-2,-4,-3,-72,0.334221081
17.473257,8,-14,-4,2,-3,1,-2,12,0.334221081
17.473290,2,0,-3,-6,-32,-2,-13,-9,0.334221081
17.488311,-5,-5,2,0,0,-7,2,0,0.334221081
17.488323,-14,-32,-5,-1,15,4,-3,2,0.334221081
17.488418,-6,8,2,-3,0,1,2,-2,0.334221081
17.488421,2,17,-1,4,5,-3,2,8,0.334221081
17.509717,4,-20,-1,-7,1,-2,-4,-6,0.334221081
17.509749,9,7,1,-3,-21,2,0,15,0.334221081
17.511280,3,9,0,1,7,-2,1,4,0.334221081
17.511293,-22,-14,-3,2,-14,0,1,6,0.334221081
17.533714,17,-14,0,-2,4,-5,-2,-2,0.334221081
17.533726,4,-11,-5,-4,-17,2,3,4,0.334221081
17.533758,39,2,0,5,-23,-24,-6,18,0.334221081
17.533762,-28,19,-3,-12,-17,31,-1,-40,0.334221081
17.547267,12,-17,-2,1,54,-5,0,14,0.334221081
17.547296,0,9,1,1,24,2,-4,16,0.334221081
17.549428,-7,13,3,-1,0,0,-1,-3,0.334221081
17.549443,4,-11,-2,-1,-11,-12,-3,-1,0.334221081
17.569596,-18,2,-2,1,-19,-1,0,-4,0.334221081
17.569619,-4,3,2,0,-15,3,-2,1,0.334221081
17.570257,12,-13,-4,-4,11,3,3,18,0.334221081
17.570273,10,4,4,2,-4,-18,-1,-3,0.334221081
17.592686,13,19,-3,0,-2,23,3,5,0.334221081
17.592703,0,17,1,-1,7,-3,4,16,0.334221081
17.593911,-8,-39,-5,-3,-5,1,-2,-8,0.334221081
17.593917,6,12,2,1,7,0,4,10,0.334221081
17.607554,-5,-12,-1,-3,-56,-22,6,1,0.334221081
17.607588,-5,-6,-1,4,69,4,-18,-51,0.334221081
17.609338,18,20,-4,-4,25,11,-4,-9,0.334221081
17.609344,-24,-14,-3,-1,-22,-1,1,-8,0.334221081
17.629501,-16,20,-2,-1,-1,-1,-6,-4,0.334221081
17.629521,3,-11,-1,-1,-20,4,12,11,0.334221081
17.630256,-7,-8,-2,-6,-6,-24,-13,-4,0.334221081
17.630280,2,-3,2,2,14,-3,4,8,0.334221081
17.652683,2,17,-1,-1,-5,-4,-5,-17,0.334221081
17.652701,3,-8,-4,0,-12,-2,1,8,0.334221081
17.653843,-19,9,1,1,-5,5,2,0,0.334221081
17.653850,12,-1,-1,0,28,2,1,8,0.334221081
17.667072,2,-2,3,3,0,-1,0,7,0.331625230
17.667090,24,-10,-5,-7,18,-3,-3,-5,0.331625230
17.669294,17,-1,1,1,-5,2,-1,-3,0.331625230
17.669307,-19,6,-3,-3,-9,-5,-3,-12,0.331625230
17.690594,-8,-50,-4,-1,15,5,-1,-19,0.331625230
17.690603,-4,8,2,0,-18,9,10,10,0.331625230
17.690606,2,5,2,1,3,-17,-7,-29,0.331625230
17.690608,2,-18,0,-4,-20,-8,-5,14,0.331625230
17.712876,-14,18,-3,1,60,19,1,6,0.331625230
17.712908,1,3,0,2,-18,0,7,-2,0.331625230
17.715356,-23,-23,-6,-5,-26,2,-7,-7,0.331625230
17.715375,7,3,-2,-2,-13,-10,-1,-8,0.331625230
17.727024,1,-5,1,-3,-15,-5,-1,8,0.331625230
17.727043,-17,-7,4,3,6,1,3,-1,0.331625230
17.728177,13,47,-1,0,10,5,12,59,0.331625230
17.728182,36,-2,2,1,-4,6,0,7,0.331625230
17.750060,22,-1,0,-2,-16,-5,-6,-4,0.331625230
17.750072,-47,9,-4,-1,-9,-2,-3,7,0.331625230
17.750121,-11,3,-1,2,3,2,0,-11,0.331625230
17.750145,9,1,-3,-1,2,6,2,2,0.331625230
17.772685,-6,5,1,1,7,-7,-1,-4,0.331625230
17.772710,13,-1,0,-8,-27,-13,-6,-10,0.331625230
17.774226,-16,-27,-1,7,-5,-9,0,-2,0.331625230
17.774237,-3,0,-2,-4,7,17,1,-5,0.331625230
17.787447,4,-6,-2,6,60,19,5,0,0.331625230
17.787478,21,29,-3,-9,7,-25,-11,9,0.331625230
17.788127,16,-8,-2,5,-33,30,1,-7,0.331625230
17.788212,-10,5,5,7,18,-9,2,-26,0.331625230
17.809514,-6,13,-1,-3,-35,-8,-4,32,0.331625230
17.809532,10,-24,-1,4,7,1,-3,13,0.331625230
17.811443,-30,-39,0,-8,13,1,-2,-12,0.331625230
17.811454,-6,14,-3,-2,-5,1,1,-33,0.331625230
17.833260,1,10,1,2,0,-10,-14,-10,0.331625230
17.833278,-1,-4,-2,-5,-11,3,1,-5,0.331625230
17.834525,24,0,1,-2,7,-5,-2,0,0.331625230
17.834541,-12,-7,-3,-1,-3,6,9,92,0.331625230
17.847062,-19,-20,0,-6,-13,-10,1,-3,0.331625230
17.847082,7,-6,-2,1,-9,2,-2,6,0.331625230
17.849175,-29,0,-1,0,7,3,2,-3,0.331625230
17.849187,41,-22,-4,0,-18,-14,-5,-11,0.331625230
17.869984,-1,-3,-1,-3,12,5,0,-13,0.331625230
17.870009,3,8,-4,-2,-9,4,0,4,0.331625230
17.871915,-11,5,0,0,12,-3,1,-9,0.331625230
17.871922,-6,7,0,-6,-35,-10,-1,-5,0.331625230
17.892783,3,-3,-3,3,21,22,-5,-4,0.331625230
17.892827,0,-13,0,-3,21,-26,-10,-17,0.331625230
17.893527,-21,8,-1,-3,18,30,11,-1,0.331625230
17.893566,17,-3,-6,-1,12,-7,-8,7,0.331625230
17.906905,0,1,2,-6,-39,-2,4,-38,0.331625230
17.906945,-15,1,-3,-2,-7,2,1,8,0.331625230
17.907545,3,-39,-6,-3,-9,-13,-5,-10,0.331625230
17.907580,-25,16,5,-1,14,6,-13,-8,0.331625230
17.929654,27,-6,-2,-2,-10,-9,3,-1,0.326992349
17.929677,-29,-5,-1,-1,-9,6,2,-1,0.326992349
17.931645,17,31,0,-1,-3,-15,-3,5,0.326992349
17.931662,10,-5,0,3,8,11,4,-16,0.326992349
17.952533,-35,-5,-1,0,-6,-10,0,28,0.326992349
17.952545,9,2,0,-3,-17,-5,-1,3,0.326992349
17.953241,0,-21,-3,2,-3,3,0,5,0.326992349
17.953249,-8,3,0,0,3,2,4,59,0.326992349
17.968257,34,18,0,-2,-15,-4,-5,-1,0.326992349
17.968274,-5,-13,0,-2,-5,16,13,-8,0.326992349
17.968280,-9,11,0,2,18,-12,-4,5,0.326992349
17.968285,26,6,1,1,3,-19,-6,-26,0.326992349
17.989661,-33,-13,-3,-4,-4,-8,-1,4,0.326992349
17.989693,5,7,3,1,3,-1,0,-2,0.326992349
17.991231,33,-1,-1,-1,-7,14,2,-17,0.326992349
17.991281,20,23,-1,-4,-19,10,-2,-8,0.326992349
18.015345,-46,-26,-4,-3,32,-12,-2,-3,0.326992349
18.015359,7,-20,-6,2,-52,5,2,-3,0.326992349
18.015361,-9,19,-1,-18,11,-6,-6,-14,0.326992349
18.015364,-2,-12,-3,18,-6,2,4,22,0.326992349
18.027364,-5,7,2,-3,-6,-2,1,-3,0.326992349
18.027396,-21,6,-1,-1,-2,0,-7,-5,0.326992349
18.030361,24,-13,-1,1,0,-9,-1,-6,0.326992349
18.030377,-2,-15,-3,-10,-30,2,2,-11,0.326992349
18.049587,12,48,0,4,22,5,-1,9,0.326992349
18.049607,-7,-12,1,4,12,-6,3,12,0.326992349
18.050229,-14,9,-1,-2,-2,3,-1,17,0.326992349
18.050246,-10,4,2,-1,16,-6,-3,-9,0.326992349
18.072528,10,7,1,-1,-32,-1,-1,-4,0.326992349
18.072545,-20,4,-2,1,35,1,-7,-7,0.326992349
18.073788,20,0,-1,0,-5,1,4,9,0.326992349
18.073795,-12,3,0,-6,-2,3,1,-17,0.326992349
18.086653,-7,-21,-2,2,-12,-13,-5,-6,0.326992349
18.086686,11,0,-1,3,-26,6,0,5,0.326992349
18.094902,-33,-13,0,-2,15,16,-6,32,0.326992349
18.094934,10,13,-4,-1,19,-3,1,-11,0.326992349
18.109812,26,-8,-2,-9,-24,5,3,-5,0.326992349
18.109834,-1,7,2,-10,4,-13,2,13,0.326992349
18.117073,-2,3,-1,23,1,-6,-9,-16,0.326992349
18.117107,-7,-11,0,-6,-33,4,1,-3,0.326992349
18.132712,-15,-20,-5,-3,3,-5,4,46,0.326992349
18.132730,24,5,1,0,8,4,-4,-24,0.326992349
18.134530,-13,5,-2,-12,11,-5,-1,-6,0.326992349
18.134537,-23,-9,2,1,3,2,-2,1,0.326992349
18.146410,21,8,-1,5,-6,-6,2,-2,0.326992349
18.146438,-24,-47,-4,-3,6,0,-1,-3,0.326992349
18.154437,23,5,0,-3,-8,-8,-2,-3,0.326992349
18.154454,-46,-8,0,1,1,-3,-5,-2,0.326992349
18.170598,13,-3,-2,-5,-10,-7,3,-9,0.331422427
18.170608,29,21,-2,2,1,3,-2,6,0.331422427
18.170610,-3,13,2,1,21,9,1,-14,0.331422427
18.170613,4,-11,-1,1,2,-4,-6,-13,0.331422427
18.192690,-7,6,1,1,4,7,1,-7,0.331422427
18.192722,-20,23,0,2,12,-7,-6,7,0.331422427
18.194396,5,-18,0,3,-16,-13,0,-2,0.331422427
18.194401,-2,23,-2,-6,15,14,0,1,0.331422427
18.206738,-10,4,2,-2,-11,-3,-7,-4,0.331422427
18.206763,5,6,0,-3,-3,3,1,0,0.331422427
18.215882,2,1,0,-17,-19,-6,1,3,0.331422427
18.215897,-17,2,-1,27,28,-2,0,-8,0.331422427
18.232479,4,-5,-3,-2,3,8,8,48,0.331422427
18.232492,-1,-8,0,-1,15,-7,-4,-15,0.331422427
18.232495,11,6,-3,-2,-5,-3,-2,0,0.331422427
18.232497,5,-19,-5,-11,12,-7,1,13,0.331422427
18.252671,-22,-27,-3,2,7,8,-3,-29,0.331422427
18.252696,23,-1,-2,-1,-1,-4,1,2,0.331422427
18.253911,-11,9,3,3,-6,0,-7,-36,0.331422427
18.253921,17,-2,0,-4,-5,4,1,-6,0.331422427
18.275310,-7,19,-3,0,4,-5,0,-15,0.331422427
18.277220,-32,-22,-2,1,-43,7,-1,-8,0.331422427
18.277233,12,6,-2,-2,-7,-18,-7,-15,0.331422427
18.277235,-23,-10,1,-3,-4,0,-2,2,0.331422427
18.289556,6,13,-1,-2,6,14,6,2,0.331422427
18.289573,21,-19,0,1,-7,-35,-7,3,0.331422427
18.290875,0,-5,-2,-3,43,25,3,8,0.331422427
18.290882,-5,12,0,3,7,-6,0,3,0.331422427
18.312731,0,-15,-1,0,-27,-12,-10,-10,0.331422427
18.312755,5,21,-3,1,34,4,6,2,0.331422427
18.313384,-12,-28,-2,3,-17,18,2,6,0.331422427
18.313404,17,-13,-3,-12,-1,-4,0,2,0.331422427
18.326332,2,2,-3,3,21,-4,-8,-13,0.331422427
18.326375,5,9,1,-4,-30,1,2,2,0.331422427
18.334916,-13,-21,1,2,-2,-13,-6,5,0.331422427
18.334941,-7,-7,-2,-2,-30,1,0,1,0.331422427
18.349441,-1,4,2,2,11,-4,4,62,0.331422427
18.349460,1,-10,1,-2,4,4,-2,1,0.331422427
18.351388,28,22,0,4,-1,-1,-1,1,0.331422427
18.351403,-14,-5,-2,-14,-12,-1,-3,-19,0.331422427
18.372597,2,-1,4,10,5,-2,-7,-22,0.331422427
18.372642,4,9,0,-1,4,6,0,-10,0.331422427
18.373625,-8,11,1,6,-26,-21,8,22,0.331422427
18.373714,13,-19,-5,-14,16,22,-13,-4,0.331422427
18.395623,-11,25,-2,-7,-8,-10,-4,-6,0.331422427
18.395652,23,-4,-2,1,-8,4,0,-3,0.331422427
18.398345,-11,20,0,-6,-6,-5,-3,-21,0.331422427
18.398358,21,9,-1,6,-8,-6,5,18,0.331422427
18.409529,5,6,1,-1,-5,3,2,-5,0.331422427
18.409546,-12,-10,0,1,16,6,-2,-5,0.331422427
18.411706,3,20,-2,-4,-12,-21,1,3,0.331422427
18.411714,0,-18,-3,2,3,17,2,9,0.331422427
18.432691,9,-20,0,1,6,3,-4,-9,0.332652754
18.432706,4,17,-2,-3,22,-7,-1,3,0.332652754
18.433264,-23,-25,-3,-10,-74,10,1,7,0.332652754
18.433351,2,5,0,-10,26,-18,-1,-5,0.332652754
18.455621,14,-7,-5,21,40,8,-6,-13,0.332652754
18.455653,-12,2,2,2,2,-9,-5,5,0.332652754
18.457796,-5,-14,-3,-1,11,5,0,6,0.332652754
18.457805,28,18,0,-1,-6,-6,-1,-7,0.332652754
18.469848,-17,-58,-3,-14,-64,-11,0,-7,0.332652754
18.469875,-17,2,-4,1,17,10,8,-1,0.332652754
18.471740,2,-1,-1,1,57,11,4,80,0.332652754
18.471746,11,21,0,1,-24,-12,1,51,0.332652754
18.494772,-8,10,3,-2,7,2,1,-14,0.332652754
18.494782,3,-2,-3,-3,7,-5,-3,0,0.332652754
18.494785,9,6,-1,-2,4,3,0,-28,0.332652754
18.494835,-13,-20,1,6,13,-2,-4,-14,0.332652754
18.515220,-4,10,0,-7,-13,-6,1,-14,0.332652754
18.515244,3,35,1,-1,-14,-8,-3,2,0.332652754
18.516563,-1,-17,0,-17,-20,25,0,-25,0.332652754
18.516569,-36,0,1,31,31,-7,-1,-9,0.332652754
18.530111,6,-3,-1,-6,-3,10,4,-15,0.332652754
18.530166,-16,-6,0,-2,-31,-23,-8,-2,0.332652754
18.530265,16,14,0,0,8,-10,-3,-10,0.332652754
18.530354,8,-2,0,-5,-16,-2,-2,-2,0.332652754
18.552800,-9,-14,1,-3,22,2,2,10,0.332652754
18.552825,6,-20,0,1,-15,10,5,2,0.332652754
18.555094,2,27,-2,2,-5,-11,-7,-8,0.332652754
18.555104,17,-4,-4,-8,13,7,3,-5,0.332652754
18.575536,-10,5,0,2,-4,-7,-3,9,0.332652754
18.575562,-2,-4,3,-4,-7,-2,2,7,0.332652754
18.577365,-16,0,-5,7,59,9,-1,-19,0.332652754
18.577373,4,9,-1,-5,-16,-7,-2,-13,0.332652754
18.589388,15,1,-1,-5,2,1,-1,2,0.332652754
18.589406,16,17,0,-1,-7,-1,8,66,0.332652754
18.590013,8,-64,-1,2,9,-6,1,-12,0.332652754
18.590028,-35,28,0,0,-21,-9,-2,-7,0.332652754
18.612891,7,8,2,-5,-8,9,1,44,0.332652754
18.612908,1,-8,-6,4,14,10,-1,-29,0.332652754
18.615239,-13,9,1,4,-16,2,-1,-1,0.332652754
18.615256,-3,-9,0,-3,27,-13,-6,-1,0.332652754
18.635234,9,1,-2,-3,-2,-7,-3,-17,0.332652754
18.635249,-9,-1,-3,0,20,8,-2,-10,0.332652754
18.635822,-7,4,4,-5,-47,-4,-3,4,0.332652754
18.635832,-35,-7,-3,7,0,5,-3,-12,0.332652754
18.649937,-4,0,-3,-5,16,-2,0,5,0.332652754
18.649949,20,2,-3,-2,45,12,-5,-12,0.332652754
18.650126,0,-19,-6,-3,-35,-1,-3,1,0.332652754
18.650134,7,-4,4,-7,-26,1,5,-5,0.332652754
18.672537,-6,12,-1,3,1,0,-1,-8,0.332652754
18.672555,-12,-3,1,1,-12,-4,-4,-3,0.332652754
18.673402,-12,1,4,2,3,-5,-2,-9,0.332652754
18.673407,41,10,-1,-2,-1,1,-1,2,0.332652754
18.697136,-19,-49,-5,-2,-3,5,-1,-6,0.341963581
18.697153,-5,4,0,-3,-17,-4,-2,-8,0.341963581
18.697156,10,14,0,0,7,-7,-1,5,0.341963581
18.697159,10,-6,0,-1,2,5,3,-2,0.341963581
18.709958,-3,18,-1,0,-10,-5,-1,-7,0.341963581
18.709991,-44,-4,3,-1,-23,-25,-19,-8,0.341963581
18.712127,74,3,-6,2,26,29,22,99,0.341963581
18.712142,-41,-9,-1,2,31,-4,-3,-13,0.341963581
18.732750,40,1,0,-5,-12,6,-2,-10,0.341963581
18.732768,-13,-16,-3,-5,-15,1,-1,-11,0.341963581
18.733324,-2,-20,0,-2,-5,-10,-6,-24,0.341963581
18.733334,-31,3,0,0,3,-11,-3,0,0.341963581
18.755193,-8,21,-1,2,-43,-2,-1,3,0.341963581
18.755219,1,-15,-2,-3,22,8,3,-9,0.341963581
18.757650,-30,10,0,-8,32,-13,-4,-18,0.341963581
18.757660,27,-4,-3,5,10,-7,-7,-2,0.341963581
18.769534,14,-6,1,-2,11,-7,-5,-13,0.341963581
18.769559,4,42,-1,0,0,6,2,-20,0.341963581
18.771589,-25,-12,-2,-4,-29,-19,-5,-12,0.341963581
18.771597,-4,-6,-1,-5,-14,9,1,-25,0.341963581
18.792668,-4,9,0,4,16,1,-1,14,0.341963581
18.792693,12,2,1,-6,-21,-7,0,0,0.341963581
18.793425,-26,7,4,4,10,-3,0,-9,0.341963581
18.793445,4,3,-2,-4,-11,9,1,-8,0.341963581
18.815413,9,-14,-4,0,-7,-7,-2,2,0.341963581
18.815434,-1,-4,2,2,-35,-4,10,50,0.341963581
18.816807,0,-25,-10,-4,47,24,-18,-31,0.341963581
18.816815,-50,-3,-3,-3,-5,-5,4,8,0.341963581
18.830141,1,8,-2,-6,-30,-2,2,4,0.341963581
18.830175,12,-5,-2,-19,11,-10,-7,-7,0.341963581
18.832683,13,16,3,20,8,8,11,6,0.341963581
18.832698,7,-5,-3,-4,-29,0,-2,9,0.341963581
18.852653,-33,-2,0,1,37,2,1,-9,0.341963581
18.852703,3,-9,0,-4,-15,-9,-5,-60,0.341963581
18.853638,1,8,0,-4,-16,-7,-4,4,0.341963581
18.853691,19,-11,-5,-2,-3,3,-1,-4,0.341963581
18.875899,-6,21,3,-2,-9,-9,-2,-3,0.341963581
18.875923,-7,-49,-5,5,10,13,-1,-8,0.341963581
18.877672,-4,11,0,-4,-10,-4,-2,-3,0.341963581
18.877685,4,-7,-1,-1,1,-3,-1,9,0.341963581
18.889349,2,-3,-2,0,5,-3,-2,-16,0.341963581
18.890558,5,17,-1,3,10,1,-1,13,0.341963581
18.890569,-22,2,-1,0,0,0,1,-11,0.341963581
18.890574,29,-8,-5,-5,-8,-8,0,6,0.341963581
18.913621,-5,-15,-1,0,32,5,2,-9,0.341963581
18.913644,-20,-25,-2,3,-11,-1,5,14,0.341963581
18.913650,4,-3,-4,-8,-72,-2,2,26,0.341963581
18.913656,-5,15,8,6,-16,3,4,-3,0.341963581
18.935373,18,-2,-6,-4,48,5,-14,-4,0.341963581
18.935407,38,25,-2,-1,-11,0,4,13,0.341963581
18.936133,-33,-2,0,-3,8,-10,-6,-12,0.337623635
18.936156,-2,-11,0,1,-36,-12,1,5,0.337623635
18.949637,-7,-1,-1,2,-24,11,2,2,0.337623635
18.949667,-17,-3,-4,1,21,-4,-3,28,0.337623635
18.950221,2,1,1,1,-11,6,3,-7,0.337623635
18.950266,59,23,-3,-8,8,3,-3,3,0.337623635
18.973088,-30,-51,-1,3,-8,-8,0,2,0.337623635
18.973114,-21,-5,-3,0,5,0,-5,-10,0.337623635
18.975842,3,4,0,1,4,-1,2,-7,0.337623635
18.975854,-2,3,0,-1,11,1,-2,10,0.337623635
18.995728,-1,11,0,-4,0,1,0,-3,0.337623635
18.995755,11,10,2,-1,-10,-16,-9,-17,0.337623635
18.998300,-2,-12,1,1,17,-1,7,64,0.337623635
18.998317,-18,2,0,-4,-4,-6,-7,-12,0.337623635
19.008966,24,3,-2,0,-2,-23,2,4,0.337623635
19.009045,-15,0,0,-2,2,36,3,-17,0.337623635
19.017111,-14,20,-3,-5,3,-13,-7,-25,0.337623635
19.017129,39,-1,-3,-2,38,11,4,0,0.337623635
19.033037,-36,-1,0,1,-32,-24,-6,10,0.337623635
19.034965,9,6,-1,-9,3,-5,6,6,0.337623635
19.035008,3,13,5,12,-2,-3,-10,-5,0.337623635
19.035011,-19,-1,-2,-4,-1,3,1,-2,0.337623635
19.055362,7,12,-1,-2,13,4,-6,-47,0.337623635
19.055383,11,-4,-3,-3,2,8,6,51,0.337623635
19.055909,-3,19,1,-1,-4,-8,-4,-17,0.337623635
19.055925,-19,-38,-4,-2,1,-5,-4,-11,0.337623635
19.068754,-1,-1,1,-7,-9,8,-2,-5,0.337623635
19.068797,-3,4,1,3,-14,-8,-5,-11,0.337623635
19.077328,18,-4,-2,-3,4,0,3,-10,0.337623635
19.077360,-16,21,1,2,2,-3,2,7,0.337623635
19.092883,6,-16,-2,0,-21,4,3,14,0.337623635
19.092909,8,-3,-1,-2,6,-3,-2,-5,0.337623635
19.093965,-9,-19,0,4,55,10,-3,-7,0.337623635
19.093970,7,34,-1,-5,-23,-8,-6,-11,0.337623635
19.115360,-4,0,-1,-16,-31,12,8,10,0.337623635
19.115378,-5,8,-1,21,50,2,2,-13,0.337623635
19.115973,6,-10,-2,-9,-35,15,2,-6,0.337623635
19.115982,23,-5,0,4,-18,-34,-1,11,0.337623635
19.131056,-16,4,-3,-4,33,18,-15,-56,0.337623635
19.131075,-1,-4,-1,-3,0,-3,0,32,0.337623635
19.136988,12,-4,-2,-4,-12,-4,1,-6,0.337623635
19.137006,-12,-15,-4,-4,18,6,0,-5,0.337623635
19.152665,-13,7,1,7,0,2,7,8,0.337623635
19.152683,15,-7,2,-4,-8,-15,-7,-24,0.337623635
19.154915,-18,2,-2,2,0,-6,-6,0,0.337623635
19.154929,-19,-34,-3,-4,-11,3,-7,-27,0.337623635
19.177713,9,20,1,1,-18,-7,5,14,0.337623635
19.177725,-1,-11,-3,-15,16,11,0,-5,0.337623635
19.177728,-14,-14,-1,19,-21,-1,6,13,0.337623635
19.177730,-19,2,0,0,12,10,-2,-1,0.337623635
19.188738,4,8,-1,1,-11,-10,1,16,0.337623635
19.188762,-24,5,0,-6,-18,-18,-6,-6,0.337623635
19.197224,12,-9,-5,-13,1,33,0,-25,0.345830319
19.197246,5,3,2,3,-3,-7,-3,12,0.345830319
19.213002,-2,-4,-4,1,3,0,-5,9,0.345830319
19.213035,1,-29,-2,-1,-10,1,7,-1,0.345830319
19.213760,-3,7,0,-2,12,-18,-13,-3,0.345830319
19.215599,-4,4,-1,3,8,15,3,-5,0.345830319
19.235621,4,1,3,-2,4,-13,-2,16,0.345830319
19.235647,-19,8,1,4,-17,-3,1,-3,0.345830319
19.237803,16,2,0,-2,14,-1,0,-2,0.345830319
19.237814,11,-25,-1,-4,-26,-2,0,2,0.345830319
19.248951,-13,22,-2,-1,0,11,-2,-2,0.345830319
19.248969,15,2,-4,2,-12,4,-1,18,0.345830319
19.257255,-5,-13,-3,-9,-12,-13,-3,2,0.345830319
19.257288,-14,7,-1,6,33,2,-3,-24,0.345830319
19.272538,2,-28,0,-4,1,-12,-3,6,0.345830319
19.272555,-15,13,2,5,-13,10,1,-19,0.345830319
19.273215,15,6,-4,-5,55,4,4,4,0.345830319
19.273222,9,-10,-3,-2,4,-34,-6,22,0.345830319
19.295254,-4,-2,2,4,-6,22,5,-11,0.345830319
19.295272,-11,3,0,-2,-6,11,2,-9,0.345830319
19.297664,7,-2,-1,-1,-8,-11,1,5,0.345830319
19.297677,3,14,2,-3,-31,8,5,3,0.345830319
19.308887,19,-3,-1,3,30,-8,-6,3,0.345830319
19.308905,13,0,1,-3,-18,-6,-2,9,0.345830319
19.317936,-15,0,0,-2,-14,-6,0,1,0.345830319
19.317955,-32,11,-1,-1,16,8,1,-2,0.345830319
19.332807,18,-8,0,1,-17,0,2,8,0.345830319
19.332817,-14,9,1,1,1,-2,-4,-2,0.345830319
19.333290,-5,-10,-3,-3,14,-1,-3,-16,0.345830319
19.333299,25,-5,1,-2,-1,8,0,44,0.345830319
19.355706,13,13,-2,-2,-4,-5,-1,-7,0.345830319
19.355730,-7,-7,-3,-3,-10,-1,-1,0,0.345830319
19.357601,15,9,4,5,11,-8,-4,-1,0.345830319
19.357611,-15,1,0,1,0,4,7,5,0.345830319
19.378110,4,-7,-1,2,3,-1,-4,2,0.345830319
19.378143,-6,6,-3,-6,1,1,-1,-8,0.345830319
19.380987,-4,-7,2,-3,-40,-3,1,5,0.345830319
19.381006,-2,16,1,5,-18,2,-5,-70,0.345830319
19.392944,0,9,-1,-10,-18,-34,-9,-8,0.345830319
19.392961,-5,-12,-4,1,43,29,8,-14,0.345830319
19.394794,-7,8,-1,1,9,-5,0,-2,0.345830319
19.394806,-14,5,0,1,19,2,-8,-12,0.345830319
19.415411,9,-12,-1,1,-6,1,7,4,0.345830319
19.415433,18,25,2,-1,-34,-15,0,0,0.345830319
19.416750,-30,-24,-3,3,31,6,-5,-13,0.345830319
19.416785,-8,-5,-3,-7,-13,-2,-5,14,0.345830319
19.437649,-11,1,-1,0,-3,1,-2,-2,0.345830319
19.437666,3,3,0,3,12,-5,-4,14,0.345830319
19.439229,15,13,-3,-4,-15,0,2,1,0.345830319
19.439249,12,7,0,-3,2,-2,0,8,0.345830319
19.451305,-24,-27,1,0,0,2,3,5,0.347952971
19.451329,-6,39,1,-1,29,-7,-9,-8,0.347952971
19.461652,5,-8,1,1,-28,-8,2,1,0.347952971
19.461666,35,-2,0,-5,-1,2,-1,17,0.347952971
19.475041,-15,4,0,5,-15,-6,4,-10,0.347952971
19.475081,5,-8,2,3,40,19,8,4,0.347952971
19.476494,-5,1,-2,-4,-13,2,-12,0,0.347952971
19.476502,-11,-12,-4,-1,-1,-2,0,-4,0.347952971
19.497649,20,5,-3,-6,8,3,1,3,0.347952971
19.497669,2,-11,0,3,-48,-22,-9,-35,0.347952971
19.499170,11,2,3,-8,-6,16,2,49,0.347952971
19.499230,21,6,-3,0,6,10,10,-3,0.347952971
19.511623,16,18,-4,0,3,0,-3,54,0.347952971
19.511651,4,-31,-5,-9,-21,-8,-4,-15,0.347952971
19.520982,-12,12,1,4,4,-8,0,-21,0.347952971
19.520991,-46,-3,-1,0,-2,-6,-2,5,0.347952971
19.536924,1,-15,0,-1,15,6,-2,-14,0.347952971
19.536934,20,11,-1,1,4,-3,-4,7,0.347952971
19.536965,-9,-6,-2,-1,-2,-2,1,-2,0.347952971
19.536968,6,5,6,7,-6,-1,-2,-13,0.347952971
19.557873,-9,16,-3,-4,7,-4,-8,-12,0.347952971
19.557900,-17,-18,-3,2,6,10,6,9,0.347952971
19.561966,9,3,0,-5,-20,-8,0,-12,0.347952971
19.561982,9,-27,-3,-2,16,-4,-1,-7,0.347952971
19.571548,-16,-1,0,2,-12,2,-1,-14,0.347952971
19.571575,-4,-1,4,-2,-41,-28,-4,12,0.347952971
19.581017,29,9,-6,0,29,20,-1,-1,0.347952971
19.581033,-30,5,1,0,2,-7,2,5,0.347952971
19.595182,27,-16,-4,-5,-4,4,0,-4,0.347952971
19.595204,-3,-7,-3,1,-1,9,0,2,0.347952971
19.596744,8,-14,0,-3,-11,-13,2,-4,0.347952971
19.596763,-32,-1,-3,-2,2,-1,-4,-1,0.347952971
19.617848,-8,-6,-3,-2,1,0,-1,-6,0.347952971
19.617872,-8,-6,2,-13,-12,-2,-1,-8,0.347952971
19.619350,8,14,4,15,34,-8,-6,9,0.347952971
19.619368,4,-23,-5,-5,0,1,-2,12,0.347952971
19.631975,11,-4,-3,1,7,-2,-4,-24,0.347952971
19.631996,4,0,-2,-9,-8,-3,0,-1,0.347952971
19.638934,-17,-5,-2,-3,16,-5,-3,-11,0.347952971
19.640189,5,3,-2,2,45,19,4,24,0.347952971
19.655278,-26,2,1,-3,-4,-4,7,44,0.347952971
19.657073,8,-9,-1,3,12,0,-3,0,0.347952971
19.657079,24,-1,-6,-4,-26,4,5,-3,0.347952971
19.657082,-30,9,0,-2,-12,-17,-6,-28,0.347952971
19.678323,29,1,-4,-5,-11,-1,-2,-14,0.347952971
19.678331,-28,-28,-3,3,24,12,7,6,0.347952971
19.679077,6,3,2,4,-34,-4,-4,-6,0.347952971
19.679093,28,17,0,-1,-5,-2,-1,-2,0.347952971
19.694344,-26,2,5,3,7,2,-1,0,0.347952971
19.694352,2,-4,0,3,8,-18,-2,3,0.347952971
19.699104,-5,31,0,-5,-33,12,7,-9,0.347952971
19.699123,14,-3,-2,-7,14,12,-6,1,0.347952971
19.715242,-16,1,0,9,24,11,1,-1,0.356006432
19.715274,4,-1,-3,-3,3,-2,-5,-8,0.356006432
19.717553,-2,1,-1,2,-28,-14,-2,7,0.356006432
19.717570,-4,-5,2,-6,3,-19,-3,-8,0.356006432
19.737678,27,-4,-3,-4,-10,9,1,-3,0.356006432
19.737702,-21,10,-2,2,4,2,-3,2,0.356006432
19.740230,5,-15,-1,-2,7,0,3,-21,0.356006432
19.740248,15,-15,-2,-1,-27,0,3,22,0.356006432
19.752363,-12,37,-1,-6,7,-8,0,-11,0.356006432
19.752401,9,-7,0,8,11,6,-13,-10,0.356006432
19.758989,-23,-5,0,-6,1,-16,-4,1,0.356006432
19.759014,-7,-1,-4,1,4,5,4,-11,0.356006432
19.782781,8,-7,-1,-1,-33,1,6,0,0.356006432
19.782801,7,19,-2,-1,24,4,-2,9,0.356006432
19.784793,3,-1,-1,-3,-25,-3,1,5,0.356006432
19.784805,0,-2,1,1,1,-12,-6,-3,0.356006432
19.797750,12,-12,-2,-6,-62,20,-1,-1,0.356006432
19.797778,-12,-1,0,2,19,-1,8,69,0.356006432
19.799696,-12,-2,-2,-1,22,-2,-7,1,0.356006432
19.799707,22,-1,1,1,3,-3,2,-5,0.356006432
19.811977,-17,-5,2,-1,-3,-9,-5,-5,0.356006432
19.811995,18,-8,-1,-2,-10,0,-3,-26,0.356006432
19.818973,-4,1,-1,-1,16,-1,4,16,0.356006432
19.818993,2,13,2,-3,-37,0,-2,0,0.356006432
19.835297,-47,-22,-1,6,13,-18,-5,-7,0.356006432
19.835314,26,16,-6,-5,22,10,-7,-19,0.356006432
19.836559,-12,-29,-3,3,17,3,2,5,0.356006432
19.836568,15,12,-6,-2,-18,-1,0,-6,0.356006432
19.857810,-14,-19,3,1,15,-2,1,0,0.356006432
19.857843,-6,34,3,-3,-3,-9,-1,-7,0.356006432
19.859607,1,-15,-1,-5,-51,2,0,3,0.356006432
19.859614,-18,10,-4,0,16,6,2,0,0.356006432
19.871333,-18,8,1,3,-8,-3,-4,-7,0.356006432
19.871351,-8,3,0,-5,-9,-9,4,-1,0.356006432
19.882599,19,-8,1,1,12,0,5,50,0.356006432
19.882613,-43,-12,1,1,-8,-3,0,-17,0.356006432
19.895386,52,0,-1,-4,22,-14,-4,0,0.356006432
19.895424,-32,16,-4,1,-30,13,-4,-15,0.356006432
19.897983,-7,-10,-4,-3,26,4,2,-9,0.356006432
19.898001,-20,2,3,3,-13,-3,5,1,0.356006432
19.917962,31,-8,-5,-5,16,2,-3,3,0.356006432
19.917980,1,-13,0,-1,-14,-6,1,0,0.356006432
19.919181,10,15,0,-3,-25,-14,-7,-22,0.356006432
19.919203,8,-8,-2,5,45,23,-2,10,0.356006432
19.931491,-37,5,3,-2,-16,-7,-1,-11,0.356006432
19.931511,25,-9,-1,-3,-17,-17,1,6,0.356006432
19.942352,-34,-1,-2,1,0,29,7,79,0.356006432
19.942369,-8,-41,-2,-9,-8,-14,-6,-7,0.356006432
19.955192,1,8,-1,0,21,4,3,2,0.356006432
19.955216,-6,-17,-1,-1,-34,-4,0,-5,0.356006432
19.957087,-8,0,-3,-2,30,6,5,-37,0.356006432
19.957093,20,9,3,5,8,12,2,2,0.356006432
19.978235,24,13,-3,-22,-31,-6,-7,8,0.349521304
19.978258,-19,-14,0,21,78,6,1,-4,0.349521304
19.979093,-11,3,-1,-3,17,-13,-4,5,0.349521304
19.979108,9,-4,0,3,-22,3,-2,-2,0.349521304
19.991241,-9,48,2,-1,-22,-6,-2,-10,0.349521304
19.991254,3,-29,-2,-2,10,-4,-2,3,0.349521304
20.000941,29,15,0,-4,7,20,-2,-15,0.349521304
20.000949,5,3,-3,-1,-8,-8,-2,6,0.349521304
20.015262,12,-1,-1,3,5,5,1,1,0.349521304
20.015283,2,-6,-1,-7,-20,-5,-3,-5,0.349521304
