timestamp,emg1,emg2,emg3,emg4,emg5,emg6,emg7,emg8,label
10.029575,21,16,2,34,51,-38,-4,-12,1.049131107
10.029673,-6,-8,0,-10,-32,-10,-4,-22,1.049131107
10.031187,43,2,-2,-1,-4,14,-5,-1,1.049131107
10.031206,-29,5,5,11,8,-8,12,27,1.049131107
10.036777,-3,16,-8,-16,-8,-9,-21,-16,1.049131107
10.036796,-24,-27,-10,-10,-10,-14,-6,20,1.049131107
10.043314,-6,29,0,2,-35,2,0,-23,1.049131107
10.043333,-19,8,3,5,58,1,-7,-35,1.049131107
10.059630,-13,11,1,-12,-43,55,32,31,1.049131107
10.059649,-3,-25,-5,-11,-33,-36,-14,-3,1.049131107
10.061298,-18,0,-1,3,37,-48,-6,18,1.049131107
10.061316,-8,59,-3,-12,-38,56,0,1,1.049131107
10.082184,3,-26,2,9,8,-24,-5,-5,1.049131107
10.082933,1,14,2,6,-16,-2,11,-24,1.049131107
10.083569,-25,-6,1,-16,5,29,13,16,1.049131107
10.083594,8,2,2,9,-34,-43,-8,-16,1.049131107
10.096536,46,0,1,11,-2,12,6,21,1.049131107
10.096553,-25,-7,-8,-19,9,-19,-23,-12,1.049131107
10.103736,-8,-18,-3,1,20,18,-4,-45,1.049131107
10.103796,26,-16,-2,-12,-66,7,5,17,1.049131107
10.121552,-5,7,2,6,16,17,-1,-15,1.049131107
10.121562,-1,-8,0,20,5,-26,12,-2,1.049131107
10.121566,-29,-24,-3,-7,35,21,-23,-30,1.049131107
10.121568,36,-21,-13,-14,-29,-23,-8,21,1.049131107
10.142567,-38,-8,-4,6,18,-9,-22,0,1.049131107
10.142767,65,12,-3,-13,-11,27,2,-17,1.049131107
10.144841,-8,-1,-3,7,1,10,3,5,1.049131107
10.144855,0,-1,3,1,8,-32,-1,-6,1.049131107
10.156888,41,18,-3,-8,4,7,0,41,1.049131107
10.156913,-40,-2,4,13,-10,23,-2,-22,1.049131107
10.163573,-1,7,3,1,-9,-28,-3,30,1.049131107
10.163594,-23,2,-1,2,7,0,-8,12,1.049131107
10.179773,20,-13,-2,-5,11,2,1,-20,1.031140397
10.179805,-7,13,0,-1,-48,-13,1,8,1.031140397
10.181584,39,3,-4,-33,-33,48,8,32,1.031140397
10.181604,-47,-19,3,41,86,-16,-1,4,1.031140397
10.202516,52,-8,1,-18,-71,-23,5,47,1.031140397
10.202540,-16,8,0,-3,-38,-35,-2,7,1.031140397
10.203535,-3,-14,-3,-4,-31,20,-5,-7,1.031140397
10.203547,45,6,2,-2,39,39,31,33,1.031140397
10.216554,-50,-6,2,3,-4,-9,-9,-25,1.031140397
10.216600,55,15,-6,-9,8,6,-18,-10,1.031140397
10.223620,-38,-2,0,8,-23,-6,4,0,1.031140397
10.223649,-1,-17,-2,-2,26,-23,-5,-26,1.031140397
10.240240,15,30,4,7,-41,0,1,1,1.031140397
10.240277,-1,-8,1,-5,39,28,10,13,1.031140397
10.243139,24,-13,1,5,29,-29,-10,23,1.031140397
10.243151,-11,17,-3,-8,-36,-7,-1,19,1.031140397
10.262223,-8,-17,-4,-4,22,7,4,-74,1.031140397
10.262268,-16,-3,0,-8,-33,-1,0,27,1.031140397
10.263684,17,6,7,28,73,20,8,5,1.031140397
10.263691,-18,-34,-8,-29,-111,-75,-5,-22,1.031140397
10.276798,2,26,-4,-3,70,7,10,21,1.031140397
10.276816,1,-11,-3,-5,-25,47,-7,-5,1.031140397
10.285927,-2,28,5,8,47,-32,23,69,1.031140397
10.285941,12,1,4,-2,-55,16,-6,-17,1.031140397
10.308106,-19,-3,-2,-2,0,-4,1,11,1.031140397
10.308122,-26,-32,-1,8,24,-27,-11,-34,1.031140397
10.308862,15,-10,-4,-11,-35,-7,2,-10,1.031140397
10.308883,17,-4,-1,-9,16,9,-8,-18,1.031140397
10.323489,-42,28,1,26,-10,-27,-20,24,1.031140397
10.323500,12,-37,0,-1,44,17,11,19,1.031140397
10.323834,6,-5,-3,-1,3,2,-5,-26,1.031140397
10.323844,-11,8,0,4,4,-32,1,20,1.031140397
10.336455,-16,-9,1,-14,2,88,12,-29,1.031140397
10.336488,-21,8,-5,-7,-45,-73,-9,2,1.031140397
10.345250,21,-3,-5,-1,22,-36,-14,42,1.031140397
10.345264,-28,-22,-3,-5,38,56,7,-56,1.031140397
10.359770,28,2,-3,-3,3,-44,3,12,1.031140397
10.359794,-17,-7,-2,1,6,39,8,-30,1.031140397
10.361349,-8,-28,3,-5,-14,1,-6,16,1.031140397
10.361356,12,24,-1,1,-9,-5,-8,-40,1.031140397
10.382626,5,-19,0,-7,-21,-36,-10,-1,1.031140397
10.382651,5,11,1,-3,7,16,1,-20,1.031140397
10.384640,-18,15,-3,0,-4,-14,5,-32,1.031140397
10.384649,-6,-4,1,13,4,8,-1,-2,1.031140397
10.396205,18,-28,-1,-24,-15,16,-15,-5,1.031140397
10.396237,2,5,5,35,57,-3,33,31,1.031140397
10.406391,-5,8,-3,-22,-17,25,-48,-27,1.031140397
10.406400,-16,-3,-6,-9,0,-29,-11,-6,1.031140397
10.420037,-44,-29,-5,3,12,-34,-10,10,1.031140397
10.420060,41,23,4,-4,-5,56,27,-9,1.031140397
10.421549,-7,-2,0,8,5,-10,11,-9,1.031140397
10.421566,-25,14,0,-3,17,44,3,1,1.031140397
10.442227,7,8,0,1,-6,-52,12,1,1.030374259
10.442252,-6,3,3,-2,10,-17,-33,-14,1.030374259
10.444289,14,-8,-1,35,5,19,10,-1,1.030374259
10.444305,21,6,4,-7,40,-2,-1,57,1.030374259
10.456337,2,1,-2,-2,-10,17,2,-11,1.030374259
10.456381,-7,17,-2,-3,-7,-10,0,21,1.030374259
10.464715,-9,-2,-1,-14,-9,-18,-2,-22,1.030374259
10.464738,10,-18,0,11,-4,-8,9,26,1.030374259
10.479746,0,7,-4,4,-28,21,-2,-12,1.030374259
10.479757,6,24,-4,-18,-13,-4,-6,15,1.030374259
10.481203,2,-17,-4,-8,-24,0,13,-35,1.030374259
10.481214,-21,-23,1,0,-32,-19,-5,-11,1.030374259
10.502472,-9,-4,5,9,127,64,13,9,1.030374259
10.502494,28,-1,-1,-7,-32,-18,-30,-8,1.030374259
10.504354,-6,9,-1,4,-40,-12,3,-9,1.030374259
10.504360,5,8,-2,-8,-40,31,6,49,1.030374259
10.516199,34,5,1,-2,-27,-29,-8,10,1.030374259
10.516287,-7,-12,-7,1,-2,17,4,-32,1.030374259
10.525716,-38,-15,3,-5,41,6,-7,11,1.030374259
10.525730,8,-13,-2,1,6,-1,0,-63,1.030374259
10.541941,62,2,-5,-12,-1,2,1,34,1.030374259
10.541952,-4,6,0,3,-21,-11,1,-35,1.030374259
10.541956,-32,9,5,-1,-13,-6,-4,-17,1.030374259
10.541958,-2,11,2,12,28,-15,6,-6,1.030374259
10.562083,-27,-15,1,3,-9,2,5,-14,1.030374259
10.562101,33,-29,-6,-24,-11,24,-12,3,1.030374259
10.564132,9,35,-7,-5,33,29,1,-20,1.030374259
10.564142,-6,-5,0,-19,-71,-98,-9,9,1.030374259
10.575981,-4,28,0,18,51,47,3,-3,1.030374259
10.576008,-22,-11,4,9,26,32,1,-6,1.030374259
10.586915,16,-7,-1,3,37,-8,12,35,1.030374259
10.586925,49,15,0,-16,-51,-12,-6,38,1.030374259
10.599695,-32,5,-4,-6,-27,-61,-15,-2,1.030374259
10.599727,-26,-5,1,5,12,-23,11,-11,1.030374259
10.602417,43,-15,-2,-4,-42,-13,-2,39,1.030374259
10.602427,-41,22,-1,-5,72,39,12,-7,1.030374259
10.623063,-32,-8,4,29,-20,-57,-18,-34,1.030374259
10.623088,17,-5,-10,-15,32,23,-4,21,1.030374259
10.625648,22,0,0,-4,-41,-12,6,-4,1.030374259
10.625662,64,-9,-4,10,52,1,-14,-22,1.030374259
10.635761,-61,9,4,-23,-35,-12,20,57,1.030374259
10.635815,-47,-4,-3,27,46,-30,-9,4,1.030374259
10.645501,-3,1,4,6,6,5,2,-4,1.030374259
10.645514,-15,6,-9,-4,25,35,1,-21,1.030374259
10.659758,28,-10,2,-8,-16,-20,-9,-15,1.030374259
10.659796,-4,-12,4,5,-25,-20,-6,3,1.030374259
10.661603,-13,18,-2,-3,21,10,8,7,1.030374259
10.661612,-6,5,1,7,4,-7,2,29,1.030374259
10.682151,18,-6,-8,-8,-49,72,14,28,1.030987170
10.682188,11,2,1,8,42,-37,-25,29,1.030987170
10.683596,-12,-7,-10,-2,-26,-19,-6,-19,1.030987170
10.683603,34,9,4,-23,-29,-5,-27,25,1.030987170
10.704612,-28,-12,-5,-1,3,16,-5,-51,1.030987170
10.704626,-14,-8,3,1,10,10,23,16,1.030987170
10.707703,-20,7,-1,5,11,-45,-24,16,1.030987170
10.707724,-25,-12,-2,-2,-28,13,30,-32,1.030987170
10.720300,22,10,1,-1,28,0,-10,54,1.030987170
10.720324,-10,-3,1,-7,-42,2,3,-3,1.030987170
10.722712,-15,-31,3,7,2,-10,5,52,1.030987170
10.722718,-20,28,-4,6,46,35,0,-52,1.030987170
10.744506,10,-7,0,-1,-8,-11,-5,5,1.030987170
10.744518,13,15,0,-2,-28,-15,-5,-32,1.030987170
10.744522,7,-5,-3,-3,3,25,3,10,1.030987170
10.744524,-25,-24,-7,-8,-1,-8,0,-6,1.030987170
10.764709,-1,-5,-1,3,9,40,8,-12,1.030987170
10.764725,-2,15,5,3,19,-39,-12,0,1.030987170
10.766802,20,1,-5,-32,-68,-21,2,-23,1.030987170
10.766811,-26,-2,-1,27,17,-25,-5,3,1.030987170
10.779732,67,-10,-11,-16,-1,-4,-2,-26,1.030987170
10.779796,16,-5,-3,-7,-34,29,0,64,1.030987170
10.781256,4,14,2,9,26,5,12,-58,1.030987170
10.781278,0,-29,3,0,-14,-12,-3,12,1.030987170
10.802126,-42,2,4,3,-21,-35,-16,-20,1.030987170
10.802143,-5,14,-5,-1,46,39,2,36,1.030987170
10.803555,8,-36,-7,-3,10,3,2,-51,1.030987170
10.803564,33,51,2,0,-29,-11,-5,46,1.030987170
10.824740,-26,-12,-2,6,0,10,-6,-41,1.030987170
10.824759,42,1,0,-9,22,-23,2,-40,1.030987170
10.826364,-33,-1,2,-13,-56,6,-2,-27,1.030987170
10.826388,8,-22,-4,1,7,6,8,6,1.030987170
10.838937,7,-1,1,3,61,48,24,27,1.030987170
10.838945,-18,4,-3,-6,-36,-53,-14,-4,1.030987170
10.845892,13,-3,-2,6,5,1,12,14,1.030987170
10.845918,-15,-15,2,-1,12,7,-34,-23,1.030987170
10.862205,14,0,1,0,-69,-67,8,6,1.030987170
10.862228,-12,-27,0,0,41,40,15,-20,1.030987170
10.864076,-9,14,2,6,22,1,-6,12,1.030987170
10.864089,-20,10,-2,-8,-76,-17,-10,70,1.030987170
10.892243,1,6,0,2,44,23,-2,30,1.030987170
10.892271,-33,0,1,5,-33,-9,-4,-8,1.030987170
10.893795,69,2,-3,-6,60,9,-3,-36,1.030987170
10.893814,-76,12,0,-18,34,20,26,-12,1.030987170
10.900440,46,-8,-5,15,-42,-21,-16,-16,1.030987170
10.900455,-22,26,2,13,-34,11,9,11,1.030987170
10.905931,-34,-22,2,12,-1,-29,11,9,1.030987170
10.905956,54,22,-1,-10,49,10,0,-22,1.030987170
10.922401,-11,-24,-4,-17,6,-16,-7,-88,1.030987170
10.922419,14,27,2,5,-57,-19,11,37,1.030987170
10.923624,-13,11,0,9,77,11,-9,16,1.030987170
10.923638,13,-10,-4,2,-35,20,-28,-10,1.030987170
10.944120,-2,5,-2,-21,-31,-5,9,-14,1.026669759
10.944141,-13,22,-3,22,45,12,-4,-25,1.026669759
10.945438,-17,-23,0,-1,-28,15,1,20,1.026669759
10.945453,-26,-28,2,8,35,-25,1,-11,1.026669759
10.958446,3,5,0,-2,-31,53,12,9,1.026669759
10.958473,-1,0,-5,-9,3,2,-9,-43,1.026669759
10.965800,73,19,0,1,35,4,-15,43,1.026669759
10.965824,-65,-11,-7,4,-6,38,10,-35,1.026669759
10.981795,-3,-32,-1,-5,-3,-45,-25,46,1.026669759
10.981829,16,-8,-1,-10,0,23,15,-27,1.026669759
10.984034,-34,13,-2,-2,-14,-11,-8,-32,1.026669759
10.984040,23,-7,3,7,-48,-11,-1,-46,1.026669759
11.004323,-14,18,2,6,50,1,19,5,1.026669759
11.004351,29,-16,3,-8,40,10,-32,88,1.026669759
11.006420,-27,11,-3,9,50,-6,-6,-12,1.026669759
11.006427,46,7,-3,-1,4,-16,3,14,1.026669759
11.018699,-27,-4,0,-26,-71,-6,-16,9,1.026669759
11.018779,36,-11,-2,20,13,-2,16,-30,1.026669759
11.025908,-16,-46,-1,-2,-41,-11,-7,14,1.026669759
11.025927,-10,-10,1,-4,-19,19,15,15,1.026669759
11.041561,-32,23,3,14,73,-16,7,16,1.026669759
11.041577,-1,-5,-4,-17,-62,-4,4,-6,1.026669759
11.042296,39,7,-1,-16,-43,38,7,44,1.026669759
11.042314,9,-30,-4,24,-24,-8,-13,-10,1.026669759
11.064302,24,31,1,4,84,-5,-6,3,1.026669759
11.064326,-32,-3,1,-6,-32,5,19,-8,1.026669759
11.066469,-2,-10,1,1,-16,-32,-31,-4,1.026669759
11.066476,17,8,8,-3,6,-22,12,13,1.026669759
11.078739,-1,2,0,10,32,46,-18,-17,1.026669759
11.078760,-25,4,-6,-6,-40,-23,1,12,1.026669759
11.086240,-1,4,-3,-5,15,35,0,-35,1.026669759
11.086262,13,-10,2,-5,-20,-26,-1,16,1.026669759
11.101563,-5,-25,-3,-1,-14,7,-11,1,1.026669759
11.101595,-87,-14,0,9,51,-21,2,-42,1.026669759
11.103500,92,-17,-13,-24,36,13,-14,1,1.026669759
11.103517,-25,-3,0,-3,-23,-4,-1,-28,1.026669759
11.124224,17,0,-1,8,2,6,19,53,1.026669759
11.124249,20,4,-6,-8,-13,-11,-12,-3,1.026669759
11.124838,-41,2,2,-5,-68,-1,23,-26,1.026669759
11.124952,16,-6,-4,10,77,-21,-42,22,1.026669759
11.139110,-28,11,-3,-8,-43,4,2,3,1.026669759
11.139133,37,7,2,-6,-19,36,-7,12,1.026669759
11.145956,7,3,-1,10,22,-6,4,13,1.026669759
11.145974,23,20,-2,-5,-10,16,5,-56,1.026669759
11.161553,-15,-22,-1,-21,-17,-23,5,-21,1.026669759
11.161571,-26,7,3,23,-22,-35,-15,16,1.026669759
11.162786,-18,-3,-2,-5,-1,2,27,0,1.026669759
11.162793,0,13,-2,-3,56,15,-5,7,1.026669759
11.184005,8,10,1,1,26,12,5,-6,1.026669759
11.184019,17,8,3,3,1,32,8,-18,1.026669759
11.184565,-5,0,3,0,23,-28,9,19,1.026669759
11.184572,-24,1,-2,-15,-15,27,2,17,1.026669759
11.198405,-41,-9,-2,2,26,-12,-21,-34,1.066959584
11.198423,54,-27,-1,-8,-41,-22,1,21,1.066959584
11.205787,-22,75,0,8,21,22,-8,-32,1.066959584
11.205832,40,-35,-5,-1,7,8,4,-13,1.066959584
11.221637,-44,24,-6,-6,-51,-32,-17,-58,1.066959584
11.221681,10,-6,-1,-4,15,43,10,16,1.066959584
11.225297,-18,7,1,-20,-42,-22,-13,8,1.066959584
11.225317,-29,25,5,17,-12,-29,6,14,1.066959584
11.244279,32,-13,-7,2,50,-7,7,6,1.066959584
11.244291,-8,-3,-3,0,-44,-22,0,-48,1.066959584
11.244692,-26,-9,1,-18,-27,-30,-14,-5,1.066959584
11.244701,-26,-23,-1,-1,26,14,11,14,1.066959584
11.258422,10,-23,4,7,-43,8,-5,19,1.066959584
11.258444,-48,-3,-2,-3,35,-37,-11,-9,1.066959584
11.266141,30,11,4,8,-79,4,14,59,1.066959584
11.266164,33,1,-3,-7,-15,-8,-13,-60,1.066959584
11.281466,-14,5,-6,-3,8,-6,6,40,1.066959584
11.282272,-4,-13,0,-11,17,-25,-10,-6,1.066959584
11.282279,13,-18,-5,6,-13,29,23,23,1.066959584
11.282283,-56,-11,0,0,10,11,10,58,1.066959584
11.306149,58,-2,1,-1,4,-40,4,7,1.066959584
11.306158,-3,13,2,1,20,11,-6,12,1.066959584
11.306160,-19,-12,-4,-2,-56,12,-9,-29,1.066959584
11.306163,-11,7,0,-6,22,-3,-1,-17,1.066959584
11.318727,17,1,-2,3,14,19,2,57,1.066959584
11.318759,-18,2,2,-5,12,-45,-12,26,1.066959584
11.325882,-14,-15,0,1,61,4,-4,-20,1.066959584
11.325907,40,3,-2,-7,-38,-16,4,5,1.066959584
11.341687,-17,5,-1,1,-14,13,-1,-18,1.066959584
11.341708,35,-6,1,-1,19,20,10,-7,1.066959584
11.343836,-24,-10,1,11,20,5,4,-3,1.066959584
11.343849,15,23,-6,0,0,-3,-6,18,1.066959584
11.363962,-18,-1,0,6,-24,-14,14,-22,1.066959584
11.363981,0,-7,-6,-26,-19,58,2,7,1.066959584
11.365351,17,-9,5,28,9,-39,10,5,1.066959584
11.365362,-32,8,-4,-3,34,-23,-11,-23,1.066959584
11.378266,6,30,1,-8,9,10,-1,-1,1.066959584
11.378287,34,-15,-4,-2,-27,-24,-1,0,1.066959584
11.385988,16,-6,3,-11,8,48,-19,-3,1.066959584
11.386018,25,8,1,21,66,-17,4,41,1.066959584
11.401393,21,-8,-2,-10,-63,-2,0,3,1.066959584
11.401412,-14,9,-2,5,48,3,-3,-2,1.066959584
11.402666,-14,10,-3,-8,-26,-5,9,-2,1.066959584
11.402677,0,-19,0,-2,-13,-3,-13,-7,1.066959584
11.424166,-32,-28,-2,3,36,38,-7,-23,1.066959584
11.424194,-17,-4,-3,0,-34,-30,6,14,1.066959584
11.426042,-45,19,0,-25,-15,10,-8,-11,1.066959584
11.426055,44,-22,-6,18,-26,4,10,-15,1.066959584
11.447106,16,-13,-3,10,30,42,3,-12,1.066959584
11.447116,-8,17,5,-6,-1,-7,4,30,1.066959584
11.447170,-15,-12,-2,5,0,-4,12,13,1.066959584
11.447192,-40,18,3,-7,-47,-22,13,0,1.066959584
11.463289,34,20,2,-14,7,-8,-17,1,1.049342926
11.463297,12,-9,-3,21,23,11,8,-17,1.049342926
11.463395,6,0,1,11,87,21,5,1,1.049342926
11.463397,5,8,3,5,21,-4,-16,-4,1.049342926
11.483958,0,-42,-5,-22,-60,-14,1,28,1.049342926
11.483972,-6,-14,1,-1,42,30,0,0,1.049342926
11.485895,-14,9,-3,-1,-24,-59,-17,-61,1.049342926
11.485908,0,-9,4,-4,-92,44,8,-27,1.049342926
11.498331,1,-5,0,14,107,36,-14,61,1.049342926
11.498357,-27,-4,-2,1,13,13,0,-24,1.049342926
11.506049,40,-8,-3,-8,-30,25,-2,10,1.049342926
11.506066,-23,0,-2,-8,-18,-11,-24,-18,1.049342926
11.521840,-5,28,2,1,-42,2,21,-11,1.049342926
11.521918,-25,-18,-6,-4,11,-18,-14,0,1.049342926
11.525074,42,5,-1,16,5,54,-3,-13,1.049342926
11.525088,-4,-7,-1,-14,15,20,6,37,1.049342926
11.543954,-45,9,1,9,-1,-9,-1,-16,1.049342926
11.543972,56,-3,-1,0,-13,-29,2,12,1.049342926
11.544688,-10,5,-3,-10,29,-13,-9,-17,1.049342926
11.544742,-1,-6,-4,-2,-28,-8,-5,1,1.049342926
11.558476,-25,15,4,-1,28,-16,-11,-14,1.049342926
11.558500,15,1,-2,-5,-40,-14,3,-4,1.049342926
11.565760,-8,-7,-1,6,3,-7,1,23,1.049342926
11.565777,20,-7,-4,-5,62,26,2,26,1.049342926
11.581667,-14,3,0,6,-67,-32,0,-17,1.049342926
11.581789,3,24,0,1,0,25,-4,-1,1.049342926
11.583848,-8,4,0,-3,1,-32,11,-10,1.049342926
11.583854,-9,5,5,5,42,20,4,-11,1.049342926
11.603947,24,-3,-3,-6,-59,-46,-13,11,1.049342926
11.603983,-48,-5,-5,-10,57,-25,-15,19,1.049342926
11.604620,-8,-24,-3,-21,6,-1,-11,-11,1.049342926
11.604626,-8,12,0,22,-103,-17,9,-10,1.049342926
11.626741,21,-15,-3,5,73,75,7,-19,1.049342926
11.626759,34,19,-4,1,17,-38,-1,19,1.049342926
11.628160,-10,-3,5,4,7,1,11,25,1.049342926
11.628172,11,13,-5,-8,8,-27,-13,59,1.049342926
11.641617,35,-15,-1,-3,-17,-5,3,-28,1.049342926
11.643798,-66,-6,-1,-5,-71,27,-11,-37,1.049342926
11.643810,26,51,-2,9,10,2,9,-5,1.049342926
11.643813,-16,-25,-2,-6,31,44,3,-18,1.049342926
11.664412,-4,-3,-3,-4,-18,-47,1,-36,1.049342926
11.664421,3,-9,0,9,27,-5,9,-2,1.049342926
11.664611,-5,-3,-6,-3,-31,0,-23,-37,1.049342926
11.664625,6,-6,-1,-9,18,-1,1,-15,1.049342926
11.686846,-11,17,4,0,-64,-52,-9,-50,1.049342926
11.686871,-3,-2,3,-2,48,81,16,-13,1.049342926
11.688654,3,0,1,-4,-66,-24,-6,32,1.049342926
11.688660,33,0,-3,-3,-48,-35,4,-1,1.049342926
11.701872,-5,-16,2,-1,35,10,-2,7,1.049342926
11.701892,-11,25,-1,-4,-88,-28,20,-4,1.049342926
11.702860,46,6,-4,8,16,10,2,59,1.049342926
11.702866,-18,-1,-2,-18,5,1,3,-18,1.049342926
11.726265,-1,16,2,11,2,6,3,20,1.059117937
11.726277,-30,-12,0,3,18,-8,-11,-16,1.059117937
11.726280,10,-13,-1,-7,9,23,-3,15,1.059117937
11.726282,-10,16,1,3,48,-34,-11,-29,1.059117937
11.746811,-8,-14,-5,-7,-7,-25,19,1,1.059117937
11.746832,-23,37,7,6,-34,-7,7,14,1.059117937
11.747409,-13,-28,-9,7,40,40,-8,-22,1.059117937
11.749211,17,-12,-2,1,21,53,-5,13,1.059117937
11.761569,16,19,1,1,-24,40,-3,35,1.059117937
11.761601,-41,0,-3,-14,12,-64,-9,8,1.059117937
11.762471,-37,-6,-1,-2,-29,-16,13,-30,1.059117937
11.764583,18,2,-3,0,2,4,-1,5,1.059117937
11.784322,-15,-16,0,10,46,44,4,-12,1.059117937
11.784365,46,5,-5,-8,-42,12,-4,7,1.059117937
11.787743,-42,-7,1,-1,4,-8,-10,41,1.059117937
11.787754,1,-27,-5,-4,7,6,-3,-22,1.059117937
11.806778,0,24,2,-1,-3,2,-2,-6,1.059117937
11.806825,21,-4,4,19,-14,-6,-2,7,1.059117937
11.807326,17,-6,-4,-14,-16,-24,-4,19,1.059117937
11.807359,43,31,2,7,52,1,10,8,1.059117937
11.821921,-53,-10,-1,-3,46,-6,-2,3,1.059117937
11.821958,21,-17,-10,-14,-67,63,-9,-12,1.059117937
11.823417,-8,12,-1,-3,-16,19,-4,-22,1.059117937
11.823422,-3,-1,6,2,-56,-58,4,100,1.059117937
11.844038,-4,2,-4,-2,27,-2,1,-30,1.059117937
11.844063,11,-34,2,-2,33,26,16,-1,1.059117937
11.845515,-17,-8,2,1,-11,-33,-9,-74,1.059117937
11.845522,-23,-2,0,-5,-2,28,2,-29,1.059117937
11.867354,17,-13,0,2,0,-5,0,20,1.059117937
11.867362,-11,16,6,-3,28,-31,2,10,1.059117937
11.867364,23,-11,-7,-19,-30,50,5,-2,1.059117937
11.867367,-18,2,-7,22,41,-34,-28,-11,1.059117937
11.881523,24,-8,-4,-5,-34,-62,-3,1,1.059117937
11.881558,-2,45,1,-9,21,32,5,4,1.059117937
11.882766,-3,-13,6,8,15,-41,-6,-4,1.059117937
11.882772,-40,40,3,-12,39,70,3,-1,1.059117937
11.904313,11,-11,-7,-11,-35,-75,-17,-1,1.059117937
11.904335,32,-37,-5,-4,-25,15,-6,15,1.059117937
11.906046,-2,4,2,14,19,5,8,-41,1.059117937
11.906059,-10,-3,-3,1,14,19,-5,4,1.059117937
11.926505,-12,30,-2,8,-30,-24,-22,-4,1.059117937
11.926529,-22,-21,4,1,28,-28,-2,-39,1.059117937
11.928672,9,11,-5,-5,43,2,-19,-15,1.059117937
11.928686,41,-16,3,-4,-38,-44,17,14,1.059117937
11.941467,-18,25,1,-6,10,58,15,-15,1.059117937
11.941492,46,-21,0,3,15,-67,-15,3,1.059117937
11.943567,-28,32,0,1,-57,-4,14,17,1.059117937
11.943580,-22,-8,-1,-12,-1,-43,-28,-1,1.059117937
11.963751,20,-1,0,-2,11,27,14,21,1.067248009
11.963772,-13,-17,-4,7,14,22,-8,15,1.067248009
11.971512,-20,-4,5,1,19,-16,6,14,1.067248009
11.971537,36,-9,-4,1,-51,17,1,-29,1.067248009
11.986636,-17,26,-1,3,70,-2,-13,4,1.067248009
11.986660,-15,10,-5,-4,-21,-6,-4,4,1.067248009
11.988473,26,-13,0,-1,68,-4,-8,17,1.067248009
11.988479,-45,-32,-5,-4,-39,-14,12,40,1.067248009
12.001848,38,-15,3,3,18,29,11,51,1.067248009
12.001879,37,9,0,-7,14,6,5,56,1.067248009
12.003589,-39,25,4,1,5,-15,-4,0,1.067248009
12.003595,-28,-23,-4,2,3,34,17,-33,1.067248009
12.023996,45,-16,-8,-10,-35,-69,-1,11,1.067248009
12.024073,-6,-1,2,-1,-8,11,7,1,1.067248009
12.024779,17,-1,2,12,-22,-3,9,13,1.067248009
12.024799,-7,15,-1,-7,-65,7,-14,-40,1.067248009
12.046713,-13,1,5,29,51,15,-3,-2,1.067248009
12.046746,-14,-7,-4,-15,-77,-38,-6,-47,1.067248009
12.049185,15,-5,-5,14,53,28,5,14,1.067248009
12.049192,2,11,2,-9,-14,21,-14,-8,1.067248009
12.061746,11,-24,-3,-9,32,-6,11,18,1.067248009
12.061777,-12,23,-2,8,-2,36,14,-13,1.067248009
12.064103,8,-27,-2,0,-14,-59,-27,7,1.067248009
12.064109,-34,-3,-3,-13,11,-18,3,-9,1.067248009
12.083903,-22,-18,-1,-9,-47,29,1,-32,1.067248009
12.083912,46,14,0,9,23,-6,10,80,1.067248009
12.084606,8,8,-2,-5,11,21,-12,32,1.067248009
12.084641,-14,-26,-9,1,17,0,-1,-3,1.067248009
12.106789,-9,-6,1,-5,-9,-9,-5,-13,1.067248009
12.106813,-49,1,-8,-4,20,26,-5,-60,1.067248009
12.109455,19,-5,-1,-2,50,6,-7,-13,1.067248009
12.109468,8,24,6,2,35,-27,11,20,1.067248009
12.121412,0,-6,-2,-1,-26,-14,-9,-12,1.067248009
12.121430,11,3,-6,-12,3,8,-20,-59,1.067248009
12.123333,-28,-8,1,4,-7,33,13,11,1.067248009
12.123347,18,6,-3,-5,5,39,23,9,1.067248009
12.144067,-1,3,-1,2,-1,27,1,7,1.067248009
12.144091,12,-28,-1,-3,-11,-68,-32,-37,1.067248009
12.146005,27,21,1,-16,-110,-24,15,-22,1.067248009
12.146017,-7,-6,3,48,58,-31,-14,-9,1.067248009
12.166813,-17,4,-4,-11,-4,4,4,13,1.067248009
12.166830,-13,-3,5,3,-32,-29,8,29,1.067248009
12.167913,-37,-6,-4,-1,33,6,9,14,1.067248009
12.167918,33,-21,0,-12,-53,7,1,37,1.067248009
12.181479,13,21,-5,-3,0,-16,-8,3,1.067248009
12.181500,-35,-17,5,12,18,-3,1,-10,1.067248009
12.182564,7,15,2,-3,9,6,-1,4,1.067248009
12.182572,0,-2,2,-9,-27,-4,8,-21,1.067248009
12.204095,-8,7,0,7,-24,3,-5,-4,1.067248009
12.204128,-8,7,1,-23,14,59,20,11,1.067248009
12.206042,44,-19,-6,28,43,-62,6,-43,1.067248009
12.206047,4,14,-3,-9,-96,-11,-1,15,1.067248009
12.226449,0,36,-3,-11,60,6,-11,21,1.075103172
12.226466,-9,-9,0,10,-40,74,12,-7,1.075103172
12.227209,-18,-11,-5,-18,-60,0,3,-28,1.075103172
12.227261,45,3,-1,8,87,14,-6,40,1.075103172
12.240944,-11,-1,3,0,-54,-28,3,-8,1.075103172
12.240967,33,-3,-1,2,26,-1,7,6,1.075103172
12.249044,7,0,0,-2,-19,13,-5,20,1.075103172
12.249068,-40,30,-1,-11,-1,-15,-9,-2,1.075103172
12.264147,-36,-28,3,-16,-28,52,2,-66,1.075103172
12.264176,6,28,-2,24,67,-69,-22,-28,1.075103172
12.265183,15,-47,-6,-14,-39,33,-3,4,1.075103172
12.265193,16,7,1,1,-10,-17,6,-30,1.075103172
12.288314,-25,-10,1,2,53,40,-8,0,1.075103172
12.288321,-23,-4,-1,7,-5,-47,22,-27,1.075103172
12.288324,2,16,-3,-24,-55,35,-53,-23,1.075103172
12.288327,-9,3,-3,-4,7,26,13,0,1.075103172
12.302860,-4,-19,-2,5,8,-9,-6,25,1.075103172
12.302870,65,-12,0,-7,-18,8,-5,38,1.075103172
12.309268,-36,-2,-4,10,37,-5,0,-27,1.075103172
12.309294,-6,3,1,-2,27,-1,-8,-25,1.075103172
12.324046,24,-12,0,1,-75,0,1,-7,1.075103172
12.324073,-11,5,4,2,53,16,-7,45,1.075103172
12.325777,5,19,0,-1,20,-7,17,5,1.075103172
12.325790,21,-7,-2,-2,-10,0,-13,7,1.075103172
12.348831,-22,3,-1,-11,-50,-27,-5,-17,1.075103172
12.348841,-34,16,1,-18,-18,-10,5,-4,1.075103172
12.348844,6,-9,-3,16,5,46,6,11,1.075103172
12.348846,-11,34,4,4,-28,-69,7,-10,1.075103172
12.360913,17,-16,-6,0,77,99,-6,-12,1.075103172
12.360937,-32,12,0,-3,-24,8,-1,34,1.075103172
12.369250,1,3,-1,-3,43,-4,-6,-14,1.075103172
12.371903,-11,4,0,-10,-71,15,3,-16,1.075103172
12.383897,42,-2,0,8,-9,-38,3,-10,1.075103172
12.383952,-43,-13,-3,1,6,19,-3,18,1.075103172
12.384908,-47,-1,12,15,-4,-8,19,61,1.075103172
12.384973,15,1,-5,0,21,-19,-13,-24,1.075103172
12.407163,35,5,-3,-5,6,-34,0,29,1.075103172
12.407206,8,-25,-5,-2,-25,16,2,-39,1.075103172
12.409505,-19,6,-1,3,20,-13,-10,-7,1.075103172
12.409518,-54,-1,6,-6,-18,-61,2,-15,1.075103172
12.421236,38,-32,-4,5,28,2,-8,3,1.075103172
12.421268,0,35,-7,-18,-28,-18,-8,-13,1.075103172
12.429022,10,-18,0,15,-20,-46,-9,0,1.075103172
12.429039,-10,-3,-4,1,65,55,8,3,1.075103172
12.444041,22,14,4,11,36,-1,-13,11,1.075103172
12.444061,-80,-15,-5,-6,-40,15,7,-16,1.075103172
12.444747,54,12,-1,-18,-29,-86,11,4,1.075103172
12.444755,-11,-7,-7,-7,10,83,-7,12,1.075103172
12.466696,39,-2,2,0,-6,-21,7,-41,1.075103172
12.466727,-7,0,-5,6,25,14,-5,-18,1.075103172
12.468101,-3,-18,1,-6,9,7,-2,62,1.075103172
12.468107,-13,18,2,6,15,-7,7,56,1.075103172
12.481222,-16,-12,-1,-13,-15,-3,9,-2,1.062128410
12.481253,21,27,1,23,16,-9,-5,-30,1.062128410
12.490032,10,-12,-3,-6,-13,29,21,3,1.062128410
12.490044,11,-9,-1,2,2,-14,-32,-22,1.062128410
12.505703,-46,11,-4,-5,0,-9,1,4,1.062128410
12.505710,54,-5,2,-14,-5,-20,0,91,1.062128410
12.505713,-15,15,2,9,48,-49,-5,-93,1.062128410
12.505716,-26,-14,-5,-9,11,88,-6,-23,1.062128410
12.526574,-7,-8,-5,-6,-61,-83,-6,37,1.062128410
12.526650,20,-14,-5,-9,-38,-19,3,-51,1.062128410
12.527363,2,-1,-3,-12,-22,72,-7,-18,1.062128410
12.527372,4,-13,5,14,30,-68,4,-10,1.062128410
12.540849,-4,7,0,14,38,18,23,1,1.062128410
12.540871,21,24,3,-7,13,0,-32,2,1.062128410
12.549682,-39,-78,-8,-10,-33,-22,-9,-3,1.062128410
12.549714,56,-1,-2,-2,-11,0,3,-4,1.062128410
12.564275,-25,13,0,1,-12,27,10,17,1.062128410
12.564307,12,-10,6,13,8,-6,8,68,1.062128410
12.566333,-16,23,5,1,39,25,-2,32,1.062128410
12.566339,3,16,-3,-5,-2,-37,10,-33,1.062128410
12.586469,-14,-27,-1,2,2,30,0,-20,1.062128410
12.586510,10,20,0,-2,41,16,-2,-10,1.062128410
12.587264,-5,23,-4,-12,-63,36,-3,55,1.062128410
12.587285,-37,-8,1,9,27,26,0,26,1.062128410
12.609699,56,17,-1,-12,-28,-17,-11,-4,1.062128410
12.609725,-13,-31,-3,3,27,36,3,-20,1.062128410
12.611640,6,22,-2,-12,-21,-38,-9,-19,1.062128410
12.611652,-1,-2,1,4,16,-6,8,19,1.062128410
12.624368,-47,-20,-1,0,-40,-34,-9,5,1.062128410
12.624405,27,-6,0,0,-8,21,-3,-26,1.062128410
12.626747,38,6,1,2,-5,-51,3,-4,1.062128410
12.626760,-9,-47,-6,-14,-8,8,10,15,1.062128410
12.648873,-56,-1,0,8,64,17,-1,-21,1.062128410
12.648884,20,-19,-2,4,-35,-15,1,-2,1.062128410
12.648887,-9,23,0,9,44,0,1,-5,1.062128410
12.648889,11,-4,-2,-14,-38,4,-13,0,1.062128410
12.669915,-7,13,4,-17,-25,-22,16,5,1.062128410
12.669935,-26,-29,-6,29,48,2,-12,8,1.062128410
12.671744,-15,29,-4,-7,-27,-12,3,-16,1.062128410
12.671752,28,-10,-3,-6,-34,58,10,-23,1.062128410
12.684329,8,-4,-3,-6,-68,-88,-30,27,1.062128410
12.684358,-10,29,2,-15,-38,66,-2,-18,1.062128410
12.684881,-16,-17,2,10,7,-41,-7,-23,1.062128410
12.686923,-24,-9,-1,4,-13,23,-5,-30,1.062128410
12.706845,55,11,-8,-1,45,3,-9,-5,1.062128410
12.706877,-14,-16,2,-7,-41,0,13,-11,1.062128410
12.709238,-18,-15,0,-1,3,33,-3,-21,1.062128410
12.709251,-7,16,4,-1,2,-30,1,18,1.062128410
12.729866,-6,-6,0,33,65,-9,-11,-25,1.054151565
12.729896,-14,0,0,-3,-11,4,13,14,1.054151565
12.730739,23,7,-2,-11,-13,34,-7,-14,1.054151565
12.730761,5,-7,-1,-5,-33,-25,10,6,1.054151565
12.744046,7,13,1,6,55,39,3,9,1.054151565
12.744063,11,-7,2,1,-11,-35,9,12,1.054151565
12.744662,-15,-33,-2,-6,87,7,-18,15,1.054151565
12.744679,14,1,-6,-4,-9,-16,7,0,1.054151565
12.766459,-17,5,-1,-4,-28,0,13,15,1.054151565
12.766491,-7,-11,-3,0,52,-45,-12,-53,1.054151565
12.768134,24,-3,3,0,-33,7,7,26,1.054151565
12.768140,-16,22,2,5,11,-1,-11,6,1.054151565
12.789620,22,-13,-2,-22,-12,27,3,-40,1.054151565
12.789630,35,-14,-1,-7,-36,-8,10,-30,1.054151565
12.790517,-66,8,-2,22,35,1,1,-22,1.054151565
12.790544,83,-9,0,3,25,-5,-33,-1,1.054151565
12.804995,-56,6,6,6,28,9,3,-2,1.054151565
12.805004,12,-1,-3,-11,-29,-14,-6,2,1.054151565
12.805007,-5,4,-1,-1,-33,-4,2,12,1.054151565
12.805009,-2,-15,1,1,15,-23,-5,5,1.054151565
12.835693,8,16,-1,-2,-20,-6,-10,-29,1.054151565
12.835709,-15,2,0,0,20,42,2,26,1.054151565
12.835715,-32,5,17,24,-52,8,9,-33,1.054151565
12.835720,2,1,-22,-34,1,36,-21,-40,1.054151565
12.851876,30,-8,2,11,-46,-26,8,37,1.054151565
12.851888,-16,6,-4,-4,71,39,9,10,1.054151565
12.851890,0,15,1,-2,-36,-20,20,-8,1.054151565
12.851893,-1,-7,8,3,-3,-10,11,-8,1.054151565
12.864494,-28,9,-5,-3,-8,9,-15,25,1.054151565
12.864526,-1,3,-1,2,-5,-37,-11,6,1.054151565
12.866839,42,-5,-4,-12,9,9,-2,-33,1.054151565
12.866848,-12,0,3,9,-4,-13,3,7,1.054151565
12.887546,-33,13,-5,-7,3,11,3,-26,1.054151565
12.887570,-32,-36,7,17,-4,-27,7,45,1.054151565
12.889856,84,-5,-11,-16,-18,-33,-12,-6,1.054151565
12.889866,2,2,-9,-8,-19,35,2,4,1.054151565
12.909824,-31,-12,-1,-13,-30,1,-1,23,1.054151565
12.909843,23,7,-4,4,-32,-4,-7,14,1.054151565
12.911987,-12,1,0,27,89,9,-4,3,1.054151565
12.912007,-22,6,4,8,16,-22,16,-12,1.054151565
12.924255,19,-12,0,2,-11,32,4,0,1.054151565
12.924273,-2,30,-1,-13,-21,-24,-37,1,1.054151565
12.926522,-9,-5,-6,-11,24,-26,23,9,1.054151565
12.926534,15,8,1,-5,-15,-38,-21,-12,1.054151565
12.946428,-7,-56,-3,-6,34,-19,-12,0,1.054151565
12.946445,32,2,-9,-2,-8,17,15,1,1.054151565
12.947265,-35,-13,0,-2,10,44,-1,10,1.054151565
12.947279,-17,11,1,7,-3,-40,-22,-10,1.054151565
12.969940,2,6,5,-7,-6,15,10,-2,1.054151565
12.969965,-9,5,1,31,75,-5,-14,-18,1.054151565
12.971478,27,2,-1,-12,-33,-3,-1,21,1.054151565
12.971491,-27,13,-4,-4,41,19,13,-27,1.054151565
12.983991,-37,-8,1,-10,-84,-21,-6,26,1.054151565
12.984009,-10,-8,0,11,35,-12,-10,-58,1.054151565
12.985936,22,0,-2,-4,25,57,30,23,1.046062054
12.985950,-6,-12,-2,5,-55,-9,-24,7,1.046062054
13.007116,6,29,-2,-2,44,31,-17,-15,1.046062054
13.007158,-22,-22,-2,-32,-57,-21,6,-7,1.046062054
13.008936,-20,2,-1,0,29,-5,-8,13,1.046062054
13.008948,37,-12,2,0,-52,5,12,-24,1.046062054
13.030166,-4,42,-1,9,-16,19,5,-23,1.046062054
13.030253,32,-6,-1,2,32,-12,-8,22,1.046062054
13.032167,-34,1,0,-23,-29,4,-33,-52,1.046062054
13.032184,-70,4,-3,22,28,-7,24,10,1.046062054
13.044102,81,-20,-5,0,20,21,0,18,1.046062054
13.044127,-10,37,0,-7,-5,10,5,4,1.046062054
13.044702,-25,-17,-4,-17,-68,-7,-3,0,1.046062054
13.044723,34,6,-1,7,59,-12,-11,35,1.046062054
13.067106,-2,-2,0,6,9,-11,1,-6,1.046062054
13.067138,8,-5,2,10,-6,-60,17,-7,1.046062054
13.069664,-44,1,-3,-17,-10,69,-7,-7,1.046062054
13.069673,38,2,-2,-5,73,56,15,-1,1.046062054
13.089788,-43,-16,-2,8,-63,-46,-31,4,1.046062054
13.089798,53,21,-5,-10,23,-2,-8,27,1.046062054
13.090435,1,-7,-6,-22,-8,-42,-12,6,1.046062054
13.090455,11,7,5,24,-38,-21,5,60,1.046062054
13.104587,-11,28,-1,-10,56,51,0,-61,1.046062054
13.104609,0,3,-1,2,-35,2,-13,21,1.046062054
13.105539,28,2,5,6,-9,-14,12,-1,1.046062054
13.105553,-16,-15,-4,-6,-29,0,-7,1,1.046062054
13.126608,18,2,-1,-1,-10,-15,1,48,1.046062054
13.126636,-3,-5,-1,0,-8,-5,-5,3,1.046062054
13.128635,11,3,1,25,-9,2,10,26,1.046062054
13.128642,-30,-3,4,-17,44,20,-7,-83,1.046062054
13.150006,10,-8,-3,4,4,-85,2,24,1.046062054
13.150015,-12,-10,-5,-21,0,60,13,-10,1.046062054
13.150269,17,-10,-4,-17,-79,-64,-14,31,1.046062054
13.150304,-15,-28,2,29,40,37,11,-4,1.046062054
13.164872,-5,-15,-1,-3,10,28,9,-20,1.046062054
13.164879,-24,-4,1,-2,-9,2,-8,24,1.046062054
13.171682,14,19,2,11,1,-46,15,-4,1.046062054
13.171704,15,-6,-7,-14,1,39,-33,-15,1.046062054
13.186406,-24,-3,-3,-2,-13,21,32,33,1.046062054
13.186424,0,-24,-4,-16,-37,-29,-15,-45,1.046062054
13.187273,-18,27,2,25,18,25,23,23,1.046062054
13.187278,22,-19,1,-10,-12,-50,3,18,1.046062054
13.210880,15,-13,2,17,31,32,12,-1,1.046062054
13.210893,-20,27,-3,-14,-27,25,6,-2,1.046062054
13.210896,7,2,-1,-8,55,-77,-34,-28,1.046062054
13.210898,-56,14,-4,-34,-51,-26,21,2,1.046062054
13.223977,-2,-3,-1,16,23,2,-5,-46,1.046062054
13.226218,-12,-23,4,20,-9,16,18,51,1.046062054
13.231780,24,0,0,1,16,35,-10,-33,1.046062054
13.231809,12,11,-2,-3,-28,-19,-3,7,1.046062054
13.246785,0,11,-5,-13,-17,-21,-2,11,1.045444638
13.246807,20,-17,2,-1,39,27,0,-45,1.045444638
13.247551,-32,-11,-2,18,9,-28,-19,23,1.045444638
13.247567,15,-11,0,-6,10,-18,1,13,1.045444638
13.269648,-25,-14,-2,-6,-9,4,-8,34,1.045444638
13.269665,-11,11,2,6,7,-18,-11,-81,1.045444638
13.271089,42,-4,-4,8,-3,13,3,18,1.045444638
13.271095,-34,-18,-1,-38,-63,-8,-3,6,1.045444638
13.283261,-5,15,4,16,44,24,-4,0,1.045444638
13.283278,30,-22,-7,-14,23,12,-7,-44,1.045444638
13.291650,-1,-19,-4,1,-8,53,7,1,1.045444638
13.291681,-4,5,-1,10,-18,-59,0,17,1.045444638
13.306398,18,-7,-4,-11,14,7,-2,-12,1.045444638
13.306412,-34,3,3,1,-38,1,-1,-8,1.045444638
13.307244,10,-1,2,3,-10,10,1,-5,1.045444638
13.307261,31,14,-5,6,45,56,-6,-11,1.045444638
13.330382,-50,1,-2,-18,-34,-18,2,21,1.045444638
13.330406,4,11,-6,2,41,-9,-9,-30,1.045444638
13.332103,8,0,-3,0,33,-9,-7,9,1.045444638
13.332113,3,4,3,9,-39,22,-4,-9,1.045444638
13.343405,6,-7,6,-6,-18,-4,-1,-20,1.045444638
13.343437,-16,8,2,-11,-16,2,21,2,1.045444638
13.351424,1,33,1,4,40,-2,-21,63,1.045444638
13.351445,-13,-10,-1,10,38,21,-2,5,1.045444638
13.366679,2,-3,-3,-6,-31,-40,6,-69,1.045444638
13.366697,18,-4,-2,0,-7,-18,-12,8,1.045444638
13.367145,10,-5,-4,-13,-73,29,11,-53,1.045444638
13.367180,-19,21,4,11,43,-7,6,16,1.045444638
13.389632,-25,2,2,-1,-59,-48,-13,-10,1.045444638
13.389655,-5,8,-1,1,57,76,10,57,1.045444638
13.392307,43,-21,-5,-9,-13,-18,1,-14,1.045444638
13.392319,-40,-42,-3,5,-6,-16,-9,-15,1.045444638
13.403793,16,14,0,-2,-2,35,-6,-8,1.045444638
13.403824,-43,6,7,12,-5,-27,0,10,1.045444638
13.411708,-14,5,0,-5,-17,8,0,-4,1.045444638
13.411742,31,-11,-5,-30,-66,-20,2,-6,1.045444638
13.428329,-21,-10,-2,36,73,54,3,54,1.045444638
13.428339,1,-17,-4,-1,47,-43,-3,7,1.045444638
13.428342,17,4,7,13,-50,27,31,-12,1.045444638
13.428345,-6,-10,-10,-24,-22,-79,-62,-20,1.045444638
13.449680,-3,-7,-4,-25,83,29,24,-2,1.045444638
13.449710,7,-10,-1,18,30,14,7,22,1.045444638
13.451383,-34,26,0,-11,-5,11,-17,-8,1.045444638
13.451396,32,8,1,14,-16,33,34,37,1.045444638
13.463373,51,6,-1,-5,-36,-17,-6,-45,1.045444638
13.463390,-26,-20,-5,-11,10,-35,-8,-2,1.045444638
13.471886,-41,13,3,3,-14,12,0,4,1.045444638
13.471917,25,27,-1,12,12,5,1,54,1.045444638
13.486791,32,-3,-2,-4,1,-1,-8,4,1.045444638
13.486815,-13,15,0,-4,-47,-28,6,26,1.045444638
13.488463,-36,-19,-2,-3,-2,10,2,-15,1.045444638
13.488476,6,21,3,-3,14,25,4,-26,1.045444638
13.509668,12,-7,-3,2,-10,-16,7,17,1.050600293
13.509738,-1,6,7,10,-75,-5,1,-21,1.050600293
13.510462,-10,-49,-9,-18,117,-34,-34,14,1.050600293
13.510585,-8,7,3,25,15,5,17,5,1.050600293
13.532199,-5,-8,-2,-16,-33,45,-18,-20,1.050600293
13.532303,-4,-2,-2,7,-5,-17,0,9,1.050600293
13.533426,31,4,-6,-17,1,1,1,-19,1.050600293
13.533437,23,3,-1,5,36,42,19,-12,1.050600293
13.546576,-2,-64,-2,1,-21,-23,-5,9,1.050600293
13.546594,-17,56,-5,-9,-22,-2,-4,-20,1.050600293
13.547891,-12,-1,4,0,12,-17,1,10,1.050600293
13.547903,-2,3,-2,-6,-15,16,1,-11,1.050600293
13.569614,-6,23,1,4,23,3,-3,-4,1.050600293
13.569631,-12,-3,4,-3,-83,-2,1,8,1.050600293
13.570416,58,-18,-7,9,29,50,10,-42,1.050600293
13.570441,-29,-18,-5,-22,-24,-67,-12,-1,1.050600293
13.592197,-14,13,3,2,9,-6,30,69,1.050600293
13.592217,73,-2,-5,6,-12,15,-5,-4,1.050600293
13.594467,-6,18,1,3,-13,21,0,-6,1.050600293
13.594477,-17,-1,4,4,-3,-60,2,-2,1.050600293
13.606813,-5,12,1,4,4,7,-6,19,1.050600293
13.608440,-7,-6,-1,-10,27,-6,-3,4,1.050600293
13.608455,10,9,0,10,7,-8,12,25,1.050600293
13.608457,-24,-13,-5,-4,-27,-15,-21,-13,1.050600293
13.630982,-19,2,0,-9,18,9,8,20,1.050600293
13.630991,-28,18,5,7,92,-6,-7,-75,1.050600293
13.630993,33,-7,0,-6,-31,-37,-16,13,1.050600293
13.630996,7,0,0,5,-51,17,5,-3,1.050600293
13.652166,8,10,-4,5,-17,5,3,-13,1.050600293
13.652194,-27,-29,-4,1,15,9,2,27,1.050600293
13.654298,-70,19,4,2,-9,11,8,-4,1.050600293
13.654304,63,-16,-3,17,71,6,-10,-5,1.050600293
13.666961,-17,-16,-3,-3,33,1,0,-28,1.050600293
13.666983,23,6,2,-3,4,-51,-1,3,1.050600293
13.667182,-18,2,1,-2,-21,17,1,28,1.050600293
13.667204,-4,9,3,9,-16,-22,-9,-25,1.050600293
13.690735,-2,5,-7,-14,19,12,-19,-11,1.050600293
13.692486,20,6,-3,-12,-31,-3,-6,-9,1.050600293
13.692507,12,-16,-5,-2,51,-7,-8,20,1.050600293
13.692510,-22,11,1,-3,12,16,7,-1,1.050600293
13.712321,29,2,1,6,3,-6,-9,-20,1.050600293
13.712334,28,1,-2,4,29,-4,-5,32,1.050600293
13.713691,-46,-12,1,-3,-17,-29,18,-28,1.050600293
13.713715,28,16,1,-19,3,25,-28,14,1.050600293
13.726420,-16,-8,-5,27,-15,-43,-17,-13,1.050600293
13.726434,3,7,-4,-8,-20,27,1,-37,1.050600293
13.727203,13,4,0,3,27,-12,0,12,1.050600293
13.727221,-5,-11,-5,-7,-54,27,7,21,1.050600293
13.749684,7,-27,11,32,43,-14,11,20,1.050600293
13.749707,-17,-9,-12,-43,-26,81,-21,-43,1.050600293
13.751306,10,17,5,6,-9,-18,-9,-10,1.050600293
13.751322,-26,-20,-5,-9,-7,-5,5,7,1.050600293
13.773007,28,15,0,-12,-52,-5,-1,-42,1.046300908
13.773013,-23,-5,-3,14,17,-19,-6,36,1.046300908
13.773016,10,-31,-6,-17,-20,25,-4,-16,1.046300908
13.773018,-25,-15,-3,15,8,4,2,-46,1.046300908
13.788156,-27,42,0,9,17,-8,5,-16,1.046300908
13.788166,4,-17,1,9,26,-5,-1,16,1.046300908
13.788168,-19,17,-5,-15,-27,-1,9,13,1.046300908
13.788171,16,-4,3,-1,-22,-3,22,-2,1.046300908
13.809715,17,0,-2,-8,15,-10,-17,-1,1.046300908
13.809741,9,7,6,6,-82,-65,23,31,1.046300908
13.811286,-66,-1,-4,3,45,85,-34,-28,1.046300908
13.811297,43,0,-6,-6,-22,14,-8,62,1.046300908
13.832260,7,8,-5,-13,-15,-2,2,41,1.046300908
13.832293,-7,-13,-3,-1,37,3,9,-39,1.046300908
13.834165,21,19,1,3,-62,-24,2,-2,1.046300908
13.834175,-60,2,9,-12,4,3,9,-3,1.046300908
13.847072,-26,16,-1,-2,-24,-3,3,16,1.046300908
13.847105,24,-11,-4,1,-4,16,0,2,1.046300908
13.849244,-3,-11,1,14,32,4,-3,-20,1.046300908
13.849255,-40,34,0,-4,22,-7,-5,10,1.046300908
13.869992,-2,-20,2,-14,-53,6,6,-24,1.046300908
13.870015,-25,13,-2,-3,4,-1,-3,-11,1.046300908
13.870632,19,-12,-3,-2,-39,-19,2,-1,1.046300908
13.870653,19,5,3,4,51,-42,-7,13,1.046300908
13.892391,-4,-15,-4,-9,61,46,-14,39,1.046300908
13.894261,-7,-38,1,-12,19,-18,15,29,1.046300908
13.894273,41,-1,-1,18,16,-39,10,45,1.046300908
13.894276,0,-6,-2,-10,-39,21,1,-56,1.046300908
13.905792,-45,-10,-6,2,-26,-12,-9,19,1.046300908
13.905815,34,2,2,0,0,6,-13,6,1.046300908
13.915888,-33,-7,-1,-6,-3,-14,0,19,1.046300908
13.915902,31,12,-3,12,34,-9,3,-21,1.046300908
13.929722,24,2,2,-8,7,-11,-1,-15,1.046300908
13.929736,-5,-24,-4,3,-24,12,13,65,1.046300908
13.931181,15,0,-4,-2,16,-13,1,-15,1.046300908
13.931197,-12,-4,3,6,-18,3,-3,-54,1.046300908
13.952349,4,13,0,-5,-57,-15,4,-4,1.046300908
13.952388,-12,1,-1,4,30,38,-2,15,1.046300908
13.955137,-13,7,-2,1,18,1,-21,-3,1.046300908
13.955146,-29,-12,-1,-4,35,-1,-5,28,1.046300908
13.965813,19,-9,-9,-32,-79,0,3,-22,1.046300908
13.965837,-2,13,2,30,-42,-18,-6,-7,1.046300908
13.976348,4,-5,2,-5,1,2,-2,15,1.046300908
13.976361,-15,-40,-8,-6,-3,5,1,-10,1.046300908
13.991877,-21,-25,-2,9,36,-12,-8,-6,1.046300908
13.991893,-23,13,1,-5,-14,5,-5,7,1.046300908
13.991896,3,16,-1,-10,-22,-23,-1,-35,1.046300908
13.991899,37,7,-1,12,29,8,3,18,1.046300908
14.012223,6,10,4,13,-12,17,9,-10,1.055692852
14.012255,-3,-22,-6,-46,-29,-18,-12,3,1.055692852
14.014571,-5,-33,-3,31,46,-18,-4,-2,1.055692852
14.014579,30,48,2,-6,-9,6,9,-9,1.055692852
14.025845,-34,-27,1,5,-3,-16,5,6,1.055692852
14.025894,11,35,1,0,24,39,10,-2,1.055692852
14.036339,-19,15,5,2,31,-6,-14,-20,1.055692852
14.036347,-14,-3,-6,-10,-19,35,4,34,1.055692852
14.049850,-8,0,-2,-5,-13,2,-20,-19,1.055692852
14.049867,11,-3,2,13,18,-26,-2,1,1.055692852
14.051516,-20,3,1,-9,-13,10,10,18,1.055692852
14.051522,-15,-9,3,15,3,14,5,25,1.055692852
14.072127,37,6,1,4,4,-23,0,-1,1.055692852
14.072142,-7,-17,-4,-15,3,23,-4,-35,1.055692852
14.073750,-48,2,-3,6,2,5,13,8,1.055692852
14.073774,68,-14,-5,-3,-7,-22,-11,22,1.055692852
14.087760,10,26,0,-5,8,-16,-7,19,1.055692852
14.087768,43,-9,-4,-7,8,-3,-1,-10,1.055692852
14.095778,22,18,0,-1,18,29,12,16,1.055692852
14.095794,-20,2,-1,-1,-40,-31,0,18,1.055692852
14.109717,3,1,0,11,60,46,4,-37,1.055692852
14.109741,-14,-5,-1,-9,-28,13,-6,-47,1.055692852
14.111550,20,53,-4,-14,-2,-52,-3,57,1.055692852
14.111563,-19,-16,1,3,25,-14,2,-53,1.055692852
14.133675,-20,5,6,2,20,9,17,9,1.055692852
14.133682,24,-15,-2,8,-58,-6,8,-5,1.055692852
14.133685,71,1,-4,-8,-25,-26,-21,-17,1.055692852
14.133687,-21,40,-4,-14,-40,-9,2,5,1.055692852
14.146131,12,-11,-1,21,28,-10,3,8,1.055692852
14.146163,-42,10,4,11,28,-1,-5,0,1.055692852
14.156541,-12,-25,-1,-8,-17,14,5,9,1.055692852
14.156551,-15,-18,-1,16,14,-2,2,-1,1.055692852
14.169894,27,-12,0,-6,-29,-9,-8,36,1.055692852
14.169916,-37,-9,-3,3,41,-8,1,-31,1.055692852
14.171231,18,-13,1,-6,13,-16,11,20,1.055692852
14.171327,-14,-6,1,0,-32,-7,-16,24,1.055692852
14.192267,-59,23,-6,-18,62,13,6,-7,1.055692852
14.192293,62,0,-5,3,4,68,-8,12,1.055692852
14.194551,-17,-31,-5,0,30,-59,-4,-15,1.055692852
14.194563,5,2,0,-20,-38,44,-5,-21,1.055692852
14.206298,4,-43,-4,1,-40,2,-16,-1,1.055692852
14.206330,-8,12,1,-8,-2,2,23,22,1.055692852
14.222845,-53,-6,1,13,18,25,-5,-47,1.055692852
14.222859,-7,0,2,-14,14,-9,11,-1,1.055692852
14.229731,41,-16,-5,21,19,0,-11,-49,1.055692852
14.229749,-32,9,-3,-8,-15,-6,2,6,1.055692852
14.231179,28,-22,0,4,-30,18,0,-20,1.055692852
14.231190,-49,-14,1,6,32,0,-4,-42,1.055692852
14.252483,-6,41,-2,-14,-34,-27,-2,-2,1.055692852
14.252515,7,8,2,13,49,-66,-3,16,1.055692852
14.253901,-16,-13,-3,-2,-63,108,25,3,1.055692852
14.253914,-17,38,0,-7,69,-79,-30,21,1.055692852
14.265829,81,-29,-3,-2,-13,13,5,39,1.052894198
14.265853,34,6,-5,-20,-54,-22,-11,25,1.052894198
14.275715,-16,34,0,23,-38,8,-5,6,1.052894198
14.275725,18,-3,-4,9,2,4,13,-12,1.052894198
14.289527,-37,7,4,-4,8,-18,-1,2,1.052894198
14.289538,-12,11,3,5,-3,-25,2,21,1.052894198
14.291242,26,-11,2,-6,1,-14,-9,-5,1.052894198
14.291263,-4,27,-4,1,5,37,12,15,1.052894198
14.312375,-25,0,-2,1,11,-28,9,-9,1.052894198
14.312406,26,-7,2,3,9,2,-23,-7,1.052894198
14.314350,3,1,-1,-14,28,3,-2,-31,1.052894198
14.314360,-64,1,-1,3,47,8,5,47,1.052894198
14.325902,22,-37,1,-7,-67,-5,-3,3,1.052894198
14.325929,-15,-2,-8,-5,6,-16,9,7,1.052894198
14.335628,-2,-3,3,4,-7,-9,-23,31,1.052894198
14.335643,42,-13,-3,-5,28,-26,-8,-15,1.052894198
14.350370,-10,2,-3,-18,-55,-23,-2,15,1.052894198
14.350378,-70,-6,1,25,16,74,7,13,1.052894198
14.351117,45,-23,-1,-9,3,2,11,-13,1.052894198
14.351124,15,-29,3,6,-23,-10,11,-17,1.052894198
14.372241,-20,27,0,-2,-25,48,1,0,1.052894198
14.372265,17,-36,-2,-3,7,-26,-3,-41,1.052894198
14.374457,-13,41,-7,-11,25,28,-13,40,1.052894198
14.374473,9,-9,1,1,-10,4,1,-15,1.052894198
14.386041,12,14,3,5,41,29,1,4,1.052894198
14.386066,-20,-9,1,-25,-71,-36,-8,4,1.052894198
14.396209,35,-3,-6,5,16,40,9,22,1.052894198
14.396221,-16,4,-2,-19,-15,-65,-22,-11,1.052894198
14.410903,-26,-4,-3,23,57,-31,6,7,1.052894198
14.410917,-23,15,4,-5,-40,2,1,-13,1.052894198
14.411111,44,-10,-1,-13,20,-6,0,-51,1.052894198
14.411143,26,3,4,0,-25,15,-5,11,1.052894198
14.432150,37,1,-1,-8,-17,-29,-1,-4,1.052894198
14.432174,-23,17,0,13,31,39,-8,-19,1.052894198
14.433626,-25,-5,-3,-5,-32,-72,-4,-51,1.052894198
14.433678,0,31,3,4,32,40,11,39,1.052894198
14.445844,-24,-9,-3,-7,-40,-17,-9,0,1.052894198
14.445867,53,8,-1,2,-35,-2,-4,34,1.052894198
14.456102,-41,0,4,1,22,-1,-13,7,1.052894198
14.456109,25,3,-2,-1,-18,-7,0,-60,1.052894198
14.470634,27,3,-6,-28,-46,24,-2,20,1.052894198
14.470652,-3,-20,-3,23,20,31,-8,-48,1.052894198
14.473113,-42,-3,3,0,-13,-65,7,10,1.052894198
14.473124,15,-24,-5,11,35,-13,-3,-11,1.052894198
14.492128,25,2,-1,-8,34,6,7,-29,1.052894198
14.492153,-15,-1,-1,2,20,27,1,3,1.052894198
14.493771,-9,-21,-2,-11,-14,-16,0,16,1.052894198
14.493789,-21,-14,-1,8,2,16,-1,-8,1.052894198
14.514686,-27,-1,1,-1,-10,-24,-4,-34,1.049712472
14.514710,6,9,-1,-4,63,15,-4,-30,1.049712472
14.516116,6,-4,-4,-1,21,-6,7,8,1.049712472
14.516150,23,-6,-4,-13,-47,-4,-4,23,1.049712472
14.529693,-31,-17,-5,1,7,28,-3,8,1.049712472
14.529777,43,-19,1,-19,0,-32,-8,-35,1.049712472
14.531684,-24,32,0,24,41,-15,6,19,1.049712472
14.531695,-3,3,-3,-13,-34,3,-3,5,1.049712472
14.552067,17,8,0,8,10,15,9,76,1.049712472
14.552079,-31,-4,2,-11,8,35,13,17,1.049712472
14.553711,22,10,-1,13,-23,-26,15,-2,1.049712472
14.553718,25,-2,-1,7,13,-5,-12,2,1.049712472
14.574916,-56,14,6,2,-22,-5,1,41,1.049712472
14.574948,38,14,-11,-15,13,20,18,47,1.049712472
14.576763,21,-20,1,-6,-17,53,-12,-2,1.049712472
14.576776,-18,-3,1,5,-65,9,-9,-30,1.049712472
14.590407,4,-7,-1,6,42,-38,-5,-5,1.049712472
14.591879,-24,-5,1,0,-13,-2,-4,-44,1.049712472
14.591894,-4,-7,-4,-5,1,20,1,-1,1.049712472
14.591897,-7,-3,1,5,67,11,7,1,1.049712472
14.612194,29,-5,-6,-13,-73,17,-13,-66,1.049712472
14.612204,-26,-8,-2,-27,-50,-45,-10,45,1.049712472
14.613722,-28,1,4,24,-3,-26,0,-14,1.049712472
14.613818,-4,21,-1,-11,16,29,7,30,1.049712472
14.634970,-13,13,-1,9,59,29,-13,-14,1.049712472
14.634991,16,1,0,-10,-32,-40,-1,11,1.049712472
14.637520,-12,-1,1,14,4,34,9,-11,1.049712472
14.637528,-3,0,2,-9,3,-40,-3,-7,1.049712472
14.649909,2,10,4,10,42,2,10,-4,1.049712472
14.649950,41,7,-1,6,0,41,-8,78,1.049712472
14.655871,-44,2,-8,-26,-16,-16,-6,9,1.049712472
14.655894,-26,-36,-4,7,11,27,13,-20,1.049712472
14.672792,4,1,-2,-6,-5,-55,0,8,1.049712472
14.672828,10,1,2,14,26,-11,-2,-37,1.049712472
14.678538,4,-4,3,-4,-14,6,-2,-7,1.049712472
14.678562,-1,4,-1,-3,-16,14,-5,11,1.049712472
14.694805,-45,-1,1,-5,-7,10,10,-91,1.049712472
14.694821,-18,14,9,-3,-34,-30,3,16,1.049712472
14.696281,26,-7,-3,18,76,58,-2,7,1.049712472
14.697025,19,-16,-1,10,-18,19,-4,6,1.049712472
14.709236,21,-29,-14,-32,-22,-47,-10,-76,1.049712472
14.709272,-28,11,-3,1,-4,22,-5,14,1.049712472
14.715813,3,6,0,-19,-31,-13,6,-7,1.049712472
14.715837,-18,1,2,4,45,-1,1,23,1.049712472
14.732139,-2,-5,4,15,15,6,2,21,1.049712472
14.732162,13,2,0,11,1,-14,1,-24,1.049712472
14.733714,-1,-5,-1,-10,-13,-18,-7,5,1.049712472
14.733727,16,1,-1,1,-21,4,-6,-9,1.049712472
14.754696,4,12,0,-2,-9,6,0,19,1.049712472
14.754725,-4,-5,-4,4,23,-21,-2,-10,1.049712472
14.756052,-5,-2,-3,-7,-21,10,2,-3,1.049712472
14.756090,15,7,6,-2,-5,-25,0,21,1.049712472
14.770203,-15,2,2,7,42,17,-8,11,1.036634054
14.770221,-27,-2,4,11,54,29,12,23,1.036634054
14.778122,52,-37,-19,-33,-49,9,11,-67,1.036634054
14.778134,19,-21,-7,14,-14,-12,-28,3,1.036634054
14.792166,-8,6,1,-8,-10,-1,-7,14,1.036634054
14.792184,12,12,5,4,-25,-29,3,-17,1.036634054
14.794520,-63,-2,8,13,44,-15,-3,16,1.036634054
14.794532,26,6,0,-16,-3,-9,12,90,1.036634054
14.814844,10,-1,0,5,-10,30,8,-19,1.036634054
14.814900,9,-4,-3,12,42,16,-4,-13,1.036634054
14.817977,-5,51,2,-11,-57,-67,0,12,1.036634054
14.817987,-2,-25,-2,-3,6,33,10,-25,1.036634054
14.829377,-2,-2,0,9,45,-5,-7,-2,1.036634054
14.829409,-27,8,-3,-1,-8,18,6,8,1.036634054
14.836153,33,-1,-2,-5,7,10,-18,-40,1.036634054
14.836184,-19,-5,-3,6,-13,-9,5,-67,1.036634054
14.852152,7,31,2,-3,-16,10,-3,79,1.036634054
14.852179,-3,-21,-9,-17,25,-3,-12,-43,1.036634054
14.853999,-25,22,2,-5,-64,6,-3,32,1.036634054
14.854021,23,-25,-5,-7,6,53,0,-25,1.036634054
14.874823,-19,11,0,1,-25,-73,7,-7,1.036634054
14.874851,22,-13,-3,-3,-31,-37,-1,-9,1.036634054
14.877404,-3,-10,-2,4,98,8,-15,14,1.036634054
14.877417,-11,21,-2,-3,-14,15,-4,5,1.036634054
14.889356,-1,4,-4,-4,6,27,-3,-42,1.036634054
14.889388,0,-15,1,6,-3,-9,14,32,1.036634054
14.895874,12,-9,-1,-8,-45,-24,8,-54,1.036634054
14.895891,-34,-4,-4,5,72,37,0,21,1.036634054
14.912199,-9,33,-1,-5,6,-34,-2,-10,1.036634054
14.912238,16,-11,0,8,-39,-16,-7,16,1.036634054
14.913530,-4,-14,2,-1,-17,53,0,18,1.036634054
14.913538,7,2,-4,-11,26,7,1,-13,1.036634054
14.934645,-2,-2,0,-6,-71,6,-1,-13,1.036634054
14.934661,-8,1,3,12,37,43,17,22,1.036634054
14.936087,16,-8,2,2,27,-47,-12,91,1.036634054
14.936101,-5,34,-1,-26,-109,-34,14,35,1.036634054
14.948974,-24,-26,-2,33,53,3,-11,-16,1.036634054
14.948991,12,-4,0,-3,-32,-31,-9,-4,1.036634054
14.957670,-3,-4,2,5,-35,42,-4,-46,1.036634054
14.957680,45,-27,2,8,45,-37,-7,10,1.036634054
14.974471,3,-36,-7,-12,-20,7,9,1,1.036634054
14.974486,-3,19,-1,-5,7,-14,-33,-33,1.036634054
14.974543,3,-10,0,-2,16,18,9,27,1.036634054
14.974546,-37,8,1,17,-32,-9,-12,-32,1.036634054
14.994687,18,-3,2,-7,-3,-17,-13,10,1.036634054
14.994705,-9,-6,2,9,-13,21,23,-1,1.036634054
14.997307,14,17,-5,-22,-35,-9,-6,2,1.036634054
14.997318,-34,-14,1,24,81,33,8,-12,1.036634054
15.008309,11,27,-2,-5,-4,22,-8,27,1.036634054
15.008331,21,-4,-2,-4,2,-49,17,5,1.036634054
15.019696,-32,34,6,9,-5,-2,8,-34,1.036634054
15.019705,26,-24,-6,-18,-41,-62,-4,50,1.036634054
15.032592,-4,-20,-4,-15,-32,42,-9,-89,1.042168270
15.032684,-2,40,-6,16,16,-6,-10,19,1.042168270
15.035039,-10,-15,-2,-8,7,47,0,-30,1.042168270
15.035052,5,52,4,9,-50,-63,-4,-18,1.042168270
15.054859,-12,-24,-2,-11,7,-4,24,21,1.042168270
15.057956,-16,-23,-2,-4,67,2,4,-27,1.042168270
15.057974,57,-20,-6,2,-19,-24,-24,17,1.042168270
15.057976,-19,2,0,-6,-26,66,12,-14,1.042168270
15.068637,12,4,-4,-20,-16,0,0,67,1.042168270
15.068663,-30,9,-4,22,24,-15,-25,-52,1.042168270
15.078501,-21,-13,0,5,35,-30,4,48,1.042168270
15.078513,10,6,3,-8,-3,-23,-4,-11,1.042168270
15.092312,-21,40,0,8,25,-12,14,-27,1.042168270
15.092338,11,-19,0,-20,-28,22,-18,6,1.042168270
15.094342,-47,-6,-6,16,49,-16,-22,-16,1.042168270
15.094358,49,-4,-2,-6,-17,-7,5,-24,1.042168270
15.115032,-22,-11,2,8,69,10,-10,-3,1.042168270
15.115059,-24,10,4,-8,-95,-9,16,41,1.042168270
15.118346,43,8,-3,-1,-23,-5,13,-20,1.042168270
15.118361,-41,-23,-2,-28,-14,10,-8,45,1.042168270
15.128388,8,-9,3,41,69,-1,-1,-10,1.042168270
15.128406,-38,-6,0,-9,12,57,-2,-19,1.042168270
15.138563,53,6,-2,1,-11,-11,10,0,1.042168270
15.138574,9,27,-2,-9,-42,-3,0,-1,1.042168270
15.152102,5,-13,-1,-3,-32,-21,-7,46,1.042168270
15.152125,-17,25,-6,-27,-8,14,3,8,1.042168270
15.154234,-3,-10,3,21,12,-29,-7,-7,1.042168270
15.154246,-15,0,-4,10,55,26,7,-57,1.042168270
15.174797,7,-20,3,-2,-92,10,4,14,1.042168270
15.174811,7,5,-2,-20,-6,-32,-31,29,1.042168270
15.176233,-38,-22,-6,-6,33,26,-2,-45,1.042168270
15.176248,-4,1,0,-3,-28,-51,10,6,1.042168270
15.189792,-7,8,1,13,21,24,4,-41,1.042168270
15.189803,-13,-15,0,-15,5,17,4,-13,1.042168270
15.197259,17,-12,2,-1,-9,-19,-8,27,1.042168270
15.197266,1,34,0,8,29,9,0,24,1.042168270
15.212144,-14,5,-1,-30,-32,-15,0,12,1.042168270
15.212164,33,-22,-2,37,62,-5,-1,-4,1.042168270
15.213814,-13,22,2,-7,-22,2,0,18,1.042168270
15.213831,-10,2,0,-1,-77,-14,-8,-22,1.042168270
15.236138,46,0,0,-1,11,35,0,17,1.042168270
15.236155,-3,-13,-5,-8,6,-26,-19,-64,1.042168270
15.236346,-11,13,1,-2,21,44,-1,4,1.042168270
15.236417,-33,-20,0,-2,-23,-9,19,-10,1.042168270
15.248290,45,20,0,4,-13,-39,-5,8,1.042168270
15.248314,-23,-28,1,5,-25,38,-16,19,1.042168270
15.259344,-7,-9,-2,-2,1,-9,7,50,1.042168270
15.259356,-50,10,4,-7,-3,23,-12,6,1.042168270
15.272745,36,-39,-10,-6,32,29,15,-34,1.042168270
15.272779,25,33,0,-5,34,-34,3,6,1.042168270
15.275768,-2,-20,3,12,-5,-5,2,40,1.042168270
15.275780,39,-30,-2,1,19,0,-11,-3,1.042168270
15.294741,-9,2,-2,-2,-79,-1,3,10,1.067653611
15.294762,-13,-12,-2,-2,56,13,4,0,1.067653611
15.296342,5,6,-4,8,2,-4,7,-18,1.067653611
15.296358,-11,3,1,-4,-23,5,-9,-12,1.067653611
15.308488,-17,-15,-2,-1,32,-67,-9,5,1.067653611
15.308519,27,14,2,-2,-57,12,33,18,1.067653611
15.320499,-23,-14,-5,-11,-18,-47,-19,-32,1.067653611
15.320507,7,21,-3,4,-16,-15,-6,7,1.067653611
15.332127,-10,14,1,-1,58,19,-10,-5,1.067653611
15.332160,-1,-10,4,-5,-12,9,15,62,1.067653611
15.333604,11,67,-2,18,36,34,22,-19,1.067653611
15.333611,5,0,0,1,34,-54,-5,-30,1.067653611
15.354578,8,-4,-2,-3,-27,-2,-14,36,1.067653611
15.354600,-45,-11,-2,-3,-19,-9,-4,-91,1.067653611
15.356249,22,28,1,-12,14,25,-3,-14,1.067653611
15.356260,-24,-22,-3,2,38,15,8,12,1.067653611
15.368727,1,5,3,9,-5,16,12,22,1.067653611
15.368806,84,-13,-6,-8,6,-1,-16,-50,1.067653611
15.377781,-29,-6,-7,-14,2,-30,5,-11,1.067653611
15.377792,24,15,-3,2,16,9,-2,13,1.067653611
15.391618,-9,-8,6,-1,-6,-46,-2,23,1.067653611
15.391646,-27,10,-5,1,-28,24,-16,-8,1.067653611
15.398380,15,9,2,-17,-98,-14,3,23,1.067653611
15.398395,9,-12,1,6,90,38,9,28,1.067653611
15.414988,-8,11,-2,14,15,3,-16,-15,1.067653611
15.415005,4,8,0,-6,-20,-27,5,12,1.067653611
15.417104,11,10,-1,-3,-4,10,-9,4,1.067653611
15.417110,-8,3,0,-1,-24,1,5,1,1.067653611
15.437766,49,-6,1,-6,4,16,7,30,1.067653611
15.437805,-18,13,1,12,11,-9,-4,4,1.067653611
15.440011,-64,-31,-4,-5,-10,14,-3,-13,1.067653611
15.440023,24,-19,3,-5,-70,-42,-13,-23,1.067653611
15.452208,-32,-3,-4,-1,6,14,-2,-69,1.067653611
15.452240,27,-2,1,6,41,-6,10,2,1.067653611
15.454640,28,-20,5,9,-12,-29,-2,62,1.067653611
15.454650,-14,-1,-3,-5,-10,39,-5,0,1.067653611
15.474833,4,0,-3,-2,22,50,7,21,1.067653611
15.474859,-49,-4,4,4,-9,34,18,7,1.067653611
15.477735,36,-6,1,16,31,-79,-15,-29,1.067653611
15.477748,1,-10,-4,-12,34,19,-30,-10,1.067653611
15.497182,7,21,-2,-21,-60,-31,-1,30,1.067653611
15.497200,-8,-7,0,5,33,29,9,1,1.067653611
15.498603,7,-15,-2,-1,-9,16,9,-7,1.067653611
15.498615,17,26,-7,-4,19,-5,-4,-1,1.067653611
15.512355,-35,-14,0,6,6,10,3,-3,1.067653611
15.512454,20,12,3,-3,-30,-65,-17,22,1.067653611
15.515164,-5,-9,-1,-4,30,-12,-6,42,1.067653611
15.515183,44,4,-4,9,37,28,3,-2,1.067653611
15.534724,-17,-16,-2,-10,-26,-12,2,-17,1.067653611
15.534793,-9,-33,-5,-2,-94,-5,-6,13,1.067653611
15.536127,-12,11,2,3,34,54,6,-12,1.067653611
15.536168,-34,-9,2,5,4,-1,4,5,1.067653611
15.557381,24,-14,0,5,12,-5,-20,-33,1.065909521
15.557401,13,4,-6,-8,-22,10,-9,19,1.065909521
15.559982,-25,13,4,-13,-46,5,2,-48,1.065909521
15.559995,39,-22,-5,3,6,-7,-1,-12,1.065909521
15.571915,-11,0,2,-5,-41,1,6,63,1.065909521
15.571959,-2,44,0,5,10,-21,4,14,1.065909521
15.578428,-35,-24,0,2,42,33,7,-21,1.065909521
15.578503,1,-5,1,-4,-3,-29,-14,-17,1.065909521
15.595381,21,35,-1,4,10,-49,-5,-50,1.065909521
15.595394,-28,-7,-1,-25,-56,96,-2,-24,1.065909521
15.596288,35,-27,-1,19,53,3,-4,38,1.065909521
15.596346,-22,37,-2,-20,-34,-52,-15,17,1.065909521
15.617161,-8,19,-7,-1,23,-28,15,-28,1.065909521
15.617178,28,3,4,4,40,-24,15,57,1.065909521
15.619159,-2,-4,-1,-12,-23,7,-4,-64,1.065909521
15.619166,-40,-16,4,3,-33,74,4,5,1.065909521
15.631479,2,-2,-3,3,21,-2,-10,3,1.065909521
15.631503,11,-16,-5,-25,-41,-27,4,-31,1.065909521
15.638793,15,2,-2,11,19,2,-13,13,1.065909521
15.638825,-14,9,0,15,27,-32,7,-15,1.065909521
15.655343,-7,-9,2,-1,22,22,-2,1,1.065909521
15.655389,6,-11,0,-2,1,-7,-7,15,1.065909521
15.658528,15,18,-3,3,16,10,-3,65,1.065909521
15.658541,6,10,4,4,-33,5,17,6,1.065909521
15.677062,-39,-53,-1,1,10,-11,-11,16,1.065909521
15.677082,-33,-5,-5,12,7,40,-20,-49,1.065909521
15.679662,9,15,-8,-24,-87,-10,15,-19,1.065909521
15.679681,-12,1,-2,3,62,0,40,23,1.065909521
15.691613,66,10,-4,-2,-45,0,-14,47,1.065909521
15.691638,0,-6,-2,-17,4,-29,-17,23,1.065909521
15.698213,-29,-1,3,21,-1,1,-1,-77,1.065909521
15.698230,-22,-15,-1,-3,-13,5,-10,-21,1.065909521
15.714879,6,2,1,-3,31,-21,-13,-23,1.065909521
15.714912,-42,7,-1,6,9,3,19,-1,1.065909521
15.717847,-14,2,2,-4,6,-12,-23,27,1.065909521
15.717853,38,-13,-2,-1,-27,-25,11,-17,1.065909521
15.737321,-56,-2,0,-7,8,24,2,-25,1.065909521
15.737328,16,7,1,13,34,-22,-2,-6,1.065909521
15.738609,-14,-5,-3,-9,-46,1,11,7,1.065909521
15.738643,-11,-28,-3,8,89,24,-19,-1,1.065909521
15.752453,16,-17,-3,-6,-95,29,-3,6,1.065909521
15.752460,7,0,3,7,4,-65,22,11,1.065909521
15.758394,0,11,1,-7,-74,-19,10,-2,1.065909521
15.758421,20,0,2,3,47,-32,-23,23,1.065909521
15.774717,-77,-28,-3,-2,50,37,5,-1,1.065909521
15.774749,92,-8,-5,2,25,0,-18,-30,1.065909521
15.776615,22,-2,0,-14,-11,-73,8,28,1.065909521
15.776628,-46,-15,-1,-6,-43,3,5,8,1.065909521
15.798585,-17,58,1,13,10,-9,-6,-54,1.071069686
15.798595,-23,-1,2,-3,19,-5,-3,-38,1.071069686
15.798598,-26,0,2,3,17,17,-2,13,1.071069686
15.798600,70,13,-5,0,13,7,-2,-11,1.071069686
15.813172,9,3,-4,-27,-22,-11,-1,-32,1.071069686
15.813182,-7,-14,3,20,-20,75,8,-23,1.071069686
15.818793,-9,22,-3,-1,18,-24,-15,-17,1.071069686
15.818809,-8,-3,2,-6,-8,80,19,-9,1.071069686
15.835150,4,7,1,2,-48,-35,-26,15,1.071069686
15.835203,2,4,-3,-1,-32,-21,5,11,1.071069686
15.837856,11,-10,-2,-3,42,56,4,27,1.071069686
15.837862,-30,15,3,1,-40,-54,-1,-57,1.071069686
15.857399,-1,-20,-6,-4,6,-8,0,36,1.071069686
15.857433,-8,-3,-1,1,14,-4,-12,13,1.071069686
15.860245,16,-9,-3,2,5,15,5,-2,1.071069686
15.860257,-3,36,3,-6,-16,-10,1,25,1.071069686
15.872048,5,-31,-2,8,24,24,12,-12,1.071069686
15.872081,-21,5,-7,-10,-15,-45,-13,-16,1.071069686
15.878741,-4,-12,2,-7,1,3,1,19,1.071069686
15.878771,12,6,1,-3,-19,-7,-11,9,1.071069686
15.894604,-30,8,1,-5,-55,-35,7,-37,1.071069686
15.894624,21,-13,-4,28,92,84,-1,3,1.071069686
15.896400,-33,-29,-4,-4,37,-69,-11,-21,1.071069686
15.896418,34,-9,-4,0,21,9,6,25,1.071069686
15.917362,42,-16,-1,7,-48,6,11,-3,1.071069686
15.917394,6,1,0,-10,-39,-43,3,15,1.071069686
15.919399,-6,3,0,4,11,25,1,-35,1.071069686
15.919406,-5,21,0,6,11,-37,-7,14,1.071069686
15.931331,-19,-30,-3,-6,26,-2,-15,-18,1.071069686
15.931363,-27,-8,-2,-7,-5,-3,-5,-4,1.071069686
15.939644,29,13,-5,-5,-8,2,-3,-17,1.071069686
15.939670,-45,-6,3,6,-43,-8,-3,12,1.071069686
15.954550,46,11,-1,-3,42,60,15,20,1.071069686
15.954558,-27,11,-1,-12,-13,-18,-3,39,1.071069686
15.956046,-8,2,3,-9,-32,-13,2,2,1.071069686
15.956053,50,-19,-6,-3,35,38,-16,-29,1.071069686
15.977253,19,-5,-2,32,72,-3,5,15,1.071069686
15.977272,-10,34,5,0,21,3,12,-7,1.071069686
15.978738,16,1,-10,-5,-2,37,-10,51,1.071069686
15.978747,-23,-5,-1,-12,-40,-76,15,0,1.071069686
15.991118,-13,9,0,-7,7,-13,-6,-35,1.071069686
15.991142,4,-5,2,6,45,50,-2,9,1.071069686
16.000950,27,27,4,6,8,-35,4,-20,1.071069686
16.000967,-61,-16,-3,-4,7,14,14,5,1.071069686
16.015694,2,12,3,-3,-51,-3,12,-41,1.071069686
16.015704,21,-34,-9,-11,14,-42,-33,-30,1.071069686
16.016143,7,-20,1,2,-27,22,15,-13,1.071069686
16.016151,-12,23,-2,-2,36,25,-25,10,1.071069686
16.037327,-30,-6,5,-3,22,-56,2,18,1.071069686
16.037386,28,14,-3,2,-65,25,10,5,1.071069686
16.039159,2,-15,-5,8,58,-6,-3,-3,1.071069686
16.039166,-33,-16,2,2,-55,16,11,-14,1.071069686
16.051165,7,11,-7,-11,-24,-26,-8,27,1.070100744
16.051179,-8,-16,-3,-5,9,28,-6,18,1.070100744
16.061593,-12,8,3,0,11,-6,10,-33,1.070100744
16.061611,4,-5,-1,-3,-18,-2,-2,-6,1.070100744
16.074800,-6,-11,3,6,-26,25,-21,-55,1.070100744
16.074820,1,5,-4,-13,-41,-31,3,-26,1.070100744
16.077271,-37,6,2,-9,-17,45,8,10,1.070100744
16.077282,41,-31,0,38,13,-6,-25,-11,1.070100744
16.097209,-17,35,-5,-28,7,3,5,3,1.070100744
16.097228,30,38,-3,2,21,-53,-27,-5,1.070100744
16.098663,12,-26,-5,-9,-21,10,-11,-3,1.070100744
16.098698,-15,9,-1,-1,4,1,2,-21,1.070100744
16.110822,1,-18,-2,-2,9,17,29,49,1.070100744
16.110838,3,11,5,10,-30,-11,13,-6,1.070100744
16.121754,-17,6,0,-9,-33,-17,-11,-30,1.070100744
16.121761,2,18,-3,6,40,35,-5,40,1.070100744
16.135048,-14,-21,-3,-5,1,-63,-7,-17,1.070100744
16.135081,49,-6,-5,-11,-4,14,7,9,1.070100744
16.137050,-20,8,0,6,-4,9,5,-16,1.070100744
16.137063,11,-5,1,-8,-11,-1,0,-7,1.070100744
16.157879,-7,7,7,10,-9,23,2,15,1.070100744
16.157895,-50,-6,2,9,21,26,11,27,1.070100744
16.166229,41,-18,-3,0,30,-35,-13,-30,1.070100744
16.166242,-11,9,-4,-17,-60,-11,-10,33,1.070100744
16.170977,22,8,1,26,127,76,8,24,1.070100744
16.171003,12,-17,0,-14,-87,-45,6,-26,1.070100744
16.180617,21,24,-1,3,10,21,1,12,1.070100744
16.180629,-19,-2,-1,-5,1,-15,-6,7,1.070100744
16.194635,10,-1,-4,-6,-20,2,-18,-5,1.070100744
16.194656,-30,5,3,6,-10,6,-1,7,1.070100744
16.196325,-25,-23,1,4,16,16,4,18,1.070100744
16.196339,20,9,-5,-28,-32,-17,-1,-31,1.070100744
16.217550,9,-17,-2,9,-28,-20,-9,2,1.070100744
16.217583,-9,20,-2,6,79,-21,-2,20,1.070100744
16.219961,-31,-24,6,9,-10,2,-1,-12,1.070100744
16.219968,-36,5,2,-29,-47,-47,-8,-36,1.070100744
16.231008,-13,15,-9,24,35,82,-7,-6,1.070100744
16.231026,75,-22,-8,-18,-45,-9,-4,-12,1.070100744
16.241744,2,-10,-7,-9,5,-17,1,-7,1.070100744
16.241757,3,-14,3,10,1,11,10,-8,1.070100744
16.254972,-35,-3,2,-1,-16,-14,3,-2,1.070100744
16.255023,-19,-2,3,7,23,-20,-1,-10,1.070100744
16.256256,22,16,-5,1,-27,12,3,66,1.070100744
16.256333,-18,-3,-1,3,24,8,2,-6,1.070100744
16.277176,22,7,-2,-7,-14,-24,5,25,1.070100744
16.277198,-19,-13,3,6,18,15,-3,22,1.070100744
16.278737,14,13,2,-6,-10,-3,-7,8,1.070100744
16.278824,10,-25,1,8,20,11,0,13,1.070100744
16.290976,-30,13,-3,-10,14,-14,2,-37,1.070100744
16.291006,-23,-6,3,1,-83,6,5,36,1.070100744
16.299700,28,5,-6,3,51,-10,-16,-13,1.070100744
16.299713,13,1,-3,-17,-5,57,21,-1,1.070100744
16.317020,-6,-11,3,2,9,-13,-2,20,1.061227069
16.317031,31,12,-3,-19,-77,-25,-10,-34,1.061227069
16.317034,-15,-1,-1,18,70,31,14,6,1.061227069
16.317036,16,12,2,6,11,-8,6,7,1.061227069
16.337643,-10,-29,-1,-8,-12,-14,-7,8,1.061227069
16.337674,-12,-3,6,9,57,19,7,38,1.061227069
16.339369,-1,1,-4,-6,-89,-22,-4,22,1.061227069
16.339375,38,-10,1,8,12,-1,1,60,1.061227069
16.351291,-4,7,2,-5,-39,21,-15,71,1.061227069
16.351315,-39,7,-2,0,55,-22,15,-44,1.061227069
16.361207,-6,26,-2,0,17,-11,-29,-47,1.061227069
16.361217,20,4,-5,-7,-45,9,-9,5,1.061227069
16.374936,-3,-19,-8,-13,-44,-52,-11,-23,1.061227069
16.374967,-33,0,2,10,32,7,4,0,1.061227069
16.376943,-13,-8,3,-13,-28,71,15,16,1.061227069
16.376956,19,10,2,10,19,-9,0,-11,1.061227069
16.397253,41,30,2,-2,-27,3,1,-27,1.061227069
16.397270,-35,-25,-4,0,17,13,-18,-32,1.061227069
16.398741,-27,2,1,5,2,-60,11,41,1.061227069
16.398758,-15,0,2,3,-43,13,-9,-47,1.061227069
16.419951,2,-2,-4,-6,33,-44,-3,-1,1.061227069
16.419969,1,-5,1,16,62,24,-17,10,1.061227069
16.421997,62,1,-10,-12,-6,-3,-6,1,1.061227069
16.422014,-16,-11,-2,2,-23,-19,12,34,1.061227069
16.434677,0,22,2,-1,-5,-18,-7,6,1.061227069
16.434708,2,13,4,-8,-52,21,34,-28,1.061227069
16.442543,-51,-11,5,17,60,-7,-39,-18,1.061227069
16.442569,5,20,-6,-14,1,-10,-3,-62,1.061227069
16.457161,75,0,-6,0,18,29,11,14,1.061227069
16.457191,-65,15,-3,-11,-16,-10,1,0,1.061227069
16.458946,-10,-30,2,4,-24,8,5,-23,1.061227069
16.458964,2,13,7,23,31,-25,-4,20,1.061227069
16.480259,-20,-5,1,-22,-38,56,3,-1,1.061227069
16.480291,35,6,-4,-1,28,14,-5,-12,1.061227069
16.482135,-16,1,-3,-8,63,-27,0,22,1.061227069
16.482142,43,-17,-6,3,9,-20,-8,7,1.061227069
16.494086,-22,-4,7,7,15,29,22,-35,1.061227069
16.494111,-23,-30,-8,4,-28,42,3,31,1.061227069
16.503262,32,5,0,-8,-30,-32,-35,-28,1.061227069
16.503269,3,-32,-7,-12,21,-6,2,-12,1.061227069
16.520010,-39,5,-3,6,-9,-9,-4,-29,1.061227069
16.520018,14,-1,0,1,8,-3,1,0,1.061227069
16.520021,-14,-31,0,0,-34,9,28,-2,1.061227069
16.520024,-26,17,-1,-1,-10,10,-6,-34,1.061227069
16.539979,20,7,3,-16,-45,-9,1,9,1.061227069
16.540080,14,2,4,30,92,-19,-13,-2,1.061227069
16.542612,-16,-31,-5,-19,-38,40,0,-9,1.061227069
16.542624,-7,-2,1,14,25,-19,-4,9,1.061227069
16.554520,-16,-1,3,2,72,16,8,-7,1.061227069
16.554544,-9,-11,3,3,-53,3,7,-2,1.061227069
16.560770,-15,-1,-5,-17,-22,5,4,4,1.040442205
16.560788,22,16,-10,-22,-9,8,-1,9,1.040442205
16.577126,30,-11,-7,5,9,-14,-5,14,1.040442205
16.577143,16,15,5,4,-36,-10,-4,5,1.040442205
16.579171,-34,15,7,15,29,2,9,16,1.040442205
16.579191,-1,-15,1,-2,-11,-18,0,4,1.040442205
16.599638,-1,-12,-3,-8,-15,16,-8,-3,1.040442205
16.599672,63,24,-6,-6,30,-35,6,-15,1.040442205
16.601308,-19,-18,-2,-3,-4,6,0,-32,1.040442205
16.601334,-34,6,0,6,35,-12,-7,4,1.040442205
16.613950,-12,5,1,-6,-19,3,-4,1,1.040442205
16.613969,1,-3,-4,-13,-6,9,-7,-5,1.040442205
16.620731,14,22,2,5,6,-16,10,32,1.040442205
16.620747,5,-15,5,1,-39,26,11,-5,1.040442205
16.637650,1,1,5,36,-14,-29,-20,18,1.040442205
16.637682,-14,-21,-10,-36,-9,41,-23,6,1.040442205
16.640448,27,-1,-3,-22,-95,-34,0,11,1.040442205
16.640467,9,-25,-7,21,41,4,-12,-72,1.040442205
16.659646,-12,12,1,3,0,19,13,9,1.040442205
16.659661,11,-10,1,9,8,-20,-3,-6,1.040442205
16.661174,8,27,4,0,9,16,-3,21,1.040442205
16.661305,-16,13,4,-9,-50,3,7,22,1.040442205
16.674738,-28,3,3,23,79,-25,-1,-33,1.040442205
16.674751,6,-34,-14,-31,-13,17,-13,-12,1.040442205
16.690982,-22,19,-4,2,15,-5,4,-23,1.040442205
16.690998,-6,21,-5,-13,-7,-2,-1,17,1.040442205
16.697475,4,-38,-5,0,-23,-11,-2,-24,1.040442205
16.697498,-21,10,6,7,7,3,2,26,1.040442205
16.699420,15,-10,-1,3,-11,-8,-1,5,1.040442205
16.699426,-23,-2,2,0,8,7,-2,-35,1.040442205
16.721814,-4,14,3,-10,-40,1,-9,9,1.040442205
16.721824,-13,13,4,18,35,50,10,-34,1.040442205
16.721827,65,-22,-6,-5,28,11,-10,13,1.040442205
16.721830,-55,-38,3,4,8,-17,-2,14,1.040442205
16.734361,5,9,-6,-6,-2,-20,1,-14,1.040442205
16.734393,-41,30,-6,-25,6,10,-15,18,1.040442205
16.740965,-16,-7,1,3,5,-11,10,4,1.040442205
16.740984,55,24,0,6,46,22,-4,97,1.040442205
16.757739,-13,-3,-2,-13,-20,-13,12,11,1.040442205
16.757779,6,-2,4,14,-22,-33,3,0,1.040442205
16.759984,-10,17,1,-4,-12,-10,-4,-20,1.040442205
16.760003,-5,8,-2,-9,-6,-10,1,-9,1.040442205
16.779709,-3,-7,-3,2,0,4,-4,5,1.040442205
16.779727,9,-1,0,3,-8,-26,1,9,1.040442205
16.781097,8,5,0,2,10,6,1,9,1.040442205
16.781107,-9,-8,-3,-5,-9,6,-1,-6,1.040442205
16.793977,11,2,0,2,14,15,3,17,1.040442205
16.793995,6,-12,1,1,-18,-21,-2,-11,1.040442205
16.801299,-4,-17,0,-1,-13,0,1,5,1.040442205
16.801330,-12,48,2,8,6,19,-4,32,1.040442205
16.817803,13,-58,-4,-19,-50,18,5,8,1.015578790
16.817830,-24,14,-6,-1,-19,-66,-19,-19,1.015578790
16.818865,44,-15,-5,1,-33,-7,1,-26,1.015578790
16.818883,15,4,-4,-7,43,-3,-2,4,1.015578790
16.840220,-12,11,0,-2,4,12,-5,0,1.015578790
16.840241,-10,-28,2,-12,-31,5,15,13,1.015578790
16.842707,-24,-4,1,37,40,-3,-3,-4,1.015578790
16.842720,6,-6,2,-4,-3,-69,1,-34,1.015578790
16.854040,-13,7,-4,-8,-44,7,7,9,1.015578790
16.854072,22,-7,1,-4,52,35,0,13,1.015578790
16.860822,-29,20,0,17,-31,-18,14,-69,1.015578790
16.860846,14,-3,0,-8,41,-2,-6,58,1.015578790
16.877123,-21,6,8,6,-20,6,-1,0,1.015578790
16.877142,17,20,-2,7,65,21,3,-18,1.015578790
16.878657,24,0,-6,-30,-37,-7,-20,-9,1.015578790
16.878667,-39,-13,0,3,-7,13,6,-37,1.015578790
16.899649,7,-6,-2,-1,-12,-13,2,-5,1.015578790
16.899668,1,21,3,8,-20,-2,-1,-12,1.015578790
16.901837,17,-4,4,0,26,27,-6,-24,1.015578790
16.901844,-50,-39,-4,1,-23,1,-1,-42,1.015578790
16.913337,24,32,-3,-3,28,-7,-5,22,1.015578790
16.913355,-24,-7,-1,1,-12,-8,-5,-1,1.015578790
16.924195,7,-15,-4,-3,29,-2,3,39,1.015578790
16.924213,9,-4,-1,-6,-37,-13,5,-2,1.015578790
16.937854,7,6,2,-2,17,0,1,-17,1.015578790
16.937897,7,-9,1,21,2,-37,1,20,1.015578790
16.940138,3,21,4,-8,-72,7,-2,14,1.015578790
16.940151,2,-2,-5,-13,-16,1,-7,5,1.015578790
16.967702,3,2,-1,-13,54,35,-6,13,1.015578790
16.967733,10,2,2,10,-53,-51,-3,-45,1.015578790
16.969965,-11,12,5,8,5,-16,-10,35,1.015578790
16.969977,35,2,-3,-5,22,30,-6,3,1.015578790
16.974007,-33,-14,-5,-11,-4,-15,4,-10,1.015578790
16.974030,-11,14,2,-10,-23,9,0,-7,1.015578790
16.982376,-29,19,2,8,69,8,7,-4,1.015578790
16.982473,4,11,-3,-9,-46,-21,-2,-28,1.015578790
16.997637,32,-2,-3,4,14,-10,-8,-10,1.015578790
16.997655,-16,1,3,1,18,24,5,25,1.015578790
16.999153,-15,-43,-5,-11,-15,3,-8,-16,1.015578790
16.999231,35,-9,-6,3,37,21,-9,18,1.015578790
17.019917,-9,17,5,9,-9,-18,14,20,1.015578790
17.019942,2,-51,-4,2,-2,-80,-5,-9,1.015578790
17.021286,-13,11,4,-35,-54,30,2,15,1.015578790
17.023075,2,5,7,38,1,-19,17,5,1.015578790
17.033189,-17,-2,2,0,77,19,-19,-4,1.015578790
17.033230,8,-15,-10,-13,11,12,8,-16,1.015578790
17.043776,-5,15,-7,-15,-42,17,4,9,1.015578790
17.043787,0,27,1,-12,-59,-28,-1,-1,1.015578790
17.057570,23,-9,-2,13,14,-5,-7,30,1.015578790
17.057602,17,3,-1,-7,9,25,3,38,1.015578790
17.060135,-27,5,2,15,55,-2,5,10,1.015578790
17.060147,44,25,1,-2,31,26,-7,15,1.015578790
17.079687,-31,-27,-4,-12,-47,11,4,-16,1.022465016
17.079699,-4,-12,-2,22,19,-11,-14,-11,1.022465016
17.081298,15,-18,-3,4,9,-16,-6,-4,1.022465016
17.081305,-23,-9,3,7,49,18,-3,3,1.022465016
17.093973,26,21,1,-11,-68,-42,-6,-3,1.022465016
17.093986,-14,10,-5,-24,-9,81,4,9,1.022465016
17.103998,-21,-8,1,19,21,-57,-3,10,1.022465016
17.104005,1,-26,-11,-4,72,34,-3,-71,1.022465016
17.117141,-5,15,-6,-1,20,-52,1,25,1.022465016
17.117173,-1,14,1,-9,5,11,17,7,1.022465016
17.118793,17,6,0,8,4,-5,-20,-6,1.022465016
17.118804,-49,-7,6,-7,-40,15,6,9,1.022465016
17.142065,41,-17,-4,33,40,-54,-6,-33,1.022465016
17.142078,13,-8,-1,-10,-6,60,-5,31,1.022465016
17.142081,39,-10,-7,-12,-26,2,7,-2,1.022465016
17.142084,-3,21,-4,-5,-56,-12,-4,18,1.022465016
17.153743,-43,-12,1,-17,-54,11,4,-53,1.022465016
17.153775,8,6,2,33,59,-17,-16,-33,1.022465016
17.162984,0,20,-2,-4,-25,51,8,-2,1.022465016
17.163000,-12,-18,3,-9,-10,-28,-12,35,1.022465016
17.177116,21,24,-3,-2,-22,10,12,6,1.022465016
17.177134,19,2,-3,-18,-9,48,-4,-1,1.022465016
17.178765,-6,-1,0,25,37,-42,-4,-2,1.022465016
17.180344,-18,8,-5,-4,-20,-18,-9,-7,1.022465016
17.199636,-17,0,4,1,50,-12,-2,5,1.022465016
17.199652,20,22,-1,-2,-60,17,18,-10,1.022465016
17.201311,10,-20,-4,-9,41,9,-6,17,1.022465016
17.201325,-23,-11,-3,-16,-88,-8,1,-13,1.022465016
17.213887,18,15,-6,13,-20,17,-6,45,1.022465016
17.213918,5,-7,-3,-4,-28,-28,5,0,1.022465016
17.224419,-13,9,9,1,17,13,8,-23,1.022465016
17.224436,25,31,-1,7,34,2,8,51,1.022465016
17.244661,9,-8,1,-11,-23,28,-7,-11,1.022465016
17.244681,12,-13,1,-27,-18,4,13,25,1.022465016
17.246280,-54,-13,-3,27,27,-61,-24,-78,1.022465016
17.246295,38,-20,-9,5,60,87,10,-4,1.022465016
17.259575,1,1,8,10,29,-43,3,-47,1.022465016
17.259593,-19,-5,4,-8,-41,10,-1,60,1.022465016
17.261231,7,0,-9,-22,-27,6,19,-15,1.022465016
17.261243,20,8,-3,-13,-20,-21,-33,-9,1.022465016
17.273450,-5,-9,3,17,26,69,-6,14,1.022465016
17.273476,-14,31,6,7,5,-38,-3,-64,1.022465016
17.282749,-48,-19,5,0,-20,32,-1,21,1.022465016
17.282761,51,-10,-1,1,9,-43,-12,-58,1.022465016
17.298557,-16,-4,-5,-8,-25,-23,-8,9,1.022465016
17.298568,4,1,-4,-2,9,-43,-14,3,1.022465016
17.303579,9,5,1,-15,12,18,2,-17,1.022465016
17.303595,1,30,4,1,-36,-12,-1,24,1.022465016
17.320075,-37,-8,-3,13,45,40,1,-9,1.022465016
17.320106,1,14,-9,-11,45,15,-6,-10,1.022465016
17.322451,24,-1,-3,-23,-36,10,-6,-10,1.022465016
17.322457,-59,-14,3,11,-14,-2,5,-13,1.022465016
17.342258,47,-6,-9,-18,-35,-16,7,15,1.048811132
17.342283,-43,-6,-3,12,19,-6,-19,14,1.048811132
17.343876,1,3,0,0,-17,-5,-1,34,1.048811132
17.343891,-24,-12,-1,-7,3,9,3,4,1.048811132
17.357547,-2,13,0,2,-2,22,18,-25,1.048811132
17.357581,35,-25,0,-2,0,-27,-12,2,1.048811132
17.359584,13,-3,-1,30,28,-17,4,8,1.048811132
17.359596,-107,-31,-2,-5,42,20,14,5,1.048811132
17.379745,1,-2,-5,-14,-20,-18,-9,-8,1.048811132
17.379769,55,-18,-8,-2,-17,-9,-3,24,1.048811132
17.381376,-23,15,-1,-5,17,24,-13,-3,1.048811132
17.381401,30,-6,-2,-8,-32,-38,32,69,1.048811132
17.402533,-24,14,5,8,39,8,-18,-45,1.048811132
17.402568,-11,3,1,-3,-16,-20,-2,5,1.048811132
17.403795,0,6,0,1,-17,1,-2,8,1.048811132
17.403808,-93,32,9,10,-1,6,-7,2,1.048811132
17.417506,95,-37,-16,-20,-16,-9,8,0,1.048811132
17.417538,-33,14,4,13,34,7,-19,-26,1.048811132
17.419395,15,-10,-2,-13,-12,-58,-5,15,1.048811132
17.419405,-7,-4,0,11,66,40,-9,-21,1.048811132
17.439562,-38,2,4,-7,-36,29,16,22,1.048811132
17.439573,-7,4,0,6,23,-50,-10,-28,1.048811132
17.441326,24,4,-1,-9,-24,11,21,-4,1.048811132
17.441345,20,0,1,2,-1,-9,-9,-22,1.048811132
17.462332,9,-13,2,10,-15,-41,-10,17,1.048811132
17.462358,-7,7,0,-5,24,94,11,-35,1.048811132
17.463699,-9,11,0,-16,-1,-64,-17,13,1.048811132
17.463714,36,-39,-7,4,-33,-7,-7,-43,1.048811132
17.476537,20,-4,-5,-5,69,36,13,11,1.048811132
17.476572,-31,-5,3,-7,-77,-18,-4,-5,1.048811132
17.483721,1,15,5,43,56,18,11,-3,1.048811132
17.483742,-3,3,-2,-10,41,25,-6,24,1.048811132
17.500865,-18,35,2,-11,-9,-6,-9,11,1.048811132
17.500882,-9,-47,-5,-1,2,-12,3,10,1.048811132
17.501058,3,0,1,4,-17,5,12,16,1.048811132
17.501066,45,13,-1,-2,-21,-11,-8,17,1.048811132
17.522377,-20,2,0,8,-6,2,-11,-54,1.048811132
17.522396,2,15,1,3,1,-21,20,92,1.048811132
17.524115,-79,-14,-2,-1,-3,22,-12,-25,1.048811132
17.524130,38,-36,-4,-14,0,-13,-11,-16,1.048811132
17.537363,-3,3,-4,-1,24,-45,-14,-7,1.048811132
17.537442,11,17,-5,-4,-56,37,22,24,1.048811132
17.543371,-12,-14,-1,-8,-8,3,-20,-4,1.048811132
17.543388,7,8,1,-14,17,-18,5,-23,1.048811132
17.559935,-35,-5,2,11,-13,45,-9,25,1.048811132
17.559960,1,-2,2,8,44,-46,-7,-26,1.048811132
17.561764,25,9,-1,-5,-8,36,8,8,1.048811132
17.561777,-4,6,3,12,-9,31,14,11,1.048811132
17.582510,-6,-2,1,-10,18,-38,6,7,1.048811132
17.582534,-22,-37,-2,-1,-18,66,7,-3,1.048811132
17.585197,43,-23,-12,-23,-10,-6,-15,-9,1.040356579
17.585206,67,-6,-4,16,-59,-14,-6,-31,1.040356579
17.604651,-66,16,2,-5,-15,-2,0,7,1.040356579
17.604674,5,35,4,7,42,-10,-11,-3,1.040356579
17.607724,-2,-14,0,2,0,56,11,32,1.040356579
17.607742,-14,12,3,1,-2,-30,5,-4,1.040356579
17.619644,15,-22,-6,-22,-24,9,6,-1,1.040356579
17.619667,-21,1,-5,28,-9,-6,1,-8,1.040356579
17.621235,-15,-7,-1,-5,-26,-24,10,-71,1.040356579
17.621246,-9,16,3,7,12,-9,-3,2,1.040356579
17.642431,31,-16,-1,-10,-41,-24,-7,14,1.040356579
17.642444,19,-12,-11,-22,40,6,2,-17,1.040356579
17.643966,4,12,-2,-1,21,23,31,43,1.040356579
17.643984,-28,-22,-4,-1,-8,16,-35,-23,1.040356579
17.656509,-9,6,5,9,-36,-3,-1,20,1.040356579
17.656523,-29,-42,-1,-7,-52,-31,-10,-43,1.040356579
17.663491,6,4,-2,-2,25,10,-17,-15,1.040356579
17.663518,14,-1,2,-5,13,-2,11,34,1.040356579
17.679725,-29,4,2,11,27,68,-1,-6,1.040356579
17.679743,17,3,-3,-11,-17,-88,-5,15,1.040356579
17.681112,-28,2,0,17,-4,34,-9,46,1.040356579
17.681122,-24,14,2,-6,12,-7,-12,2,1.040356579
17.704392,40,-27,-1,2,-32,7,5,-9,1.040356579
17.704408,1,9,-2,3,77,-36,-1,2,1.040356579
17.704412,2,12,1,-2,-50,-51,-1,-9,1.040356579
17.704415,-5,-4,-4,-8,40,51,23,-7,1.040356579
17.716621,4,18,-1,0,-15,-13,5,10,1.040356579
17.716664,-3,-1,2,-7,-55,3,-12,-10,1.040356579
17.723612,38,-16,1,-2,-3,-32,-6,4,1.040356579
17.723638,-59,10,1,8,-51,64,26,29,1.040356579
17.739935,-5,32,-7,-8,52,-65,-8,18,1.040356579
17.739965,11,-27,-9,-9,-30,18,-1,-19,1.040356579
17.742449,-10,21,1,6,11,-1,-6,14,1.040356579
17.742461,39,-22,-1,-7,-37,-42,3,-15,1.040356579
17.762554,-25,26,2,3,8,14,2,-10,1.040356579
17.764719,-37,16,2,6,-5,-2,-18,-29,1.040356579
17.764731,61,-27,-6,-6,25,-15,7,-20,1.040356579
17.764734,-7,-2,1,15,18,16,-11,24,1.040356579
17.776502,28,-16,-6,-19,23,-79,2,-8,1.040356579
17.776527,20,0,2,-2,11,35,11,12,1.040356579
17.783730,-23,20,1,-9,-2,7,11,-13,1.040356579
17.783763,-10,11,-1,1,-3,-9,-2,-18,1.040356579
17.799618,-13,-22,3,12,28,31,6,-8,1.040356579
17.799666,28,30,5,-5,-65,-26,4,22,1.040356579
17.801152,0,-10,-2,0,66,76,-22,-17,1.040356579
17.801232,14,-4,-6,15,-44,-107,2,-4,1.040356579
17.822231,-54,-37,-3,-11,-26,13,-4,-9,1.040356579
17.822254,38,-4,-4,5,15,3,4,25,1.040356579
17.825427,7,-4,1,2,-24,1,9,39,1.040356579
17.825441,-2,10,-4,-13,8,-9,-6,-9,1.040356579
17.836057,1,-19,-1,5,4,30,-10,-31,1.040356579
17.836081,-8,21,0,-1,-23,-34,9,-11,1.040356579
17.844714,-6,10,2,5,-8,-23,-9,-6,1.047224779
17.844736,13,-29,-5,-18,-16,-16,-10,9,1.047224779
17.860272,7,6,1,6,-31,-2,15,8,1.047224779
17.860284,-63,1,4,4,8,12,-10,-22,1.047224779
17.861177,59,35,-7,-11,38,-23,-9,-3,1.047224779
17.861189,-15,-9,3,-4,-69,12,9,-18,1.047224779
17.882431,-30,-9,-5,16,70,30,-14,22,1.047224779
17.882462,0,-11,0,-11,1,3,-17,0,1.047224779
17.884448,-32,-4,-3,-8,-31,-20,-5,-16,1.047224779
17.884453,14,-15,0,8,1,5,18,7,1.047224779
17.896162,11,0,4,-7,-1,-18,-17,-3,1.047224779
17.896188,28,-3,-3,-3,16,8,-1,11,1.047224779
17.907675,-2,-10,-1,5,-3,18,12,13,1.047224779
17.907692,25,-1,0,-10,43,10,-12,24,1.047224779
17.920358,-31,-3,-4,1,-56,-5,0,25,1.047224779
17.920390,-11,-3,1,9,19,18,7,2,1.047224779
17.922762,-14,2,2,-7,-42,-13,-4,-1,1.047224779
17.922772,-10,8,-3,-1,15,5,-6,-32,1.047224779
17.942254,29,7,5,2,-3,-20,1,-30,1.047224779
17.942282,9,17,3,12,11,-5,9,31,1.047224779
17.943722,-34,-37,-8,-35,-47,-31,-2,-13,1.047224779
17.945312,-48,22,4,17,19,5,7,-5,1.047224779
17.955845,84,-39,-10,-6,-15,-4,-5,-46,1.047224779
17.955855,14,15,1,0,-18,-19,-12,8,1.047224779
17.964795,-15,-1,3,3,17,22,-1,-6,1.047224779
17.964802,22,-11,1,-8,12,-21,-3,4,1.047224779
17.980102,-33,60,5,13,14,14,11,21,1.047224779
17.980120,-1,-10,4,-3,18,8,1,-17,1.047224779
17.982097,-23,0,-5,-1,-55,6,1,-9,1.047224779
17.982104,22,-1,-3,-11,-9,6,-2,13,1.047224779
18.002098,18,14,-1,-3,16,5,6,39,1.047224779
18.002133,3,-13,-2,0,-2,3,-3,-37,1.047224779
18.003727,-20,8,5,21,-50,-3,5,-20,1.047224779
18.003795,2,20,-5,-9,19,2,-22,-23,1.047224779
18.015995,-29,0,3,-3,-15,-20,-11,1,1.047224779
18.016005,74,-36,-7,-23,-6,90,15,-13,1.047224779
18.026801,9,27,0,24,-3,-27,9,-15,1.047224779
18.026823,-32,-30,2,25,30,7,-16,-10,1.047224779
18.039904,11,14,-1,-3,35,-14,-4,11,1.047224779
18.039971,-46,7,-2,-1,-15,-8,-6,14,1.047224779
18.043182,27,-7,-1,7,60,-20,-6,-1,1.047224779
18.043194,19,-10,-8,-29,-77,-10,-8,-37,1.047224779
18.062161,-73,-22,-1,-2,-29,9,3,9,1.047224779
18.062180,8,-6,-2,5,1,-19,2,25,1.047224779
18.063830,-11,0,0,-6,19,14,-2,-2,1.047224779
18.063850,-8,3,1,6,-27,4,7,23,1.047224779
18.077193,23,-12,-5,-13,28,-11,-1,-70,1.047224779
18.077211,-26,6,-1,11,-27,-2,-8,8,1.047224779
18.086683,-4,-11,-5,-10,13,-53,-8,4,1.047224779
18.086690,-13,30,3,1,18,14,2,33,1.047224779
18.109445,32,2,-1,-3,-38,21,21,8,1.040856823
18.109459,-17,-21,1,5,6,-11,-6,4,1.040856823
18.109463,3,1,2,0,30,-3,-8,8,1.040856823
18.109465,4,3,3,4,-5,-3,7,-10,1.040856823
18.124461,-14,3,-5,3,8,-4,-2,6,1.040856823
18.124476,56,-1,-4,-16,-13,35,-9,-13,1.040856823
18.124479,13,-1,-2,-7,-21,-52,-2,15,1.040856823
18.124482,14,-15,-3,-2,40,-6,8,-15,1.040856823
18.136320,-11,-12,2,3,-30,36,-9,18,1.040856823
18.136349,-26,23,-1,8,15,-27,-20,-22,1.040856823
18.144798,-8,-16,2,-2,-8,38,10,17,1.040856823
18.144818,-28,11,-3,0,-10,-6,3,1,1.040856823
18.159606,55,-10,-2,-3,-22,4,-7,-15,1.040856823
18.159673,-8,7,-5,-8,8,-49,14,19,1.040856823
18.161458,32,-21,-4,-2,-33,5,4,11,1.040856823
18.161470,-32,10,4,4,5,18,13,38,1.040856823
18.182073,-14,2,2,-5,21,18,-39,18,1.040856823
18.182089,-11,-18,-4,-2,-28,-3,-5,22,1.040856823
18.183922,-5,-8,-1,-2,60,3,-10,-1,1.040856823
18.183978,23,-9,-2,-4,-18,-5,7,17,1.040856823
18.195959,-1,14,0,5,10,-14,10,-30,1.040856823
18.195990,-26,16,2,-2,-34,4,4,-4,1.040856823
18.206108,-18,3,0,19,39,50,0,39,1.040856823
18.206114,-5,-6,-9,-23,40,-38,-14,-8,1.040856823
18.219622,13,19,2,17,-35,-6,17,8,1.040856823
18.219658,-5,-41,-7,-8,22,-6,-7,-79,1.040856823
18.221316,-26,0,0,-2,-14,-13,13,28,1.040856823
18.221638,2,6,-1,-9,-47,35,-1,-18,1.040856823
18.242257,-5,9,-3,-4,21,2,1,35,1.040856823
18.242282,-1,12,4,5,-15,2,21,-2,1.040856823
18.244475,11,19,5,-19,-19,-25,1,-28,1.040856823
18.244488,-13,-23,-3,14,74,-22,-48,29,1.040856823
18.264712,80,-35,-11,-14,9,-41,8,-4,1.040856823
18.264734,3,23,-1,5,33,72,0,11,1.040856823
18.266052,27,-7,-1,-8,-45,-8,0,-38,1.040856823
18.266075,-50,15,0,3,-12,-6,-10,-47,1.040856823
18.279994,-16,-12,1,-6,-27,8,4,-20,1.040856823
18.280014,-2,12,0,2,63,-22,6,14,1.040856823
18.281376,-9,12,-3,4,12,57,5,9,1.040856823
18.281385,34,-9,1,-1,-28,-42,12,-8,1.040856823
18.302457,-16,7,2,9,-1,-14,-4,19,1.040856823
18.302489,9,-6,3,-6,-10,-8,-2,-8,1.040856823
18.304376,-33,-4,-2,26,97,31,-13,-33,1.040856823
18.304383,6,16,1,-49,-10,-57,-6,59,1.040856823
18.326454,14,-29,-7,19,-48,52,1,-14,1.040856823
18.326468,-35,14,-8,-11,-36,-11,1,23,1.040856823
18.326472,2,-24,-6,-7,7,26,-14,4,1.040856823
18.326476,7,3,1,23,24,29,22,-22,1.040856823
18.342038,-6,14,3,-9,-5,5,11,8,1.040856823
18.342051,20,-3,1,-1,-12,-4,-4,-2,1.040856823
18.342054,4,-15,-3,3,-49,-12,-2,-7,1.040856823
18.342056,-12,2,1,5,3,23,3,-8,1.040856823
18.362203,-13,13,0,-8,0,-5,-5,9,1.041280450
18.362228,-4,-20,-1,11,15,4,2,6,1.041280450
18.363770,14,15,-1,-11,-12,-25,-2,0,1.041280450
18.363799,-61,5,6,10,10,25,5,-24,1.041280450
18.384905,38,-29,-5,-24,-61,-7,-24,-29,1.041280450
18.384937,8,7,-8,27,81,-93,-16,11,1.041280450
18.386512,13,-5,-6,-19,-41,55,9,58,1.041280450
18.386525,0,-3,-5,-3,-37,-3,3,-7,1.041280450
18.399028,-22,9,5,7,15,13,-7,-2,1.041280450
18.399052,-6,-10,7,3,-10,10,3,-7,1.041280450
18.406301,1,42,1,-1,7,-32,-1,-6,1.041280450
18.406332,-41,-24,-1,13,-14,4,-6,-21,1.041280450
18.422094,15,-18,-7,-15,90,-20,5,33,1.041280450
18.422129,76,24,-8,-3,-23,35,-44,37,1.041280450
18.424005,1,-9,-5,-1,-1,5,-5,35,1.041280450
18.424096,40,3,-2,12,30,-29,-27,-21,1.041280450
18.444727,-44,31,2,1,-9,-42,22,8,1.041280450
18.444752,-27,-21,4,-17,-29,14,9,0,1.041280450
18.446583,10,12,0,10,21,-20,-4,-33,1.041280450
18.446598,16,0,-2,3,1,31,4,22,1.041280450
18.459324,-15,-7,3,-4,-13,-7,2,7,1.041280450
18.459353,6,9,-1,9,13,-5,-1,-38,1.041280450
18.465899,-55,-8,2,-1,-38,11,-7,-14,1.041280450
18.465916,86,12,-2,-9,4,10,10,-12,1.041280450
18.482247,-9,-18,-5,-1,8,-23,-10,-35,1.041280450
18.482258,-13,23,-1,-18,-8,24,13,13,1.041280450
18.483828,1,-18,1,8,-35,-39,-21,-11,1.041280450
18.483835,-36,17,1,-10,23,1,5,51,1.041280450
18.504563,2,-5,-3,6,20,25,19,53,1.041280450
18.504575,38,-2,1,-17,-73,-6,19,-1,1.041280450
18.506017,-38,-2,2,6,16,34,-30,-17,1.041280450
18.506023,7,-42,-4,-1,7,-31,-9,-18,1.041280450
18.519646,-1,73,1,4,54,-4,0,-26,1.041280450
18.519685,-25,-24,-1,-8,-55,36,22,19,1.041280450
18.526016,0,18,1,-7,37,-34,4,3,1.041280450
18.526035,13,-15,1,-7,-114,36,-7,-22,1.041280450
18.544040,6,11,0,6,34,9,-8,35,1.041280450
18.544092,9,-25,-6,7,48,-7,-1,-29,1.041280450
18.544095,23,1,-4,-11,-4,-39,3,-17,1.041280450
18.544098,2,9,-2,5,-12,-15,6,-2,1.041280450
18.567437,-18,1,2,0,-6,0,-17,-1,1.041280450
18.567464,-18,11,1,6,8,-14,6,13,1.041280450
18.567468,30,8,2,-1,-12,24,0,13,1.041280450
18.567471,-5,3,4,2,0,6,6,25,1.041280450
18.579075,-37,-14,-1,-4,-10,-5,0,47,1.041280450
18.579096,23,-16,0,-22,30,-42,-14,-31,1.041280450
18.585988,6,-22,-3,11,-24,-20,1,-13,1.041280450
18.586014,-6,10,-4,-5,40,54,11,-14,1.041280450
18.602213,-4,-16,-1,3,-23,-6,-5,-33,1.041280450
18.602234,-32,21,1,-8,1,35,-7,-11,1.041280450
18.603741,-26,-12,4,-1,-18,-15,9,14,1.041280450
18.603761,1,11,0,3,40,-24,-14,30,1.041280450
18.623897,0,-15,0,-4,-36,-2,-2,-49,1.034443800
18.623936,16,-9,-5,9,0,-28,1,21,1.034443800
18.632786,-9,3,1,-5,47,12,4,-7,1.034443800
18.632792,27,-28,-3,-1,-4,-25,10,11,1.034443800
18.638990,16,-9,-2,-4,-18,-11,-10,12,1.034443800
18.640413,-11,0,1,6,24,6,-14,-37,1.034443800
18.645789,2,-1,-1,1,-1,12,12,-9,1.034443800
18.645808,-9,13,1,2,6,12,5,2,1.034443800
18.662135,0,-24,-5,-15,-37,-39,-15,-7,1.034443800
18.662155,-31,4,4,33,10,31,12,81,1.034443800
18.663728,25,3,-7,-7,51,-21,2,-2,1.034443800
18.663746,-8,-7,-2,0,-5,27,-7,5,1.034443800
18.684556,-8,7,-5,-10,4,13,-12,-19,1.034443800
18.684591,-10,10,1,-3,-15,0,9,7,1.034443800
18.686239,26,0,0,3,56,-3,0,-12,1.034443800
18.686260,-17,1,-3,0,8,7,0,-71,1.034443800
18.700295,-2,4,5,9,-39,10,11,2,1.034443800
18.700307,20,-10,-2,-13,-1,-42,-11,-5,1.034443800
18.706039,-7,-13,-9,-16,36,13,3,-16,1.034443800
18.706064,-33,-21,-5,-13,-11,-3,-1,-56,1.034443800
18.722146,2,-8,-2,10,11,7,6,22,1.034443800
18.722169,8,3,1,-11,-18,-13,4,-12,1.034443800
18.724749,-10,6,3,7,-37,-2,-3,16,1.034443800
18.724764,4,0,-1,5,13,-5,-6,15,1.034443800
18.746600,-13,0,3,-8,-25,-3,2,-13,1.034443800
18.746612,-19,-9,-1,6,36,-10,-2,-4,1.034443800
18.746615,-8,3,3,3,-61,1,0,-8,1.034443800
18.746618,-3,-14,3,14,36,-38,11,10,1.034443800
18.758635,26,39,-5,-27,-18,35,1,-46,1.034443800
18.758658,50,-20,-7,21,91,31,-22,0,1.034443800
18.768602,-33,-10,-2,-4,-33,-1,-1,-16,1.034443800
18.768609,22,11,1,-8,-8,-10,16,48,1.034443800
18.782139,-22,17,3,11,12,-6,-2,-16,1.034443800
18.782156,-11,-14,3,0,-15,-8,0,-10,1.034443800
18.784068,4,20,0,-9,15,7,3,1,1.034443800
18.784073,4,4,-1,7,10,3,-19,-7,1.034443800
18.804599,18,-32,-2,1,4,24,14,17,1.034443800
18.804616,-30,1,-2,-11,-38,13,-16,45,1.034443800
18.806406,-5,-9,0,8,20,-24,3,19,1.034443800
18.806427,-1,12,0,-10,-56,-5,7,-11,1.034443800
18.818838,14,0,-2,10,21,44,-4,-4,1.034443800
18.818862,-1,-12,0,-12,-12,-10,9,-10,1.034443800
18.827713,1,22,-2,1,-37,31,-12,-8,1.034443800
18.827725,17,1,-7,-20,-1,-3,-1,21,1.034443800
18.842284,34,14,4,11,9,-43,-11,-16,1.034443800
18.842319,-64,32,3,4,46,-2,14,-74,1.034443800
18.843850,31,-15,-4,2,8,-3,14,54,1.034443800
18.843868,-25,-7,-3,-6,-1,-5,0,-30,1.034443800
18.865172,17,10,1,-11,-7,-18,-7,-6,1.031397277
18.865203,-23,3,-5,8,-88,-20,-3,10,1.031397277
18.867141,16,-17,0,-11,-19,-13,-7,-17,1.031397277
18.867148,-2,30,1,8,12,23,-1,10,1.031397277
18.878896,-21,-8,0,13,89,5,0,2,1.031397277
18.878914,0,0,-4,-9,-45,-25,-16,-48,1.031397277
18.887936,-11,-11,2,0,-16,79,2,10,1.031397277
18.887943,11,-7,-2,2,-31,-93,-2,67,1.031397277
18.902049,-11,-42,-4,-6,-12,22,0,11,1.031397277
18.902058,-9,5,-1,-32,-45,5,0,7,1.031397277
18.903641,-3,3,-2,29,16,-21,-2,-3,1.031397277
18.903674,-9,-10,1,-1,1,30,-10,-15,1.031397277
18.924814,21,40,0,-8,7,-2,15,13,1.031397277
18.924857,-6,-12,0,2,58,-25,-20,13,1.031397277
18.926945,41,5,0,-7,-24,-30,-5,-31,1.031397277
18.926955,-41,-34,-3,4,-34,20,7,31,1.031397277
18.938369,-9,30,-1,-3,-24,-34,-3,-28,1.031397277
18.938400,28,-3,-1,4,57,23,4,64,1.031397277
18.949049,-23,14,2,-5,13,-27,3,6,1.031397277
18.949056,45,-6,3,4,10,64,9,33,1.031397277
18.964725,-75,11,-3,-4,-32,-43,-1,-2,1.031397277
18.964736,-10,-13,1,-3,-27,1,9,-45,1.031397277
18.964740,9,-14,-3,0,22,-22,-7,-14,1.031397277
18.964742,-41,33,8,-14,4,27,-10,-4,1.031397277
18.985177,36,-34,0,40,-6,-15,13,6,1.031397277
18.985206,59,14,-4,0,16,70,-12,15,1.031397277
18.986234,2,-23,-8,-7,8,10,3,-60,1.031397277
18.986318,-19,-25,-6,-10,-44,-28,1,-25,1.031397277
18.998258,-53,-4,1,-19,-26,28,-9,-4,1.031397277
18.998293,4,3,0,26,21,-34,10,-9,1.031397277
19.009391,-19,9,1,-3,1,-22,3,-25,1.031397277
19.009405,25,13,2,-2,29,17,-5,-5,1.031397277
19.022747,15,-8,1,7,24,-1,-7,3,1.031397277
19.022786,-4,-10,-2,-3,-35,-12,9,33,1.031397277
19.025548,-8,8,1,2,-54,-13,5,-12,1.031397277
19.025567,-48,14,5,5,63,9,-7,-65,1.031397277
19.044715,54,-39,-8,-29,-63,11,34,93,1.031397277
19.044769,7,-36,-1,5,-20,-9,-1,-24,1.031397277
19.046265,-13,15,-5,-2,-3,-16,-11,32,1.031397277
19.046283,4,-5,-4,-3,15,23,10,-15,1.031397277
19.066413,-21,3,1,-2,-31,-68,-23,-19,1.031397277
19.066430,-8,11,4,-5,1,21,9,-9,1.031397277
19.068093,4,-2,3,-2,-93,-36,-5,-29,1.031397277
19.068103,23,-13,-3,22,71,20,-7,-6,1.031397277
19.081806,16,40,0,-6,23,-3,-4,-1,1.031397277
19.081835,-36,-28,-3,-5,-4,-38,-6,2,1.031397277
19.084110,-69,-23,0,-3,-26,25,-2,7,1.031397277
19.084116,42,27,-1,-3,-64,-80,-1,-20,1.031397277
19.104215,8,-17,-4,-7,9,-8,11,-21,1.031397277
19.104223,67,5,-10,25,21,71,-7,-49,1.031397277
19.104540,-12,4,2,-15,41,10,-3,32,1.031397277
19.104574,-24,-17,-4,-4,-28,-7,-9,8,1.031397277
19.126637,-18,6,0,5,34,9,-3,17,1.029234064
19.126656,5,30,1,-16,-19,-28,5,24,1.029234064
19.128393,-1,-4,0,13,71,26,5,14,1.029234064
19.128406,44,-3,-4,5,-14,14,-10,-4,1.029234064
19.141555,-34,-6,1,-3,-12,-35,1,-23,1.029234064
19.143551,-43,3,6,-13,5,1,-6,0,1.029234064
19.143564,46,-15,-11,8,72,35,-4,10,1.029234064
19.143567,24,-3,0,6,5,-11,13,-30,1.029234064
19.165617,-23,16,1,5,-5,-33,-38,-9,1.029234064
19.165628,-37,12,0,-8,0,-1,-2,-20,1.029234064
19.165630,-7,4,3,-7,-44,-38,10,83,1.029234064
19.165633,20,-5,-2,-1,-18,-44,-5,-10,1.029234064
19.186754,9,11,1,6,25,16,-2,-28,1.029234064
19.186769,7,9,7,11,10,14,-1,-17,1.029234064
19.188759,36,-1,2,-8,-17,6,-13,67,1.029234064
19.188773,-25,60,-3,-10,-2,3,-8,-8,1.029234064
19.201800,-43,-40,3,5,-16,25,13,29,1.029234064
19.201819,35,0,-7,5,20,-27,-12,23,1.029234064
19.203736,13,-24,-5,-21,-14,34,16,-63,1.029234064
19.203749,-16,-9,-1,7,22,-48,-8,18,1.029234064
19.224256,1,5,3,-4,-10,20,-3,-17,1.029234064
19.224275,-7,-10,-1,22,-13,-24,15,17,1.029234064
19.226539,-33,33,-3,3,66,50,14,-9,1.029234064
19.226558,8,-19,-2,-7,-9,-8,-25,3,1.029234064
19.246778,30,10,-3,-5,-6,31,13,23,1.029234064
19.246804,-10,-21,4,5,34,-15,-5,-10,1.029234064
19.247579,-11,8,-4,-11,-22,-28,-18,-24,1.029234064
19.247606,-8,-27,-2,-2,0,21,6,-24,1.029234064
19.261436,31,-9,-2,-1,20,3,-7,42,1.029234064
19.261453,-31,8,-4,-13,5,-9,-4,-17,1.029234064
19.262963,31,7,6,13,-6,-5,1,-20,1.029234064
19.262981,-35,-1,4,-5,-74,-11,9,23,1.029234064
19.284310,4,-7,-5,6,47,57,-7,-21,1.029234064
19.284341,-4,1,-5,-13,34,-33,7,0,1.029234064
19.285929,-16,-2,6,20,19,9,-1,12,1.029234064
19.285939,46,15,-2,6,15,11,2,14,1.029234064
19.307152,20,-2,-2,-12,-74,-33,-25,-24,1.029234064
19.307177,-25,0,-2,-7,27,71,7,33,1.029234064
19.307254,-5,5,0,-2,-34,-14,2,4,1.029234064
19.307287,24,-19,-7,-10,27,-31,-2,-12,1.029234064
19.321594,5,-6,-2,7,12,-4,14,23,1.029234064
19.321616,1,7,-2,-10,-7,-5,-9,-13,1.029234064
19.323455,18,-21,-1,-4,-52,-32,-8,30,1.029234064
19.323464,-24,15,-3,2,5,27,6,10,1.029234064
19.344199,-9,-7,-2,-5,-7,4,4,-36,1.029234064
19.344219,13,-12,1,-2,-21,-4,-5,36,1.029234064
19.345513,8,21,1,-3,-1,-16,-4,-9,1.029234064
19.345523,-18,15,-2,12,88,37,12,16,1.029234064
19.367511,-18,1,-2,0,15,26,10,81,1.029234064
19.367517,4,-14,1,-20,-67,-84,-4,-8,1.029234064
19.367520,35,46,-11,-6,55,46,2,-15,1.029234064
19.367522,3,-12,2,-7,-7,7,-3,11,1.029234064
19.381429,16,-2,-1,6,38,41,18,-13,1.025939672
19.381453,1,-2,3,7,-54,-5,-12,68,1.025939672
19.383107,3,13,3,2,-42,11,14,35,1.025939672
19.383114,-4,-21,-8,-15,50,-25,-12,-51,1.025939672
19.404024,-9,21,1,-11,-16,-18,-3,-32,1.025939672
19.404056,-26,-9,2,16,-6,22,5,-12,1.025939672
19.407607,-6,-12,-2,-26,-10,-38,-14,-43,1.025939672
19.407626,-7,11,6,37,-38,12,10,46,1.025939672
19.427183,-14,-22,-1,-3,43,1,-8,-14,1.025939672
19.427194,5,3,-7,-16,-53,1,-1,-34,1.025939672
19.427197,-10,-14,-3,-8,-2,-21,-15,4,1.025939672
19.427199,13,0,1,-1,-9,0,6,30,1.025939672
19.444032,6,-9,-3,3,-9,-5,-10,-2,1.025939672
19.444045,0,12,2,2,14,-46,-10,6,1.025939672
19.444047,-1,-34,-7,-1,-4,98,21,-22,1.025939672
19.444050,-7,22,4,-12,-87,-47,-15,8,1.025939672
19.464042,7,-18,-8,3,42,-31,1,0,1.025939672
19.464062,13,24,-5,-16,19,22,-16,-64,1.025939672
19.464581,-16,-18,1,43,31,-30,3,10,1.025939672
19.464596,-9,19,-2,-13,-16,20,-2,-6,1.025939672
19.486758,-20,0,1,-2,-33,7,3,-36,1.025939672
19.486782,4,8,1,6,-37,2,10,-11,1.025939672
19.488764,15,-2,-2,-6,86,-1,-11,32,1.025939672
19.488775,2,-4,0,-3,-12,21,-3,-54,1.025939672
19.501413,-55,-21,-2,1,-7,-19,-1,-3,1.025939672
19.501430,46,-10,-1,4,4,14,5,0,1.025939672
19.503409,-30,5,-1,-2,11,-13,-3,-14,1.025939672
19.503415,-10,-13,1,4,-8,17,-2,9,1.025939672
19.523986,4,18,9,3,17,-96,19,10,1.025939672
19.524011,12,-6,-12,-5,7,76,-56,7,1.025939672
19.524783,-33,-10,0,-8,-27,-53,-2,-6,1.025939672
19.524855,-5,-2,0,-10,-19,-1,11,53,1.025939672
19.546640,4,-1,-1,19,81,0,-16,-2,1.025939672
19.548106,30,8,4,-6,-62,-28,32,34,1.025939672
19.548117,-7,-24,-7,-5,14,4,-8,-19,1.025939672
19.548120,-21,-24,1,11,11,1,-8,22,1.025939672
19.561449,-15,47,0,-19,-72,18,-10,6,1.025939672
19.561475,15,-25,-2,2,39,-6,7,68,1.025939672
19.562846,1,53,-3,-5,8,6,-3,-2,1.025939672
19.562855,12,-17,-1,-7,-2,-21,6,-13,1.025939672
19.585245,-18,-9,-2,4,0,3,-14,3,1.025939672
19.585265,-33,8,-1,-2,23,1,18,-56,1.025939672
19.585270,8,15,5,0,-29,-56,5,-3,1.025939672
19.585275,10,-32,-9,2,37,90,1,-6,1.025939672
19.606696,22,8,1,-6,-18,-45,-10,-2,1.025939672
19.606721,-11,1,-2,-5,-10,73,2,-18,1.025939672
19.609020,-31,-17,0,12,38,22,-9,-6,1.025939672
19.609033,13,3,-4,-9,-35,-25,-12,-21,1.025939672
19.621529,49,-8,-2,-6,-5,56,11,-2,1.025939672
19.621561,-43,-29,-3,3,-25,-77,5,27,1.025939672
19.623937,22,-6,-6,-7,-19,6,3,-9,1.025939672
19.623955,3,-6,0,-21,7,-24,-5,22,1.025939672
19.644136,10,-27,-6,-1,11,-7,-9,-22,1.043312970
19.644188,-44,63,2,3,-59,6,9,29,1.043312970
19.645678,13,-12,1,-23,-26,-1,5,-10,1.043312970
19.645690,-8,13,3,42,48,-2,-14,-17,1.043312970
19.666701,-11,38,1,-3,7,30,5,-11,1.043312970
19.666869,60,-39,-2,2,27,-52,0,18,1.043312970
19.667271,-37,26,0,-15,-23,12,4,2,1.043312970
19.667308,-18,-6,-5,7,25,2,10,-15,1.043312970
19.681402,20,0,-2,-1,-54,-17,-17,-4,1.043312970
19.681420,-8,-15,0,6,41,40,12,-34,1.043312970
19.682074,0,-9,0,2,-30,-28,9,-21,1.043312970
19.682082,9,-2,-5,-14,-13,41,-5,15,1.043312970
19.704628,-16,-11,-4,4,22,4,15,8,1.043312970
19.704660,18,18,2,-6,-11,-31,-30,-4,1.043312970
19.707250,-3,-11,3,15,55,22,-2,-3,1.043312970
19.707265,-1,27,-4,-18,-77,-67,5,-14,1.043312970
19.726716,6,-11,-1,-7,39,25,3,17,1.043312970
19.726730,25,-5,0,-1,27,40,3,-6,1.043312970
19.727246,-15,-1,1,13,6,18,-2,24,1.043312970
19.727260,4,0,-2,2,-3,-38,-6,0,1.043312970
19.741848,-29,-2,2,-7,0,10,-1,-16,1.043312970
19.741862,-2,-4,3,-1,-55,-25,8,-15,1.043312970
19.742211,33,7,-5,9,68,-19,-33,21,1.043312970
19.742227,34,-27,-3,-18,-25,-17,6,1,1.043312970
19.764762,-37,8,-6,-4,-15,7,-4,-11,1.043312970
19.764785,-31,-31,-4,6,37,3,-6,-5,1.043312970
19.773847,-3,12,2,6,-34,-17,12,-6,1.043312970
19.773859,1,8,1,-13,-5,11,2,-10,1.043312970
19.789542,15,6,2,9,-17,-27,-8,-14,1.043312970
19.789550,-13,9,1,-1,27,13,6,11,1.043312970
19.789553,-39,-10,-1,4,-13,15,1,-57,1.043312970
19.789555,-8,0,4,-6,-14,23,-43,13,1.043312970
19.801289,59,-12,-5,-20,-71,-23,10,26,1.043312970
19.801319,-13,32,-7,-14,7,53,1,-37,1.043312970
19.809005,12,-27,-5,-23,-65,-30,-5,-20,1.043312970
19.809023,-32,6,3,31,59,-1,8,-10,1.043312970
19.823952,-19,0,5,7,-1,-3,-7,-2,1.043312970
19.823971,4,8,0,4,-5,6,-1,-12,1.043312970
19.824961,12,-16,0,-7,5,9,-4,12,1.043312970
19.824988,-7,12,-1,0,0,-6,8,-3,1.043312970
19.846443,1,-7,-2,0,1,2,4,28,1.043312970
19.846470,6,4,4,14,13,-17,11,20,1.043312970
19.847879,-47,-21,-1,-8,-14,-8,10,2,1.043312970
19.847891,59,36,-6,2,28,-8,3,39,1.043312970
19.860831,1,-41,-7,-28,24,63,-15,-64,1.043312970
19.860848,10,-2,-1,5,64,-29,-12,14,1.043312970
19.869386,-12,18,1,-4,-35,-29,16,23,1.043312970
19.869412,-17,-6,4,4,13,6,5,6,1.043312970
19.883896,3,16,0,2,-15,14,5,4,1.043312970
19.883931,-18,-9,-1,0,-34,-17,-7,-21,1.043312970
19.884544,-1,0,1,1,12,-3,-18,3,1.043312970
19.884614,-27,-11,0,-2,-7,12,13,19,1.043312970
19.907337,55,3,-1,14,-9,-21,-4,10,1.037427232
19.907370,-57,-20,-4,-3,-11,0,-8,-38,1.037427232
19.907378,45,25,14,28,64,-15,22,98,1.037427232
19.907385,-32,-5,-4,-4,-3,18,-29,-30,1.037427232
19.921154,7,-20,-7,-13,27,-35,22,-5,1.037427232
19.921186,63,-6,-8,-13,-42,23,6,-20,1.037427232
19.929021,2,4,-9,-7,-6,-6,-4,-33,1.037427232
19.929046,-11,-8,6,5,-25,-37,4,-16,1.037427232
19.944919,-15,14,3,9,20,26,-10,20,1.037427232
19.944930,-1,2,1,2,6,-41,14,9,1.037427232
19.944932,4,-22,-2,-9,-36,0,-3,-15,1.037427232
19.944935,9,4,-1,-4,9,3,-3,8,1.037427232
19.966756,-43,-5,1,15,14,-10,-3,-14,1.037427232
19.968050,11,-18,-3,-5,-10,20,9,44,1.037427232
19.968056,-26,17,-4,-23,-40,-5,-12,-7,1.037427232
19.968058,7,-6,-2,17,20,-14,11,-1,1.037427232
19.981056,60,14,-2,-3,-3,10,-30,2,1.037427232
19.981088,-71,-22,0,0,-10,-31,-6,5,1.037427232
19.991278,19,13,-2,-3,-6,35,14,-13,1.037427232
19.991294,-30,-5,1,-8,-63,8,3,2,1.037427232
20.004297,-22,34,3,-4,-10,-57,13,-30,1.037427232
20.004331,1,-11,1,17,89,12,-3,-5,1.037427232
20.006871,12,-10,-1,-7,-30,0,-20,18,1.037427232
20.006883,56,5,-9,-15,8,4,-4,2,1.037427232
