timestamp,emg1,emg2,emg3,emg4,emg5,emg6,emg7,emg8,label
10.004549,-15,-34,-13,-8,-1,-2,-2,-4,-0.011320489
10.004622,3,16,-1,4,0,-1,0,1,-0.011320489
10.004626,4,-5,-9,1,0,-1,-1,0,-0.011320489
10.025942,16,59,24,4,0,0,-1,1,-0.011320489
10.025965,-5,-86,-2,-5,2,0,-1,-2,-0.011320489
10.026747,-17,-7,-13,-4,-4,-1,-1,-3,-0.011320489
10.026763,4,24,6,-1,4,-2,0,1,-0.011320489
10.039937,-1,-24,-8,-3,-2,-2,-2,-3,-0.011320489
10.039951,2,37,5,-2,0,-2,0,0,-0.011320489
10.047938,-2,3,-1,3,-2,0,1,-1,-0.011320489
10.047957,0,-13,-5,-3,0,-1,-1,-3,-0.011320489
10.062859,6,5,1,-1,-1,0,-1,1,-0.011320489
10.062876,4,13,-6,-7,-3,-1,-2,-1,-0.011320489
10.064461,-22,-15,6,1,2,0,-1,0,-0.011320489
10.064469,15,26,0,4,-3,-2,-1,-2,-0.011320489
10.087039,-12,-32,-10,-2,3,-2,0,-2,-0.011320489
10.087052,8,12,-3,-4,0,-1,0,2,-0.011320489
10.087055,0,5,2,-5,-1,0,-3,-3,-0.011320489
10.087058,-23,-23,-1,1,-4,-1,-2,-4,-0.011320489
10.099993,1,-1,3,-3,2,-1,0,2,-0.011320489
10.100025,-3,0,-6,-2,-2,-3,-2,-1,-0.011320489
10.107907,9,23,2,1,1,-1,1,3,-0.011320489
10.107927,2,-7,1,-3,1,0,-1,0,-0.011320489
10.122952,19,-7,-13,-6,-4,-1,-2,0,-0.011320489
10.122984,-34,10,17,6,1,1,0,-3,-0.011320489
10.123738,-10,-7,-7,-2,-2,-1,-2,-3,-0.011320489
10.123855,-19,-11,6,0,2,-1,-1,-1,-0.011320489
10.146023,2,-6,-1,3,-3,-1,0,-2,-0.011320489
10.146047,20,15,0,-1,1,-2,0,3,-0.011320489
10.148355,-6,0,-10,-7,-4,-3,-2,-4,-0.011320489
10.148365,9,-8,-3,-8,1,0,-1,0,-0.011320489
10.159918,-7,23,-9,-6,-2,1,0,-3,-0.011320489
10.159950,-5,-41,-2,8,-1,-1,-2,-2,-0.011320489
10.167992,-1,-21,5,2,1,2,1,1,-0.011320489
10.168018,7,12,0,1,-3,-2,-2,-2,-0.011320489
10.182685,0,3,2,-3,3,-1,-2,0,-0.011320489
10.182694,2,21,-8,-5,-3,-1,2,-1,-0.011320489
10.183527,-8,-6,-4,-5,0,-3,0,-3,-0.011320489
10.183607,-9,12,-4,1,-4,-1,0,0,-0.011320489
10.213950,9,-6,1,0,-1,-2,-2,1,-0.011320489
10.213959,-40,-19,-3,-2,-3,-1,-1,-4,-0.011320489
10.214229,8,-48,-2,2,-1,-1,-1,0,-0.011320489
10.214309,14,-11,-3,-2,-1,-1,-1,-2,-0.011320489
10.219714,-5,-4,-5,5,-1,-1,-2,0,-0.011320489
10.219739,-2,14,4,-6,-1,-1,-1,-1,-0.011320489
10.230296,15,36,-7,-3,-2,-1,0,1,-0.011320489
10.230303,-6,8,12,7,-1,0,0,-3,-0.011320489
10.242741,-12,-10,-6,2,-2,-3,-2,-4,-0.008738159
10.242758,11,-3,2,-1,-2,-1,-1,2,-0.008738159
10.244176,-8,24,-3,1,1,-1,-2,-1,-0.008738159
10.244192,10,-4,-10,-4,-2,-2,-2,-2,-0.008738159
10.266177,1,31,4,2,-2,-1,1,0,-0.008738159
10.266206,-2,-51,4,2,0,-1,-1,-1,-0.008738159
10.268391,9,20,1,-10,-2,1,-1,2,-0.008738159
10.268407,8,16,-2,-1,-2,-1,-1,2,-0.008738159
10.280228,-40,-39,5,6,-2,0,-2,-3,-0.008738159
10.280322,10,24,-4,-1,0,-1,0,-2,-0.008738159
10.287822,12,-5,-7,1,-1,-1,-2,-3,-0.008738159
10.287842,-7,3,3,-6,0,0,-1,1,-0.008738159
10.303093,11,-3,-4,-7,1,0,0,0,-0.008738159
10.303114,20,22,4,0,0,-1,-2,-1,-0.008738159
10.305225,-20,-27,-1,0,1,-2,-1,0,-0.008738159
10.305242,-2,-8,-4,-3,-1,0,-1,0,-0.008738159
10.325957,-2,5,5,-3,-2,-4,-2,-1,-0.008738159
10.326020,0,34,-3,2,-3,-1,-1,0,-0.008738159
10.326653,6,-14,4,1,-2,0,-1,0,-0.008738159
10.326710,4,11,-7,-3,-2,-1,0,-2,-0.008738159
10.339545,15,-6,-1,-6,-2,-1,0,0,-0.008738159
10.339569,-12,-6,-1,4,-2,-1,0,-2,-0.008738159
10.348038,8,15,4,2,-1,-1,-2,0,-0.008738159
10.348057,-5,-14,-6,-4,1,-1,0,-2,-0.008738159
10.362870,17,1,2,3,-2,-1,-1,-1,-0.008738159
10.362896,9,13,-3,-3,-1,0,0,-1,-0.008738159
10.364300,-6,10,-2,-1,-2,0,1,1,-0.008738159
10.364305,-10,-70,0,-3,-1,-1,-2,-2,-0.008738159
10.386045,-3,1,-5,-4,-2,-1,0,-2,-0.008738159
10.386063,-4,9,4,2,1,-1,-1,-1,-0.008738159
10.386716,9,-3,6,3,0,1,0,0,-0.008738159
10.386735,-45,-6,-6,4,-3,-2,-2,-3,-0.008738159
10.408573,-5,21,1,-4,-4,-3,0,1,-0.008738159
10.408595,0,-51,-10,-2,3,0,-2,-1,-0.008738159
10.409564,1,9,1,-6,2,-2,-1,-1,-0.008738159
10.409570,13,24,1,6,-2,-2,0,-2,-0.008738159
10.422792,6,-4,1,2,-1,-1,-2,0,-0.008738159
10.422820,7,26,3,-6,-1,-1,-1,-1,-0.008738159
10.424660,-38,22,-6,-2,-2,0,1,1,-0.008738159
10.424673,20,-65,-3,-9,-1,-2,-2,-3,-0.008738159
10.448094,0,-20,-3,5,-3,-1,0,-2,-0.008738159
10.448106,5,9,2,1,-1,1,0,1,-0.008738159
10.448109,-2,-7,-7,1,0,-3,-1,-2,-0.008738159
10.448111,1,51,1,-5,1,0,1,1,-0.008738159
10.468676,2,-7,0,3,0,1,-2,-1,-0.008738159
10.468704,1,-6,2,-3,-1,-1,1,0,-0.008738159
10.471169,-37,-19,1,-3,-5,-3,-3,-4,-0.008738159
10.471183,10,-20,-4,-1,-4,-3,-2,0,-0.008738159
10.491071,0,6,1,2,3,0,0,-1,-0.016809640
10.491102,-5,-2,-5,-4,0,-2,-2,-1,-0.016809640
10.493062,12,-19,0,0,2,0,0,1,-0.016809640
10.493080,9,15,-1,0,-4,-1,0,1,-0.016809640
10.506217,-4,10,-6,-8,-3,-2,-2,-1,-0.016809640
10.506246,11,1,10,8,2,-2,0,2,-0.016809640
10.507893,-3,15,24,6,2,1,-1,-2,-0.016809640
10.507903,-21,1,3,2,0,0,0,-4,-0.016809640
10.528900,8,-4,-2,1,-1,-1,-1,0,-0.016809640
10.529023,2,11,-8,-4,-4,-2,-2,-3,-0.016809640
10.531144,8,2,-9,-5,-3,-1,-2,-2,-0.016809640
10.531151,14,14,-1,-1,1,1,-1,1,-0.016809640
10.543374,-4,27,1,-3,-1,0,0,-1,-0.016809640
10.543404,0,-64,-5,-4,-1,-2,0,-1,-0.016809640
10.544014,-17,-9,-2,1,-1,0,0,-1,-0.016809640
10.545915,0,21,1,-1,-2,0,-2,-2,-0.016809640
10.566666,4,21,-2,-2,2,-1,-1,-2,-0.016809640
10.566694,-9,1,5,-1,-1,1,-1,-2,-0.016809640
10.569983,6,-24,-9,0,-1,0,-2,-2,-0.016809640
10.569998,4,18,5,-2,2,-2,-1,0,-0.016809640
10.588472,-9,10,-5,2,-2,1,0,0,-0.016809640
10.588489,8,-5,-11,-2,-3,0,0,0,-0.016809640
10.589142,19,3,2,-7,-1,1,-1,1,-0.016809640
10.589177,-25,-3,2,6,3,0,0,-3,-0.016809640
10.603828,-6,-18,0,-5,-2,0,-1,0,-0.016809640
10.603842,1,21,-9,6,-2,0,-1,-2,-0.016809640
10.603844,9,25,-5,-3,-2,-1,1,0,-0.016809640
10.603847,-3,-24,-4,-4,-2,-3,0,0,-0.016809640
10.625951,0,-2,0,-2,-2,-1,-1,1,-0.016809640
10.626922,-11,-2,1,-5,-2,-1,-2,-2,-0.016809640
10.626930,-3,-8,-2,0,-4,-1,-1,1,-0.016809640
10.626933,-9,-7,5,3,1,0,0,-2,-0.016809640
10.651043,-13,-17,1,0,1,-2,0,-2,-0.016809640
10.651058,3,16,5,0,-1,-1,0,0,-0.016809640
10.651060,1,-5,-3,-2,2,-2,0,-1,-0.016809640
10.651063,-16,-2,-4,1,-1,-1,-1,1,-0.016809640
10.663374,-2,11,-6,2,-4,-1,-2,0,-0.016809640
10.663408,4,-35,1,-6,0,-1,-3,-4,-0.016809640
10.665671,5,2,-8,-6,-3,-2,-1,-2,-0.016809640
10.665679,22,20,0,4,1,0,0,1,-0.016809640
10.686155,-30,-21,-3,2,2,1,0,-1,-0.016809640
10.686175,-22,7,-9,1,0,-2,-1,2,-0.016809640
10.688009,1,-6,14,5,-2,-1,1,-2,-0.016809640
10.688021,13,12,-6,-9,-4,-1,-3,-1,-0.016809640
10.709111,10,-9,-5,-2,-1,-1,-1,-2,-0.016809640
10.709143,-4,10,-4,2,-2,0,-1,1,-0.016809640
10.711710,7,16,-1,-7,3,-1,-2,-1,-0.016809640
10.711727,-17,-64,-7,1,-3,0,-1,0,-0.016809640
10.722783,1,2,5,3,-1,-1,-3,-4,-0.016809640
10.722829,1,4,1,-2,-1,-2,-1,-5,-0.016809640
10.733551,-8,-16,-10,0,-3,-1,0,-2,-0.016809640
10.733558,11,44,12,0,-1,-2,-1,0,-0.016809640
10.746001,10,0,-1,-3,0,-1,0,0,-0.013722556
10.746026,-4,-21,2,-3,-2,-4,-1,-2,-0.013722556
10.746996,1,16,0,5,-2,1,-1,-1,-0.013722556
10.747018,9,18,2,-5,-2,-1,0,-1,-0.013722556
10.768620,-12,-20,-2,2,0,-2,-2,-2,-0.013722556
10.768652,26,42,1,-1,-4,-2,-2,-1,-0.013722556
10.771056,-19,26,-1,6,2,-1,0,0,-0.013722556
10.771070,2,-69,-19,-7,-1,0,-2,-1,-0.013722556
10.782135,-16,-10,10,1,1,1,2,0,-0.013722556
10.782159,5,5,-1,0,2,0,-2,0,-0.013722556
10.791145,-2,9,-4,7,-1,1,-1,0,-0.013722556
10.791157,-3,15,4,-5,0,-1,-2,0,-0.013722556
10.806722,18,-3,-1,-3,-1,-1,-1,-1,-0.013722556
10.806736,7,-17,5,1,0,-1,-1,2,-0.013722556
10.807509,-25,-11,-6,0,1,-1,-1,-1,-0.013722556
10.807520,2,19,-3,-2,-3,-1,-3,-4,-0.013722556
10.828429,15,-6,-4,-2,-2,-1,-2,0,-0.013722556
10.828446,-30,7,8,3,0,1,0,-2,-0.013722556
10.830047,-2,-31,2,-7,-3,-1,0,0,-0.013722556
10.830056,-5,-22,-10,1,0,0,-1,1,-0.013722556
10.842633,0,13,-2,-3,-1,-1,-1,-2,-0.013722556
10.842665,-2,-4,-2,-3,-2,0,-1,-1,-0.013722556
10.853314,10,19,-4,-2,-2,-3,-2,0,-0.013722556
10.853328,12,37,11,-2,-2,0,1,-1,-0.013722556
10.868391,-43,-61,-1,5,-1,-2,-2,-3,-0.013722556
10.868407,-1,5,1,2,3,2,-1,-1,-0.013722556
10.868411,-3,-13,2,-3,-1,-1,-1,-2,-0.013722556
10.868413,10,21,-7,1,1,-1,-1,1,-0.013722556
10.888667,31,20,-1,-2,0,-1,-1,0,-0.013722556
10.891118,-34,20,7,-6,-3,-1,0,-1,-0.013722556
10.891130,7,-45,-5,1,0,-1,-1,-2,-0.013722556
10.891132,7,10,3,0,0,-1,0,0,-0.013722556
10.902346,1,23,1,-4,0,-1,1,0,-0.013722556
10.902370,-19,2,-10,1,-1,-1,-1,-3,-0.013722556
10.913028,2,-9,5,-3,3,-3,-2,1,-0.013722556
10.913046,-6,-6,0,7,-1,-2,-2,-3,-0.013722556
10.926360,8,4,6,1,0,0,-1,-1,-0.013722556
10.926384,18,6,-3,-3,-1,-2,1,0,-0.013722556
10.928551,4,21,2,-5,-2,1,0,0,-0.013722556
10.928562,-8,-17,-6,-6,-1,-2,-1,-1,-0.013722556
10.949278,0,6,-9,0,1,-1,-3,-2,-0.013722556
10.949306,4,19,-5,1,-1,-1,0,-2,-0.013722556
10.950280,-20,-69,7,-6,-1,-2,-1,-2,-0.013722556
10.950295,7,21,6,-1,-1,-1,-2,0,-0.013722556
10.962051,-13,-38,1,0,-1,-2,-2,1,-0.013722556
10.962064,0,22,-4,-4,1,0,-1,0,-0.013722556
10.972501,13,7,-7,3,-2,-1,-2,-1,-0.013722556
10.972516,3,18,3,2,-2,-1,0,-1,-0.013722556
10.986139,-4,-4,1,1,-6,-3,-2,-1,-0.013722556
10.986162,16,-4,-1,-9,3,-1,-2,0,-0.013722556
10.988190,2,42,-2,4,1,-1,-1,1,-0.013722556
10.988201,-21,-69,-3,-5,-4,-2,-2,-3,-0.013722556
11.009276,10,22,0,-3,0,-2,-1,-1,-0.022767489
11.009294,-5,-33,-3,4,-2,-1,-1,-1,-0.022767489
11.009940,12,37,-2,-1,-2,0,0,0,-0.022767489
11.009976,15,31,1,0,-1,-2,0,2,-0.022767489
11.024041,-28,-36,-2,-3,-1,-1,-2,-3,-0.022767489
11.024049,1,-17,-1,0,0,0,-2,-1,-0.022767489
11.031595,-14,-3,3,-4,-2,-1,-1,-1,-0.022767489
11.031615,20,20,-10,-7,-4,-3,-1,-2,-0.022767489
11.046354,17,11,6,4,3,1,4,1,-0.022767489
11.046387,-17,-3,-4,0,-1,-2,-1,-3,-0.022767489
11.047917,-2,28,4,2,-1,-1,-3,-1,-0.022767489
11.047921,-13,-83,-1,-2,-1,-2,0,0,-0.022767489
11.068844,13,37,-5,-4,-3,-1,-1,0,-0.022767489
11.068868,-6,-17,3,1,1,1,0,0,-0.022767489
11.071397,16,21,6,0,-1,-2,0,0,-0.022767489
11.071411,-65,-19,-4,-2,1,-1,-4,-6,-0.022767489
11.082678,4,-5,-1,1,0,-1,-1,-1,-0.022767489
11.082725,8,-11,-1,0,-1,0,0,0,-0.022767489
11.091398,14,10,-14,-6,-2,-2,-2,-2,-0.022767489
11.091429,16,31,7,5,-1,1,0,2,-0.022767489
11.106017,-14,-5,2,-1,-5,-3,-1,-3,-0.022767489
11.106043,-20,-18,-4,2,-4,-3,-2,-2,-0.022767489
11.107590,11,-25,-3,-4,-2,-2,-2,-4,-0.022767489
11.107611,7,22,2,4,1,0,1,1,-0.022767489
11.129152,10,9,-3,-2,0,-2,1,-2,-0.022767489
11.129170,4,25,2,0,-1,-1,1,-1,-0.022767489
11.130682,-7,-14,3,0,1,-1,-1,1,-0.022767489
11.130688,14,18,-5,-6,-4,-2,-1,0,-0.022767489
11.142576,-8,-27,-4,2,-1,-1,-3,-1,-0.022767489
11.142612,2,-1,-11,-7,-1,0,0,0,-0.022767489
11.157493,-5,-40,0,3,1,-2,-1,-4,-0.022767489
11.157555,-1,9,2,-3,1,-1,0,0,-0.022767489
11.166092,16,34,3,-1,0,0,0,0,-0.022767489
11.166103,0,3,1,-1,1,0,-1,1,-0.022767489
11.167505,-9,-22,-1,-5,-2,-1,-1,0,-0.022767489
11.167528,-8,13,2,2,-3,-3,-2,-2,-0.022767489
11.188599,11,4,-6,-3,2,1,1,0,-0.022767489
11.188619,-17,-13,-3,-1,-2,-1,-1,-3,-0.022767489
11.190391,-9,17,1,5,0,1,-1,-1,-0.022767489
11.190399,7,-9,1,0,3,0,-1,-2,-0.022767489
11.202329,-17,-14,-5,-4,-4,-1,-1,-3,-0.022767489
11.202350,26,-5,0,-4,-3,-3,-1,-1,-0.022767489
11.211953,-10,14,-6,-4,-2,-2,-2,-1,-0.022767489
11.211961,6,8,0,-2,-2,0,0,1,-0.022767489
11.227731,5,-4,3,1,-1,-1,-2,0,-0.022767489
11.227741,10,6,2,0,-2,-1,-2,-1,-0.022767489
11.227745,-9,-22,-2,2,-2,0,1,-1,-0.022767489
11.227748,1,8,-9,1,-1,-1,0,1,-0.022767489
11.249111,-3,18,17,-3,-1,-1,-1,-1,-0.022767489
11.249139,-12,0,3,1,1,1,-2,-1,-0.022767489
11.251212,14,16,-6,0,-2,1,-2,-2,-0.022767489
11.251224,-12,-10,1,-15,-2,0,-4,-2,-0.022767489
11.262928,8,-5,-4,10,1,0,0,0,-0.022483564
11.262954,-19,-9,-1,-2,-3,-4,-1,-3,-0.022483564
11.271959,0,-39,-6,1,2,1,0,-2,-0.022483564
11.271969,16,27,1,0,1,-1,1,0,-0.022483564
11.286106,-5,9,-4,-5,-1,-1,-3,-2,-0.022483564
11.286125,8,-44,1,-5,-1,-1,-2,1,-0.022483564
11.288469,7,13,-3,0,-1,-1,-1,0,-0.022483564
11.288481,-21,2,-1,1,-1,-1,0,-2,-0.022483564
11.308767,2,7,-2,-3,-1,-1,-1,-1,-0.022483564
11.308798,-1,11,0,2,-2,-1,-1,-2,-0.022483564
11.310112,-4,2,-2,-3,-1,0,-1,2,-0.022483564
11.310124,2,-14,-2,3,-2,1,0,-2,-0.022483564
11.331001,-1,-2,1,1,-4,-1,0,0,-0.022483564
11.331019,-26,-18,-4,-5,1,-3,-3,-3,-0.022483564
11.332608,-4,3,5,4,-1,-2,-1,0,-0.022483564
11.332692,-2,18,7,10,0,0,0,-1,-0.022483564
11.346054,15,-14,-11,-18,3,2,0,2,-0.022483564
11.346079,-5,16,19,11,-1,-1,-2,-3,-0.022483564
11.348027,-6,-16,-3,-6,-1,-1,-2,-2,-0.022483564
11.348035,-9,-7,-3,1,-1,-3,-2,-1,-0.022483564
11.368542,-24,-17,-3,0,-1,-1,0,-2,-0.022483564
11.368561,22,22,-4,-5,-1,0,2,-1,-0.022483564
11.370101,-9,15,0,-4,-1,0,-1,-3,-0.022483564
11.370120,14,-5,-5,-6,-3,0,0,0,-0.022483564
11.390995,-4,-12,1,0,-2,-1,-2,-3,-0.022483564
11.391014,-10,-8,-4,0,1,0,0,0,-0.022483564
11.392452,4,8,1,0,0,0,0,2,-0.022483564
11.392480,-18,-19,-7,-2,0,-3,-3,-4,-0.022483564
11.406088,10,44,0,0,-2,-2,-3,-2,-0.022483564
11.406113,-2,-46,-3,-7,-4,-2,-1,-2,-0.022483564
11.408109,14,26,7,1,1,0,1,1,-0.022483564
11.408124,-7,-39,5,0,-3,-1,-3,-1,-0.022483564
11.429548,3,14,-4,1,1,-2,-1,-3,-0.022483564
11.429557,11,18,-16,-3,-3,0,-2,0,-0.022483564
11.429960,-3,8,12,-3,1,-1,0,0,-0.022483564
11.429969,1,15,5,-2,3,1,1,-1,-0.022483564
11.451023,-6,-26,-7,0,-3,-1,-1,-1,-0.022483564
11.451049,6,0,-2,-5,2,-1,0,-1,-0.022483564
11.452965,15,22,-11,1,-2,-2,-1,-1,-0.022483564
11.452978,-6,-26,2,5,2,0,0,0,-0.022483564
11.465904,1,-3,4,0,-4,-2,-2,-2,-0.022483564
11.465931,19,21,-3,-8,-1,0,0,0,-0.022483564
11.472157,-22,-32,-3,3,-1,0,-2,-2,-0.022483564
11.472185,4,46,6,7,1,0,-1,-1,-0.022483564
11.488541,-7,-18,-3,0,2,1,-1,-1,-0.022483564
11.488559,-6,1,2,3,-3,-3,-1,1,-0.022483564
11.491220,2,-16,-10,-6,-3,-2,-3,-2,-0.022483564
11.491234,0,1,0,-1,-1,0,0,-1,-0.022483564
11.511466,-14,-12,-1,1,-1,-2,-1,0,-0.022483564
11.511498,15,36,4,2,-1,-1,-1,1,-0.022483564
11.512712,-12,-6,-2,-4,-1,-1,-2,-3,-0.022483564
11.512763,23,-9,-3,-1,-2,-2,-1,1,-0.022483564
11.525393,6,-16,-4,0,-4,-3,-1,-3,-0.017422551
11.525437,2,-16,0,0,1,0,0,-1,-0.017422551
11.532033,-1,9,-5,-3,-5,-2,-2,-1,-0.017422551
11.532056,-6,5,4,0,2,0,1,1,-0.017422551
11.549004,11,46,7,0,1,0,1,3,-0.017422551
11.549036,1,-10,-4,-2,-2,-1,-2,-3,-0.017422551
11.552025,6,1,4,1,-2,0,0,-2,-0.017422551
11.552039,-21,-7,-10,-6,-3,-2,-2,-2,-0.017422551
11.571124,-4,8,-6,-2,1,-3,-1,-1,-0.017422551
11.571141,-9,-65,4,0,-1,-1,-1,-1,-0.017422551
11.572570,5,1,-5,-6,0,1,0,0,-0.017422551
11.572589,-9,-7,3,0,-5,-1,1,-3,-0.017422551
11.586963,20,25,0,-2,3,0,0,2,-0.017422551
11.586975,-27,-17,1,7,1,-3,-3,-6,-0.017422551
11.592727,-3,-27,-1,0,-2,-2,0,-1,-0.017422551
11.592772,-2,3,-8,-9,-1,-2,-1,-1,-0.017422551
11.608666,-9,-16,-3,-5,-3,-1,0,-1,-0.017422551
11.608690,10,33,0,0,0,-1,0,1,-0.017422551
11.610560,-6,-3,-4,-2,-2,-2,-1,-2,-0.017422551
11.610566,2,11,-10,-7,-3,-2,-2,0,-0.017422551
11.633503,-6,-78,-4,2,0,-1,-2,-4,-0.017422551
11.633511,2,21,6,3,0,-1,-1,1,-0.017422551
11.633515,-3,13,0,1,-2,-1,-1,-2,-0.017422551
11.633517,4,20,10,2,0,-1,-1,0,-0.017422551
11.646027,13,-1,-5,0,-2,0,-2,-2,-0.017422551
11.646059,-15,-13,-6,-4,-2,-1,-2,0,-0.017422551
11.652359,13,6,0,1,0,-1,-1,0,-0.017422551
11.652379,8,-12,-6,3,2,0,-2,-3,-0.017422551
11.668956,-18,12,9,-3,-3,0,-1,0,-0.017422551
11.668976,5,-10,-6,2,2,-1,0,-2,-0.017422551
11.670840,-4,7,-1,0,-2,-2,-1,1,-0.017422551
11.670850,-4,-27,0,-5,-1,-1,0,0,-0.017422551
11.691539,5,31,4,7,0,0,0,1,-0.017422551
11.691571,5,10,-4,-4,-2,1,-1,0,-0.017422551
11.693886,-20,-30,0,-1,0,0,0,0,-0.017422551
11.693899,8,11,1,10,1,-1,-1,1,-0.017422551
11.705494,-16,-1,-8,-5,-1,-2,0,-2,-0.017422551
11.707234,0,17,-1,-3,-5,-1,-2,-1,-0.017422551
11.712491,-3,12,3,-3,5,1,0,-2,-0.017422551
11.712523,1,-19,-8,0,1,-1,-2,1,-0.017422551
11.728938,4,5,0,-2,0,-4,-3,-4,-0.017422551
11.728971,-15,1,7,1,2,-1,0,-2,-0.017422551
11.731068,6,-13,0,0,-2,-1,-3,-3,-0.017422551
11.731075,-4,1,-6,-5,-4,-3,-2,0,-0.017422551
11.751448,6,-2,-4,-4,-2,-1,1,2,-0.017422551
11.751495,15,45,-2,-6,-1,0,-1,-1,-0.017422551
11.753736,-26,-75,-7,3,-3,-2,-3,-3,-0.017422551
11.753744,5,2,3,0,0,-1,-1,-2,-0.017422551
11.766253,-2,-6,0,5,0,-1,-1,0,-0.017422551
11.766286,-7,12,-4,0,-1,-2,-2,0,-0.017422551
11.772266,19,32,1,-1,-1,-1,0,3,-0.024452989
11.772284,-10,-12,-3,-2,-1,0,-1,-4,-0.024452989
11.788532,2,-1,-2,-2,-2,-2,-5,-1,-0.024452989
11.788549,-1,-12,-2,1,0,-2,-2,-2,-0.024452989
11.790055,34,10,-2,-4,0,-1,-2,-2,-0.024452989
11.790073,-17,-13,4,4,0,0,-1,-1,-0.024452989
11.811180,6,13,5,-1,2,0,2,0,-0.024452989
11.811197,-1,-13,-2,1,-2,0,0,3,-0.024452989
11.812926,2,9,-7,-9,-3,-3,-1,-2,-0.024452989
11.812942,12,21,4,-3,-1,-1,-3,-1,-0.024452989
11.824998,-11,-1,-2,6,0,1,1,-2,-0.024452989
11.825022,-2,-8,13,0,3,-2,-1,-1,-0.024452989
11.834298,-10,-22,-5,-4,-2,0,-2,-2,-0.024452989
11.834310,4,18,-3,0,-2,-1,-1,-1,-0.024452989
11.850033,-3,-19,-3,-8,-2,-1,-1,-1,-0.024452989
11.850043,23,27,3,2,-2,-1,-1,2,-0.024452989
11.850046,-27,-6,2,5,2,0,-1,1,-0.024452989
11.850049,-13,-11,-4,-4,-3,-3,-1,-3,-0.024452989
11.878965,-11,-8,1,1,-1,-2,-2,-1,-0.024452989
11.878997,20,3,-4,-4,-5,-3,-1,0,-0.024452989
11.881486,-3,17,7,1,-1,-1,-2,0,-0.024452989
11.881495,13,5,-3,-1,1,0,0,0,-0.024452989
11.885456,-12,-20,-6,-3,-2,0,-2,-2,-0.024452989
11.885500,-12,-10,7,-1,0,-1,-2,-2,-0.024452989
11.894667,-1,5,1,3,0,-1,-1,0,-0.024452989
11.894674,3,9,-2,-4,-2,-3,-1,0,-0.024452989
11.908529,-4,-1,2,-1,0,0,-1,-1,-0.024452989
11.908546,-9,-30,-7,-2,0,0,-1,-2,-0.024452989
11.909982,12,16,3,1,0,-2,-2,-1,-0.024452989
11.909991,5,-1,2,0,1,-1,-1,1,-0.024452989
11.931399,3,-1,-17,-2,2,0,-2,-1,-0.024452989
11.931426,2,9,15,-6,-2,-1,0,-1,-0.024452989
11.933477,-18,-6,4,9,0,-3,-1,-4,-0.024452989
11.933482,-1,2,-4,0,-3,-3,-3,-2,-0.024452989
11.944625,-3,-9,0,-2,-4,-2,0,0,-0.024452989
11.944661,-9,-4,1,0,2,-2,-1,-1,-0.024452989
11.954866,5,16,-4,-4,-1,1,0,0,-0.024452989
11.954877,1,-34,0,-1,-2,-1,0,-1,-0.024452989
11.968707,-17,0,3,2,1,0,-1,-1,-0.024452989
11.968735,-2,8,-4,2,0,1,-1,-3,-0.024452989
11.971330,17,-2,-2,-8,-1,-1,0,0,-0.024452989
11.971343,-32,-15,-4,-1,-3,0,-3,-2,-0.024452989
11.991065,11,5,3,-6,2,-1,0,1,-0.024452989
11.991078,3,5,-5,0,-2,-2,-1,-2,-0.024452989
11.992506,-9,3,2,4,3,-1,-1,-1,-0.024452989
11.992528,6,0,-1,-2,1,1,0,1,-0.024452989
12.005381,5,1,0,-4,-4,-1,0,0,-0.024452989
12.005399,-7,-13,-8,-5,-2,-1,-1,-3,-0.024452989
12.014794,-14,-4,0,-1,-2,-1,0,-2,-0.024452989
12.014800,9,15,-5,3,-1,0,-1,-1,-0.024452989
12.028916,1,2,4,-1,0,0,-2,-1,-0.016052517
12.028940,2,-30,-8,4,0,1,0,3,-0.016052517
12.030743,-8,-23,-3,-5,-2,-2,-2,-3,-0.016052517
12.030751,3,9,-5,-4,-4,-2,-2,-1,-0.016052517
12.053282,1,16,-1,-1,-2,0,0,0,-0.016052517
12.053295,11,20,6,7,-1,-2,0,1,-0.016052517
12.053298,0,3,7,2,-1,0,0,1,-0.016052517
12.053301,-5,15,0,-3,0,-2,-1,-1,-0.016052517
12.065318,10,-11,-3,2,-4,-2,-2,0,-0.016052517
12.065361,-19,-18,-5,-8,0,0,-3,-4,-0.016052517
12.073873,2,-5,5,-1,-1,-1,-1,1,-0.016052517
12.073904,0,-2,-4,4,3,-1,-1,-1,-0.016052517
12.088539,2,3,2,-3,-2,-1,-1,-1,-0.016052517
12.088564,-16,13,-5,-8,0,-2,0,0,-0.016052517
12.090272,7,7,1,7,-2,-3,-2,1,-0.016052517
12.090292,-33,-41,-5,-8,-4,-1,-2,-2,-0.016052517
12.111049,2,3,-1,-4,3,0,-1,0,-0.016052517
12.111066,5,2,-1,1,-1,0,-2,0,-0.016052517
12.113189,-3,18,-3,-3,1,0,0,-1,-0.016052517
12.113206,6,-11,-1,-1,-1,-1,-2,1,-0.016052517
12.124929,5,6,-4,-2,-5,-2,-3,-4,-0.016052517
12.124954,-23,-12,-6,-1,-2,-2,-1,-2,-0.016052517
12.135923,2,-6,-6,-9,-3,-1,-1,-1,-0.016052517
12.135939,22,-5,4,3,3,-1,-1,-2,-0.016052517
12.148874,-40,-14,-4,-2,0,-2,-1,-1,-0.016052517
12.148902,32,10,0,-1,1,-3,0,-2,-0.016052517
12.150313,-13,13,-4,0,0,1,-1,-1,-0.016052517
12.152017,5,-50,5,2,-2,-2,-2,-2,-0.016052517
12.171097,17,20,0,3,-1,-2,-1,-2,-0.016052517
12.171115,-4,-22,-6,-9,-1,-2,-1,0,-0.016052517
12.172671,4,10,-5,0,0,1,-1,1,-0.016052517
12.172686,-3,29,3,-3,1,0,0,-2,-0.016052517
12.184931,-3,-7,10,9,0,-2,-1,0,-0.016052517
12.184956,-1,-4,-4,-1,0,0,0,-1,-0.016052517
12.194609,5,-8,2,-4,-2,-2,1,1,-0.016052517
12.194621,-8,1,-9,-6,-1,0,0,-2,-0.016052517
12.208451,14,-2,-2,-3,-3,-2,-1,-2,-0.016052517
12.208463,3,-9,-5,-3,4,1,-2,-2,-0.016052517
12.210010,-15,-5,-1,1,0,-2,0,-1,-0.016052517
12.210047,28,56,21,2,-3,-1,-1,2,-0.016052517
12.231000,-51,-57,-9,-3,0,-2,-3,-7,-0.016052517
12.231017,-4,17,1,1,-6,-2,-2,-2,-0.016052517
12.232602,3,-1,-7,-4,0,1,-1,0,-0.016052517
12.232681,7,-18,-2,2,0,-2,0,1,-0.016052517
12.245045,16,22,-5,-3,1,1,0,3,-0.016052517
12.245078,-6,-12,-1,-4,0,-2,0,-1,-0.016052517
12.254720,5,14,-1,3,0,-2,0,-3,-0.016052517
12.254733,-11,10,-2,2,-1,0,-1,1,-0.016052517
12.268049,0,-18,-3,-2,0,-2,-1,-1,-0.016052517
12.268076,-1,5,-2,-2,-5,-3,-2,-2,-0.016052517
12.275095,8,-6,4,10,-1,-1,-1,-2,-0.016052517
12.275127,-3,40,-4,-8,1,-1,0,0,-0.016052517
12.291370,-5,-50,-3,-3,1,0,-1,-1,-0.014475174
12.291395,9,16,6,8,-1,0,0,2,-0.014475174
12.293782,21,-3,-5,-7,0,-1,-2,-1,-0.014475174
12.293789,-59,-23,-2,0,-5,-4,-2,-3,-0.014475174
12.313826,23,32,1,-3,-3,0,-1,-3,-0.014475174
12.315799,1,5,0,-1,1,2,-1,-1,-0.014475174
12.315810,-8,-20,6,-1,-3,-1,-2,-2,-0.014475174
12.315813,6,3,-6,2,-1,-1,0,-1,-0.014475174
12.328596,1,6,0,-3,-1,-1,0,1,-0.014475174
12.328621,-18,-22,0,7,-3,-1,-1,-1,-0.014475174
12.331248,2,12,0,-3,0,-2,-1,0,-0.014475174
12.331258,-1,-8,-5,-5,0,-1,-2,-1,-0.014475174
12.351568,4,-12,-2,0,0,-1,1,1,-0.014475174
12.351595,-16,21,2,2,0,-1,-3,-1,-0.014475174
12.352781,3,-26,-4,-1,-1,-1,-3,-1,-0.014475174
12.352792,14,-1,-5,-4,-3,-1,0,0,-0.014475174
12.373591,-22,31,3,0,-1,0,-2,-2,-0.014475174
12.373610,-5,-27,-4,-1,-1,-1,-1,-3,-0.014475174
12.375257,3,21,-1,-2,-3,-1,0,-1,-0.014475174
12.375276,7,-21,0,-7,1,-4,-3,-2,-0.014475174
12.388598,11,16,4,6,0,0,-1,0,-0.014475174
12.388616,0,10,1,-2,-3,0,-2,-3,-0.014475174
12.390069,-3,-7,-6,-4,-1,-1,-2,-1,-0.014475174
12.390090,11,3,0,0,0,1,0,1,-0.014475174
12.411107,-7,-3,-1,4,-1,-2,-1,-1,-0.014475174
12.411117,-7,26,6,-3,1,-2,-1,1,-0.014475174
12.412590,4,-38,-2,-1,3,0,1,0,-0.014475174
12.412626,-8,-12,-7,-1,-2,-1,-2,-4,-0.014475174
12.433973,6,26,-7,1,2,-1,-2,-1,-0.014475174
12.434003,8,-35,2,4,-4,-2,0,-1,-0.014475174
12.436241,-27,-2,-4,-3,0,0,0,1,-0.014475174
12.436253,9,16,2,3,0,0,-1,-1,-0.014475174
12.447763,-5,-7,-3,-6,-1,-2,-2,-2,-0.014475174
12.447781,22,24,-2,-2,-3,-1,0,-2,-0.014475174
12.454633,-2,12,10,1,-1,-2,-1,-2,-0.014475174
12.454651,-20,-33,-4,-4,-1,-1,-2,-1,-0.014475174
12.472871,9,-4,-5,-2,-1,-1,-1,-3,-0.014475174
12.472884,3,6,-4,-3,0,-1,-1,1,-0.014475174
12.472934,-8,-11,-6,-3,-3,-2,0,0,-0.014475174
12.472938,3,-1,3,-2,1,0,-2,-1,-0.014475174
12.493862,-10,4,4,-3,-2,-3,-3,-1,-0.014475174
12.493895,-5,18,2,4,2,1,1,1,-0.014475174
12.496382,-3,-44,-8,1,-1,-1,-4,-4,-0.014475174
12.496389,9,26,-1,-2,-3,-1,0,-2,-0.014475174
12.508023,1,-29,1,-4,-1,0,0,0,-0.014475174
12.508046,-1,7,-5,-2,0,1,0,-1,-0.014475174
12.514689,29,76,4,-2,-2,0,0,2,-0.014475174
12.514713,-41,-71,-10,-3,2,-1,-2,-3,-0.014475174
12.531073,5,-2,-3,-1,-1,-2,0,-2,-0.014475174
12.533080,-3,-6,7,3,0,0,-1,0,-0.014475174
12.533087,-1,11,7,1,2,-3,-1,-3,-0.014475174
12.533090,2,25,1,-2,-1,-1,-1,0,-0.014475174
12.553593,-1,8,-1,1,-4,-1,-2,-2,-0.018116583
12.553611,-1,-24,7,3,3,0,0,-1,-0.018116583
12.555151,2,2,-6,-3,-2,-1,-1,0,-0.018116583
12.555251,13,48,3,4,-2,1,-1,-2,-0.018116583
12.567908,0,-52,-2,-2,-1,-1,-2,1,-0.018116583
12.567934,21,-3,-6,-5,-3,-2,-2,-1,-0.018116583
12.574810,-19,-13,1,-1,-2,-1,-2,-1,-0.018116583
12.575700,16,14,-9,1,-3,-3,-1,-2,-0.018116583
12.591061,-3,22,-1,-4,2,2,0,1,-0.018116583
12.591080,-9,-8,2,-2,-1,-1,-1,-2,-0.018116583
12.592851,0,-6,-1,-1,2,0,-1,0,-0.018116583
12.592868,0,-1,1,6,-2,-1,-2,1,-0.018116583
12.613539,2,10,-1,-3,-1,0,-2,-3,-0.018116583
12.613579,25,17,-2,1,-4,0,1,5,-0.018116583
12.614973,-83,-62,-11,-6,-1,-4,-4,-11,-0.018116583
12.614981,8,18,2,-5,-2,-2,-1,-4,-0.018116583
12.628694,3,1,5,6,0,1,0,1,-0.018116583
12.628709,-2,7,-5,-5,-1,0,-2,-4,-0.018116583
12.634686,20,-24,-5,-3,-3,-1,-1,2,-0.018116583
12.634712,-5,-2,-3,-3,3,-2,-2,-1,-0.018116583
12.651027,-6,3,17,5,0,-3,-2,-1,-0.018116583
12.651052,-9,21,-4,-7,2,0,0,1,-0.018116583
12.653533,14,31,6,0,3,-1,-1,0,-0.018116583
12.653546,-11,-28,-3,1,-1,1,-1,0,-0.018116583
12.673564,12,22,-6,-3,-1,-1,1,0,-0.018116583
12.673646,8,-11,-2,1,-2,-4,2,2,-0.018116583
12.675172,-48,-13,-1,-2,-2,-1,0,-5,-0.018116583
12.675187,9,-17,-4,-2,-3,-2,-2,-3,-0.018116583
12.689566,-5,17,0,-2,-5,-2,-1,-1,-0.018116583
12.689578,-3,-32,-11,-3,-1,-1,-3,-4,-0.018116583
12.694751,34,20,11,6,2,0,1,5,-0.018116583
12.694776,-20,-2,4,-2,-1,-1,1,1,-0.018116583
12.711502,-6,-13,-2,5,-1,-1,1,-2,-0.018116583
12.712736,-13,14,0,3,-1,0,-2,-1,-0.018116583
12.712935,20,-13,-5,-8,-4,-1,-1,2,-0.018116583
12.712956,-1,-3,-1,-2,-1,-1,-2,-2,-0.018116583
12.734189,25,25,0,-3,-1,-1,1,4,-0.018116583
12.734220,-36,-37,-7,5,2,0,-2,-7,-0.018116583
12.736908,-2,14,5,1,-3,-2,-3,-2,-0.018116583
12.736922,18,12,4,2,0,-2,0,0,-0.018116583
12.748394,0,-17,-8,-7,1,-2,-3,-1,-0.018116583
12.748426,25,29,6,1,-3,-2,0,0,-0.018116583
12.754725,0,4,-4,0,-2,0,0,1,-0.018116583
12.754743,-4,-13,-1,3,-2,-2,0,0,-0.018116583
12.771118,-9,3,5,1,1,0,-1,-1,-0.018116583
12.771135,-2,-9,0,-1,-2,-1,-1,-2,-0.018116583
12.772566,3,4,-1,-1,0,-1,-2,-1,-0.018116583
12.772592,6,12,-1,-2,-1,-1,-1,1,-0.018116583
12.793543,-4,-14,-8,1,-4,-1,-2,-3,-0.005308564
12.795318,-6,-1,-3,-12,3,-2,-2,-3,-0.005308564
12.795329,7,21,-6,0,-2,-2,-1,-2,-0.005308564
12.795335,-5,-51,2,-5,-1,-1,0,-2,-0.005308564
12.807307,-7,-15,-3,5,1,-1,-2,-1,-0.005308564
12.808897,1,-10,-4,-3,-2,0,-1,1,-0.005308564
12.825695,-7,17,4,-2,0,-2,1,-2,-0.005308564
12.825712,12,28,-1,1,-1,-1,-1,0,-0.005308564
12.831123,-8,2,4,-3,-1,-2,0,-1,-0.005308564
12.831148,2,-20,-6,8,-3,-1,1,2,-0.005308564
12.832689,11,15,13,-2,-2,0,-4,-3,-0.005308564
12.832695,21,23,2,-1,-2,-1,-3,0,-0.005308564
12.853733,-22,-26,-9,-2,0,-1,-2,-4,-0.005308564
12.853751,1,10,-1,3,1,-2,-1,1,-0.005308564
12.855672,9,-2,-4,2,1,-1,0,3,-0.005308564
12.855684,-3,10,2,0,0,-2,-1,-1,-0.005308564
12.867432,10,43,1,-2,-1,-1,-2,2,-0.005308564
12.869213,-16,-64,-5,-5,0,1,-2,-3,-0.005308564
12.877325,0,11,-4,5,-1,0,-1,-1,-0.005308564
12.877332,3,-46,-3,0,2,-2,0,-1,-0.005308564
12.891454,-14,-1,-5,-8,-2,-2,-1,-1,-0.005308564
12.891494,0,17,3,0,-3,-2,-2,-4,-0.005308564
12.893759,3,-6,-2,-2,0,0,0,-1,-0.005308564
12.893767,-11,10,-3,0,2,-1,-1,-1,-0.005308564
12.913667,-2,-4,2,2,-2,0,-1,-1,-0.005308564
12.913695,2,4,1,-1,0,-3,0,-1,-0.005308564
12.915781,2,-8,-6,-2,-2,-1,-1,-2,-0.005308564
12.915797,-12,10,2,1,1,0,0,0,-0.005308564
12.927286,0,-14,-6,-4,-1,-2,-1,-2,-0.005308564
12.927310,30,30,8,2,-2,0,-1,4,-0.005308564
12.937345,-69,-12,-1,-5,1,0,-3,-4,-0.005308564
12.937364,-20,14,-7,-9,-3,-4,-2,-1,-0.005308564
12.951262,-7,-84,9,7,-2,-1,-3,-5,-0.005308564
12.951296,3,-25,-9,-5,-2,-3,-2,-6,-0.005308564
12.953267,10,0,-6,3,-2,-3,0,2,-0.005308564
12.953275,4,24,1,0,-2,-1,0,2,-0.005308564
12.973526,2,25,0,-4,4,0,-1,0,-0.005308564
12.973563,-4,40,3,2,-5,-3,0,-1,-0.005308564
12.975010,9,-54,-3,-4,2,-2,0,-2,-0.005308564
12.975057,-6,-3,0,1,0,1,-1,-2,-0.005308564
12.988116,15,13,-1,-5,-5,0,1,1,-0.005308564
12.988128,-10,5,-6,-3,-2,0,-2,0,-0.005308564
12.996828,9,31,5,-1,0,-2,-2,-1,-0.005308564
12.996839,-3,-29,-2,-2,-3,-1,-2,-1,-0.005308564
13.011048,4,3,-7,3,0,0,-1,0,-0.005308564
13.012657,-11,1,0,-3,0,-2,-2,-2,-0.005308564
13.012724,21,5,-8,0,-2,-3,1,3,-0.005308564
13.012854,-18,-30,1,0,-1,-1,0,-3,-0.005308564
13.034913,13,33,7,-2,0,-1,-1,-2,-0.005308564
13.034928,1,-2,-6,0,1,1,0,1,-0.005308564
13.035135,16,25,-5,0,0,-1,-1,0,-0.005308564
13.035143,-5,-38,5,-6,-3,-1,0,-2,-0.005308564
13.049841,11,27,-2,10,-2,-3,-1,1,-0.013132180
13.049849,-1,-18,-5,-1,0,1,0,-2,-0.013132180
13.056997,-2,4,11,0,-2,1,0,-1,-0.013132180
13.057012,8,34,0,0,-1,-2,-1,1,-0.013132180
13.071082,-16,-18,-8,-4,-2,-2,0,-1,-0.013132180
13.072725,-6,-2,3,-3,-3,-3,-2,-1,-0.013132180
13.072737,6,-5,-7,-2,1,-1,-1,-2,-0.013132180
13.072740,2,10,0,2,0,2,0,1,-0.013132180
13.101202,0,11,-6,-6,-2,0,-1,-4,-0.013132180
13.101219,-28,-79,-4,-1,-2,-3,-2,-4,-0.013132180
13.103403,16,15,-1,-3,-1,-1,-2,0,-0.013132180
13.103415,-6,-11,-3,1,1,-1,-2,-2,-0.013132180
13.116778,-23,1,-1,-5,1,0,0,0,-0.013132180
13.116803,8,30,0,-1,-2,-4,-2,-2,-0.013132180
13.119385,0,-6,-2,-2,1,0,-1,-1,-0.013132180
13.119401,1,11,-3,2,1,-2,-1,0,-0.013132180
13.131838,-14,-7,5,4,4,0,0,0,-0.013132180
13.131858,5,4,14,-7,-2,-1,-2,-2,-0.013132180
13.134312,4,-5,1,9,1,-2,-2,-1,-0.013132180
13.134324,-22,-8,-2,0,0,1,0,-3,-0.013132180
13.153741,8,37,1,-7,-3,-3,-2,-3,-0.013132180
13.153760,6,-66,-8,-1,0,-2,-1,1,-0.013132180
13.155441,-23,-20,-9,-2,-2,-3,-1,-2,-0.013132180
13.155456,6,20,1,-3,-1,-1,-2,-1,-0.013132180
13.167508,-8,-19,-3,3,-3,1,-2,-3,-0.013132180
13.167534,0,44,2,0,0,0,-1,2,-0.013132180
13.178199,5,7,-1,0,-4,0,-2,-1,-0.013132180
13.178206,20,3,-2,-2,0,-1,0,2,-0.013132180
13.191236,7,-20,-3,-2,0,-2,-3,-2,-0.013132180
13.191261,2,16,0,1,1,0,-1,0,-0.013132180
13.192515,-9,-14,5,2,-1,1,1,-1,-0.013132180
13.192533,-23,-15,0,-3,0,-3,-1,-3,-0.013132180
13.213641,35,32,3,-3,-2,-2,0,0,-0.013132180
13.213673,-19,-16,-5,1,2,-1,-1,-2,-0.013132180
13.215635,12,4,1,-1,0,-2,-2,1,-0.013132180
13.215640,-1,-7,-4,-9,-4,-3,-1,-1,-0.013132180
13.236149,-5,-11,4,3,1,0,0,0,-0.013132180
13.236165,7,18,0,-3,0,-1,0,-2,-0.013132180
13.237750,-7,19,2,-3,-2,1,0,0,-0.013132180
13.237780,20,-10,-4,-3,2,0,-2,-1,-0.013132180
13.251095,-1,-3,4,1,-3,-1,0,1,-0.013132180
13.251111,3,5,-7,-6,1,-1,0,0,-0.013132180
13.252745,-16,-20,-2,-1,-2,-1,-1,-4,-0.013132180
13.252765,10,17,-4,2,-2,0,-2,-1,-0.013132180
13.273703,14,38,1,0,0,-1,-1,5,-0.013132180
13.273722,-13,-22,-2,1,-1,-1,-1,-2,-0.013132180
13.275143,-40,-15,-7,-12,0,-1,-1,-4,-0.013132180
13.275156,28,8,-2,1,-2,-1,-3,-4,-0.013132180
13.297043,-14,-21,0,1,0,-2,1,-2,-0.013132180
13.297054,3,15,1,-4,-2,-1,0,-1,-0.013132180
13.297561,5,-3,-4,-1,-4,-3,0,1,-0.013132180
13.297598,-8,9,8,0,1,0,0,0,-0.013132180
13.312151,12,20,-1,-2,-1,0,-1,0,-0.017553243
13.312161,-23,-47,-3,-2,1,-1,0,0,-0.017553243
13.312572,-6,-13,-7,-1,-4,-1,-2,-3,-0.017553243
13.312580,-18,-6,6,13,3,1,-1,-2,-0.017553243
13.334440,3,1,-11,-4,-2,-2,-2,-2,-0.017553243
13.334457,2,25,12,-1,1,0,-1,0,-0.017553243
13.336653,9,3,-2,0,1,-1,-1,-1,-0.017553243
13.336666,-1,3,-6,-5,-2,-2,-2,0,-0.017553243
13.356213,-10,-15,-2,-3,-1,-2,-1,-2,-0.017553243
13.356243,-23,-14,-9,1,-2,-1,-2,-6,-0.017553243
13.358185,-5,-10,4,1,1,-1,0,-1,-0.017553243
13.358198,14,6,-4,2,-1,0,-1,0,-0.017553243
13.370497,10,21,-2,0,-1,-1,0,1,-0.017553243
13.370516,-19,4,0,0,-1,-1,0,0,-0.017553243
13.377321,17,-18,-3,-6,-1,0,-2,0,-0.017553243
13.377346,-23,-6,-3,2,-2,0,0,0,-0.017553243
13.393615,-6,-20,-8,-7,-2,-3,-2,-5,-0.017553243
13.393633,7,22,11,5,2,0,-1,0,-0.017553243
13.396368,-3,18,-3,-9,0,0,-2,-4,-0.017553243
13.396382,4,5,3,4,-2,-1,-1,-2,-0.017553243
13.416417,-5,-28,1,4,-1,0,0,1,-0.017553243
13.416450,29,40,0,-8,-3,-1,-3,2,-0.017553243
13.419384,-22,-29,3,11,1,-1,0,-1,-0.017553243
13.419398,-2,-1,2,-5,-1,-1,-2,-1,-0.017553243
13.430685,0,-5,-1,-1,-1,-1,-1,-2,-0.017553243
13.430716,1,-6,-6,-2,-4,-3,-2,-3,-0.017553243
13.437242,4,18,1,-1,-1,-1,-1,1,-0.017553243
13.437260,2,-14,-8,-8,0,-2,-2,-1,-0.017553243
13.453651,-5,-13,-3,-3,-1,0,-1,0,-0.017553243
13.453670,-10,2,2,4,-1,2,-2,-1,-0.017553243
13.455066,-3,31,2,1,-1,-3,-1,0,-0.017553243
13.455082,-22,-65,-5,1,0,0,-2,-3,-0.017553243
13.476067,8,-1,-4,-7,-2,-1,-2,-1,-0.017553243
13.476086,6,-6,-5,-2,0,-2,-1,0,-0.017553243
13.477472,26,35,4,2,0,0,0,0,-0.017553243
13.477484,5,4,-6,-1,-4,-3,0,-1,-0.017553243
13.490463,-34,-30,11,-3,2,0,1,-1,-0.017553243
13.490482,14,-5,-6,3,-5,-1,-2,-1,-0.017553243
13.499543,20,12,0,4,3,-2,-1,-1,-0.017553243
13.499550,-7,6,-1,-11,2,-1,-1,-1,-0.017553243
13.515239,-10,-19,-3,9,0,0,-1,-2,-0.017553243
13.515248,18,8,0,-4,-1,0,0,0,-0.017553243
13.515280,-18,-15,-8,-2,-1,-2,-2,-2,-0.017553243
13.515283,9,16,4,-2,-2,-1,1,0,-0.017553243
13.536767,-1,24,-1,-6,-1,-4,-2,-2,-0.017553243
13.536793,-3,13,-1,-1,0,0,-2,1,-0.017553243
13.545312,8,-43,-8,0,-5,0,-2,-3,-0.017553243
13.545320,-15,-21,0,-2,1,0,-2,-4,-0.017553243
13.550705,6,0,-9,0,1,0,0,0,-0.017553243
13.552926,-5,13,1,0,-2,-2,-1,-1,-0.017553243
13.557334,8,34,6,-6,-1,0,0,2,-0.017553243
13.557351,1,-23,-6,-2,-1,-2,-2,0,-0.017553243
13.573673,18,14,5,8,2,1,0,1,-0.013785652
13.573691,-12,-27,-5,-7,-1,-2,-1,-3,-0.013785652
13.575356,-21,7,2,1,-1,0,0,-2,-0.013785652
13.575371,3,10,-1,3,-1,0,0,1,-0.013785652
13.596485,-1,23,1,-1,-1,-1,-1,1,-0.013785652
13.596537,-1,-39,2,2,2,0,1,-1,-0.013785652
13.597822,5,1,1,-4,-5,-1,-1,-2,-0.013785652
13.598933,-12,23,-4,-3,-1,-1,-1,-3,-0.013785652
13.610379,-15,-22,-8,-10,0,0,0,-2,-0.013785652
13.610432,7,39,12,5,1,-2,-1,1,-0.013785652
13.617957,-7,-25,-6,0,2,-1,-1,-1,-0.013785652
13.618002,21,24,2,4,0,-2,-2,0,-0.013785652
13.633751,-23,-16,-5,-4,-2,-2,-2,-2,-0.013785652
13.633768,14,4,-10,2,-1,0,-1,1,-0.013785652
13.635953,4,-6,17,0,-1,1,-3,-3,-0.013785652
13.635967,4,16,8,0,0,-1,0,0,-0.013785652
13.656082,3,0,0,0,-1,-1,-2,0,-0.013785652
13.656099,0,-2,-3,0,2,-1,-1,-5,-0.013785652
13.657678,-8,-16,-6,2,1,-1,-2,0,-0.013785652
13.657722,-10,0,-1,0,0,0,-2,0,-0.013785652
13.671237,16,34,6,-1,-1,-1,0,1,-0.013785652
13.671254,-28,-62,-15,-7,-4,-2,-2,-5,-0.013785652
13.677166,2,35,-4,-2,0,-1,0,2,-0.013785652
13.677184,-3,-28,1,1,-1,-1,-3,-3,-0.013785652
13.693576,2,11,-4,-2,-4,-1,-2,-2,-0.013785652
13.693594,7,16,10,3,1,2,2,3,-0.013785652
13.695149,-6,2,1,3,1,0,-2,1,-0.013785652
13.695223,8,9,3,-5,-2,-2,0,-1,-0.013785652
13.717794,-4,-8,-1,11,-1,-1,-2,-1,-0.013785652
13.717808,-21,8,-2,1,-1,-1,0,-2,-0.013785652
13.717811,-46,-21,-1,-12,2,-1,0,-4,-0.013785652
13.717814,3,-51,-9,4,1,-2,-1,0,-0.013785652
13.730065,13,2,1,-4,-3,-2,0,-3,-0.013785652
13.730082,4,8,-5,-4,-3,-2,0,-1,-0.013785652
13.739304,12,23,0,-2,-3,-1,-1,-1,-0.013785652
13.739313,-2,20,-5,-3,-5,-1,-1,1,-0.013785652
13.753725,-8,-25,7,-3,-1,0,-1,0,-0.013785652
13.753750,4,19,-10,-2,-1,-2,-3,-2,-0.013785652
13.755629,5,11,2,2,0,0,-1,-1,-0.013785652
13.755641,-28,-18,1,-1,-3,0,-1,-3,-0.013785652
13.776189,29,-10,-5,-3,-1,-2,-1,0,-0.013785652
13.776207,-11,-3,1,-1,0,0,-2,-2,-0.013785652
13.777612,14,0,3,-2,1,0,0,0,-0.013785652
13.777655,-25,-11,3,4,-1,0,-2,-2,-0.013785652
13.789905,-9,5,1,0,1,0,-1,1,-0.013785652
13.789929,-2,-4,-6,-6,-4,-3,-2,-3,-0.013785652
13.800857,15,12,-10,-4,-1,-1,-1,-1,-0.013785652
13.800867,13,-48,-4,-2,0,0,0,-1,-0.013785652
13.812709,-7,22,0,-6,-2,-2,-1,-3,-0.013785652
13.812727,5,-45,2,0,3,-1,-2,0,-0.013785652
13.822307,5,0,0,-4,1,-2,-2,-1,-0.016408548
13.822319,6,46,4,2,-2,-2,-1,-1,-0.016408548
13.836355,4,4,-6,-3,0,1,-2,1,-0.016408548
13.836377,-18,-1,6,-7,-4,-3,-1,-1,-0.016408548
13.838247,-5,-6,-4,3,0,-3,-1,-1,-0.016408548
13.838260,17,11,-6,-2,-3,-1,-2,0,-0.016408548
13.849742,-10,-26,-6,-4,-1,-1,-1,-1,-0.016408548
13.849759,15,32,11,-3,-2,-1,-1,-1,-0.016408548
13.860216,8,-16,-1,0,-2,0,-1,0,-0.016408548
13.860222,-18,3,3,1,1,1,0,-1,-0.016408548
13.873608,27,33,1,4,2,-1,-2,0,-0.016408548
13.873625,-10,0,-6,-5,1,1,0,-2,-0.016408548
13.875104,-10,-39,-2,6,-1,0,-1,-2,-0.016408548
13.875121,7,21,0,-3,1,0,0,0,-0.016408548
13.896510,13,-32,-3,-3,0,-2,0,-1,-0.016408548
13.896543,-15,37,-2,0,0,0,-1,-1,-0.016408548
13.899095,15,6,0,-1,-2,-1,-3,-2,-0.016408548
13.899102,4,-17,6,-5,-2,-1,0,0,-0.016408548
13.910099,-12,-9,0,1,-1,-1,-1,-1,-0.016408548
13.910122,9,-3,-1,0,-1,0,0,-1,-0.016408548
13.920092,7,1,-2,1,1,0,-2,1,-0.016408548
13.920107,5,22,-1,1,-5,0,-1,0,-0.016408548
13.933480,-11,22,-2,-2,-1,-1,-2,-2,-0.016408548
13.933488,9,-50,-3,4,1,0,0,1,-0.016408548
13.935215,-7,2,-3,-7,0,-1,0,1,-0.016408548
13.935244,-8,12,-1,4,-1,-2,-1,-2,-0.016408548
13.956172,13,16,7,-6,-3,0,-1,1,-0.016408548
13.956190,-69,-41,-12,11,1,-1,-3,-7,-0.016408548
13.957599,2,-7,-5,-4,-4,-1,1,0,-0.016408548
13.957613,-6,8,6,0,0,-1,-2,-2,-0.016408548
13.970054,-3,4,-3,-3,-3,-1,-2,-3,-0.016408548
13.970080,26,27,11,3,1,-1,-1,2,-0.016408548
13.979913,-12,-12,-11,-7,-3,0,-1,-2,-0.016408548
13.979929,-2,-6,-5,2,0,-1,-2,-1,-0.016408548
13.995469,-10,-6,4,2,2,-1,0,-1,-0.016408548
13.995485,11,2,-3,-4,-2,-1,0,0,-0.016408548
13.995492,-2,28,2,1,-1,-1,-1,-1,-0.016408548
13.995498,14,12,-5,-6,1,-1,-1,-1,-0.016408548
14.016533,-19,-62,-7,-1,-2,1,-1,-1,-0.016408548
14.016558,23,18,6,1,-2,-2,-1,1,-0.016408548
14.019358,-4,-11,4,0,-1,-1,-1,-3,-0.016408548
14.019372,31,40,1,-5,1,-1,-2,-1,-0.016408548
14.029922,-33,-28,-12,6,-1,-2,-1,-2,-0.016408548
14.029962,-4,-2,4,-5,2,-1,0,1,-0.016408548
14.040057,-1,7,0,2,-2,-1,-1,-1,-0.016408548
14.040072,-1,-17,3,4,-2,-1,0,-1,-0.016408548
14.053654,11,14,4,-1,0,-2,0,-1,-0.016408548
14.053674,-10,-7,-8,-6,-4,-1,-2,-3,-0.016408548
14.055254,1,2,-3,-6,-4,-2,0,0,-0.016408548
14.055270,-7,36,0,0,-1,-1,-1,0,-0.016408548
14.076735,-4,-49,0,0,-1,0,0,0,-0.011748626
14.076766,11,23,3,1,0,-1,-2,2,-0.011748626
14.077625,4,-7,1,3,1,-2,0,-2,-0.011748626
14.077644,-15,8,-4,-5,-2,-2,0,-2,-0.011748626
14.089723,10,49,4,-7,-4,-1,-4,-2,-0.011748626
14.089739,-13,-42,-7,1,0,-1,-2,-3,-0.011748626
14.100522,-15,-5,-1,-2,-1,-2,-3,-4,-0.011748626
14.100529,-17,-33,-2,3,1,-2,0,-1,-0.011748626
14.113932,47,47,7,1,1,-1,0,2,-0.011748626
14.113964,-22,-24,-3,-5,-4,-2,-2,-4,-0.011748626
14.115089,5,-37,-5,-1,0,-2,-1,0,-0.011748626
14.115095,-7,-8,-3,1,2,-3,-1,0,-0.011748626
14.136235,-7,-10,0,0,1,-2,0,0,-0.011748626
14.136250,23,27,-1,-3,-1,0,3,3,-0.011748626
14.137690,-21,9,3,4,-2,-2,-1,-2,-0.011748626
14.137717,1,-2,1,-8,-2,0,-2,-2,-0.011748626
14.158655,9,-2,-2,3,-1,-1,-1,-1,-0.011748626
14.159556,-14,6,-1,3,1,0,-1,-1,-0.011748626
14.160051,1,-2,-4,-3,-1,1,-2,0,-0.011748626
14.160092,4,-19,-8,-3,-3,1,0,1,-0.011748626
14.173666,-30,5,-2,-10,-3,-1,-2,-4,-0.011748626
14.173691,8,-1,-3,2,1,-1,-2,-1,-0.011748626
14.175332,8,7,1,-1,0,0,-1,0,-0.011748626
14.175345,-10,-9,4,5,-2,-1,-1,-2,-0.011748626
14.196169,5,-18,-7,-3,0,-1,1,0,-0.011748626
14.196181,20,29,4,-5,-2,-3,-3,-1,-0.011748626
14.197516,-14,4,1,2,-2,-2,-1,-2,-0.011748626
14.197524,-9,-44,-8,-5,0,-3,-2,-1,-0.011748626
14.218606,-7,6,4,1,-2,-1,-2,-1,-0.011748626
14.218626,5,-5,-7,-3,0,0,0,0,-0.011748626
14.220914,13,18,5,2,-1,0,-1,-1,-0.011748626
14.220926,-13,12,-4,-5,-1,-2,-1,-4,-0.011748626
14.233995,4,-13,5,1,-1,0,0,0,-0.011748626
14.234021,-11,-39,-6,3,-4,-1,-2,-4,-0.011748626
14.235942,-15,2,-10,-10,2,0,0,-2,-0.011748626
14.235956,6,17,11,2,-2,-1,-2,-1,-0.011748626
14.256114,-6,-2,4,1,2,-1,-1,2,-0.011748626
14.256140,6,5,3,3,-1,-1,-1,-1,-0.011748626
14.258070,-2,-9,-4,-6,0,0,0,0,-0.011748626
14.258081,9,-6,-6,4,0,-1,0,0,-0.011748626
14.278915,-9,9,-5,0,1,-1,0,-2,-0.011748626
14.278944,4,24,3,-11,-3,-1,-2,-1,-0.011748626
14.281108,-5,-19,-2,12,3,0,0,0,-0.011748626
14.281114,1,-13,-2,-3,-1,0,-2,-2,-0.011748626
14.293663,12,1,-1,-1,-2,0,0,0,-0.011748626
14.293681,1,11,-1,-3,1,-1,0,1,-0.011748626
14.296353,-5,-12,-2,-9,-4,-3,-2,-2,-0.011748626
14.296368,4,48,9,2,0,1,-1,0,-0.011748626
14.316423,-4,-51,-4,1,-3,-1,-2,-3,-0.011748626
14.316448,13,2,2,-2,2,-1,-1,0,-0.011748626
14.319534,-1,7,3,1,1,-1,-1,0,-0.011748626
14.319550,-3,-6,-3,-1,-1,-1,-1,-1,-0.011748626
14.338685,-5,15,1,-1,-3,-4,-1,-2,-0.012505750
14.338705,-3,-9,-5,-4,-2,0,-1,1,-0.012505750
14.340137,3,-6,6,3,0,-3,-2,-2,-0.012505750
14.340215,11,4,-7,-3,-1,-2,-2,0,-0.012505750
14.353138,-2,8,-1,-3,1,0,-1,-2,-0.012505750
14.353151,-4,-12,-4,4,1,-1,-1,0,-0.012505750
14.359748,2,41,1,3,0,-1,-2,0,-0.012505750
14.360666,7,-64,-7,-5,-2,0,-2,-1,-0.012505750
14.376550,-43,-12,-12,0,0,-1,-2,-4,-0.012505750
14.376567,12,14,5,2,-4,-1,0,-1,-0.012505750
14.378192,7,15,0,-2,-2,1,1,0,-0.012505750
14.378202,10,20,3,-5,-3,-1,-1,0,-0.012505750
14.399204,8,0,-4,0,0,0,-3,-1,-0.012505750
14.399212,-10,7,0,2,-1,-2,1,-2,-0.012505750
14.400014,12,-16,-5,-5,-2,0,-1,1,-0.012505750
14.400022,-6,5,14,1,-1,-1,0,0,-0.012505750
14.413313,-9,-10,-1,8,1,1,0,-2,-0.012505750
14.413350,12,9,3,4,-2,-1,-2,-1,-0.012505750
14.420006,0,-9,-9,-1,0,0,0,-2,-0.012505750
14.420025,15,19,-4,-3,0,1,0,1,-0.012505750
14.436253,0,-7,4,3,-2,-1,-2,-1,-0.012505750
14.436278,12,26,-4,5,-2,-1,-1,1,-0.012505750
14.438031,4,-17,4,-6,-3,-3,-3,-3,-0.012505750
14.438044,6,3,-4,-1,-1,1,0,0,-0.012505750
14.459592,-9,-3,-5,-5,-1,-1,-1,0,-0.012505750
14.459622,-8,0,2,-4,-2,-1,1,0,-0.012505750
14.461441,-1,-3,-1,-1,0,-3,-1,0,-0.012505750
14.461448,-10,5,0,3,2,-2,-2,0,-0.012505750
14.473222,20,30,4,-5,-1,-1,-3,-2,-0.012505750
14.473247,-18,-56,-11,-3,-1,-1,-1,-3,-0.012505750
14.480162,-8,18,0,-7,-2,0,-1,-2,-0.012505750
14.480236,-2,-40,-7,4,-1,-4,-3,-3,-0.012505750
14.496478,-2,10,-2,-9,1,-1,-1,-1,-0.012505750
14.496504,-2,3,1,0,-3,-2,-2,-2,-0.012505750
14.497892,1,12,4,3,0,1,1,0,-0.012505750
14.498014,0,24,0,-2,-2,-1,-1,1,-0.012505750
14.518750,-19,-37,-2,-4,-3,-1,0,0,-0.012505750
14.518774,-7,2,1,4,2,2,0,1,-0.012505750
14.521350,15,-3,-3,1,-1,-3,-2,-4,-0.012505750
14.521367,6,-5,-9,-6,0,0,-1,-2,-0.012505750
14.533696,-16,-14,-4,1,-2,-3,-2,-2,-0.012505750
14.533740,22,26,-4,-4,-4,2,-1,2,-0.012505750
14.539774,-16,-26,9,-4,3,0,-2,-2,-0.012505750
14.539792,12,35,7,2,-1,0,0,2,-0.012505750
14.556097,15,-19,-2,-2,0,-2,-1,-1,-0.012505750
14.556116,-28,-23,-5,-2,1,-2,-3,-5,-0.012505750
14.557625,-9,-5,-5,0,-3,0,-1,3,-0.012505750
14.557643,-2,-7,-3,-1,-2,-2,-1,-6,-0.012505750
14.578838,0,18,0,-5,0,-3,-1,-2,-0.012505750
14.579969,5,14,5,-1,-1,-1,-1,0,-0.012505750
14.580016,6,3,1,-3,-3,-3,-1,-2,-0.012505750
14.580054,-15,-7,2,3,0,-1,-2,-1,-0.012505750
14.593675,-1,3,-4,2,-1,1,1,-1,-0.004555945
14.593720,6,-2,1,-1,0,-3,-1,-1,-0.004555945
14.600107,1,3,-5,0,0,1,0,0,-0.004555945
14.600137,-12,-12,-3,-5,0,0,-1,-2,-0.004555945
14.616076,10,6,-1,2,1,-3,-1,-1,-0.004555945
14.616087,0,-10,1,-3,-1,-2,1,-1,-0.004555945
14.617740,-1,11,4,-2,-1,-2,-1,0,-0.004555945
14.617765,1,-9,-12,0,-2,-1,-1,-2,-0.004555945
14.638686,0,54,18,4,2,0,-1,-1,-0.004555945
14.638711,-7,-72,-2,2,-3,0,-1,-3,-0.004555945
14.640543,-17,-7,-1,-2,1,-1,0,1,-0.004555945
14.640556,8,4,3,-5,1,-1,-1,2,-0.004555945
14.652380,0,5,-5,0,-4,-2,-3,-4,-0.004555945
14.652400,4,48,-5,-4,-1,-2,-2,-1,-0.004555945
14.661715,-2,-17,-1,4,0,1,-1,-1,-0.004555945
14.661729,1,6,-5,-2,-1,0,0,-2,-0.004555945
14.677814,-8,-5,2,1,-2,0,1,3,-0.004555945
14.677824,-6,26,5,0,2,-1,-1,1,-0.004555945
14.677827,2,-39,-4,-5,-3,-1,0,-2,-0.004555945
14.677830,-11,2,-4,5,0,-2,-1,0,-0.004555945
14.698796,32,5,9,4,0,1,-1,0,-0.004555945
14.698821,-11,8,2,2,-1,0,0,-1,-0.004555945
14.700952,9,-3,-9,1,0,-1,-2,0,-0.004555945
14.700969,-8,4,8,-4,-2,-1,-1,1,-0.004555945
14.712870,-9,0,-6,-3,-1,-2,-4,-5,-0.004555945
14.712904,0,-4,-9,-7,-1,-1,-2,-1,-0.004555945
14.722671,4,20,11,7,0,-1,0,0,-0.004555945
14.722688,8,-2,2,-2,-3,0,0,0,-0.004555945
14.736280,-8,-7,-3,5,-1,-2,-1,1,-0.004555945
14.736303,-2,6,-1,-7,1,0,-2,0,-0.004555945
14.738303,6,-12,-8,4,-3,-3,-3,-5,-0.004555945
14.738321,-9,-1,3,-2,1,1,0,-2,-0.004555945
14.758671,-9,-12,-6,-1,-3,-1,0,0,-0.004555945
14.758692,2,-1,-1,2,-2,-2,0,0,-0.004555945
14.760189,-8,24,-1,-4,-1,-3,-1,-1,-0.004555945
14.760205,-35,-23,0,1,-2,-2,-2,-2,-0.004555945
14.772282,10,-5,-2,-5,2,0,-1,0,-0.004555945
14.772295,8,-34,-8,-4,-1,-1,-1,-1,-0.004555945
14.782078,1,0,8,-1,0,0,-2,0,-0.004555945
14.782083,-1,20,-2,-1,1,-1,-1,-2,-0.004555945
14.796441,-6,2,-5,-4,0,-1,-1,-2,-0.004555945
14.796473,-3,-1,-1,1,-2,-1,-1,-1,-0.004555945
14.797682,14,26,3,0,-2,0,0,1,-0.004555945
14.797697,-34,-25,-3,-4,-2,-3,-1,-2,-0.004555945
14.818597,18,0,-4,1,2,0,1,0,-0.004555945
14.818617,21,21,-1,1,0,1,-2,0,-0.004555945
14.820360,-24,-18,0,0,-2,-1,-2,-5,-0.004555945
14.820378,13,-45,-5,0,-3,-2,0,2,-0.004555945
14.832792,-4,-8,-3,-7,-5,-1,-1,-1,-0.004555945
14.832805,14,26,3,-2,1,-1,0,-1,-0.004555945
14.841852,13,19,-2,2,0,0,-1,0,-0.000959608
14.841868,11,6,-7,-6,-1,1,-4,-4,-0.000959608
14.856472,12,16,9,6,-2,-3,-2,2,-0.000959608
14.856490,-6,-18,2,1,1,1,-1,-2,-0.000959608
14.858203,-30,-22,-1,6,3,1,-1,-1,-0.000959608
14.858210,9,10,3,7,0,-1,0,-1,-0.000959608
14.879055,0,5,-6,-6,-1,0,-1,0,-0.000959608
14.879070,-21,-41,-3,-5,-3,-1,-2,-2,-0.000959608
14.879999,-2,-6,-3,-2,-2,-3,-2,0,-0.000959608
14.880006,11,12,-3,-2,-2,-1,-1,-2,-0.000959608
14.892349,-10,4,-1,-6,-2,-1,0,-1,-0.000959608
14.892374,-5,0,3,4,0,-2,0,-1,-0.000959608
14.903481,5,-1,-4,-3,-1,-1,-1,-1,-0.000959608
14.903494,8,-2,2,2,0,0,0,-1,-0.000959608
14.916472,-6,1,-4,-2,-2,0,1,0,-0.000959608
14.916495,3,14,-5,-2,-1,0,-3,-1,-0.000959608
14.918028,-2,7,1,-3,-1,-2,-3,-3,-0.000959608
14.918038,14,-6,0,-3,2,0,0,0,-0.000959608
14.938627,-29,-38,-4,0,-4,0,-2,-4,-0.000959608
14.938654,24,24,5,3,5,-2,-2,0,-0.000959608
14.940824,-17,-5,-6,-1,-2,-2,-1,-1,-0.000959608
14.940837,-1,31,3,-4,-2,-2,-3,0,-0.000959608
14.952431,16,-17,0,2,2,1,0,1,-0.000959608
14.952461,-27,-4,-1,-3,-5,-3,-1,-4,-0.000959608
14.963169,8,-3,-5,-2,0,0,0,0,-0.000959608
14.963176,-12,-4,0,-4,-1,-1,-3,-1,-0.000959608
14.976158,0,-4,-2,-3,0,-2,-1,-1,-0.000959608
14.976176,-8,2,2,1,-1,-1,-1,-1,-0.000959608
14.977657,-1,0,1,1,0,1,1,0,-0.000959608
14.977697,9,2,-6,0,-2,-2,0,-2,-0.000959608
14.998617,-14,11,-1,-5,0,-1,-2,-6,-0.000959608
14.998635,5,-7,1,3,-2,-4,-2,-1,-0.000959608
15.000650,-24,-37,-6,-1,0,0,-1,-3,-0.000959608
15.000660,5,24,-11,1,-1,-2,-2,3,-0.000959608
15.012361,-14,-14,13,-2,4,-3,-1,-2,-0.000959608
15.012392,3,8,1,-3,-3,-2,-1,0,-0.000959608
15.022153,14,4,0,0,-1,-3,-3,-1,-0.000959608
15.022162,-4,15,9,8,3,-1,1,1,-0.000959608
15.036001,2,7,-7,-5,-4,-2,0,0,-0.000959608
15.036016,-3,-17,-8,-1,0,-1,-1,-1,-0.000959608
15.044280,-3,5,1,-2,-1,-1,0,-1,-0.000959608
15.044292,-6,-13,-2,-3,-1,-1,1,-1,-0.000959608
15.058707,2,4,-1,3,0,-2,-1,2,-0.000959608
15.060291,39,29,-3,-8,-4,0,2,4,-0.000959608
15.060298,-28,-37,0,0,0,-1,-3,-4,-0.000959608
15.060301,-6,6,7,-3,3,-1,-1,-1,-0.000959608
15.072353,2,-32,-3,5,2,0,0,0,-0.000959608
15.072371,10,15,-2,-1,0,0,-1,0,-0.000959608
15.081438,13,24,-1,-8,-1,-2,1,0,-0.000959608
15.081445,-3,-22,-3,3,-2,-1,-2,-2,-0.000959608
15.097008,12,22,-4,-1,-1,-2,-4,-1,-0.000959608
15.097017,-17,-3,11,-2,0,1,0,-2,-0.000959608
15.102436,12,12,6,5,0,-1,0,1,-0.007003078
15.102458,8,12,5,-3,-1,-1,-2,-3,-0.007003078
15.118793,12,12,-9,1,-2,1,0,2,-0.007003078
15.118821,-36,-18,-2,1,2,-1,-2,-4,-0.007003078
15.120748,-5,-17,-11,-3,-3,-2,-1,-1,-0.007003078
15.120760,16,11,5,0,0,-1,-2,-1,-0.007003078
15.141217,-14,-18,-4,-6,-1,-2,-1,-3,-0.007003078
15.141242,5,26,0,3,-4,0,-2,-2,-0.007003078
15.143777,2,-60,0,2,2,1,1,1,-0.007003078
15.143786,-8,-10,-9,-1,-2,0,0,0,-0.007003078
15.156358,2,7,0,0,-1,0,-1,0,-0.007003078
15.156383,-4,1,12,8,1,0,-1,0,-0.007003078
15.158738,12,39,2,-2,-2,0,-1,0,-0.007003078
15.158749,-4,-44,-5,-4,-2,-1,0,-2,-0.007003078
15.178892,-3,1,-1,4,0,0,0,-3,-0.007003078
15.178925,1,1,0,-4,-5,-3,-1,-1,-0.007003078
15.180329,9,13,-2,-6,-4,-2,-3,-1,-0.007003078
15.181532,-6,4,-8,7,2,0,1,1,-0.007003078
15.200936,-6,16,18,-3,-2,-1,-2,-3,-0.007003078
15.200970,-48,-53,-7,-3,-1,-3,-2,-5,-0.007003078
15.208687,11,52,-2,7,1,-1,-3,-1,-0.007003078
15.208708,5,-38,4,-7,-2,1,1,2,-0.007003078
15.216522,-16,-31,-10,-1,-2,-3,-2,-4,-0.007003078
15.216549,23,22,0,2,-1,0,0,1,-0.007003078
15.219422,-7,-13,-3,-3,-5,-1,-2,-2,-0.007003078
15.219436,-1,9,-5,-5,-2,-2,-3,0,-0.007003078
15.238910,13,0,0,5,0,1,-1,1,-0.007003078
15.238928,-35,-19,8,-1,-1,-2,-2,-3,-0.007003078
15.240183,-15,-8,-3,0,-1,-1,-1,-4,-0.007003078
15.240200,-17,6,-5,-3,-3,-4,-1,-3,-0.007003078
15.261209,6,25,-1,-4,-1,0,-1,1,-0.007003078
15.261233,17,-12,-12,-5,0,-3,-1,-1,-0.007003078
15.263367,11,6,8,6,2,-1,0,2,-0.007003078
15.263382,-11,4,5,4,-2,0,-2,0,-0.007003078
15.275513,2,2,-2,-5,-2,-2,0,0,-0.007003078
15.275531,13,4,-10,1,-3,2,0,2,-0.007003078
15.284504,-11,-7,5,-7,0,-1,-2,-1,-0.007003078
15.284517,-10,-4,1,-5,-1,-3,-2,-6,-0.007003078
15.299545,12,15,-5,-2,2,1,-1,1,-0.007003078
15.299562,-12,14,3,3,0,2,2,1,-0.007003078
15.300412,17,-55,-7,-3,-5,0,-1,-1,-0.007003078
15.300510,3,-5,-2,4,3,1,-1,0,-0.007003078
15.321403,-4,3,1,-4,0,-1,0,-1,-0.007003078
15.323590,4,15,-7,-6,-1,0,-1,-2,-0.007003078
15.323604,-18,0,-6,0,-2,-1,0,-3,-0.007003078
15.323607,6,15,2,-7,0,0,-2,0,-0.007003078
15.335855,-3,-20,-3,5,-2,-1,1,1,-0.007003078
15.335876,3,15,-1,-3,-2,0,-2,0,-0.007003078
15.342264,-1,6,1,-5,-2,-2,0,-1,-0.007003078
15.342318,4,-6,0,2,0,0,1,-1,-0.007003078
15.359091,-3,1,3,3,1,0,-1,-1,-0.018770054
15.359122,6,38,-1,-1,-3,-1,-2,-1,-0.018770054
15.361446,8,-67,-5,-4,0,-1,-3,0,-0.018770054
15.361458,-6,15,4,1,-3,0,-2,0,-0.018770054
15.381349,-9,-5,-2,0,-3,-3,-1,1,-0.018770054
15.381391,15,-4,-4,3,-2,-2,-2,-2,-0.018770054
15.382883,-4,37,2,2,0,-2,-1,-2,-0.018770054
15.382892,-8,-1,0,-2,-1,-1,0,-1,-0.018770054
15.395554,-12,-13,-6,4,-3,-1,0,1,-0.018770054
15.395579,1,-12,7,-3,3,-1,-2,-1,-0.018770054
15.402957,-1,22,-5,2,-1,-1,0,-2,-0.018770054
15.402993,12,-13,-9,-2,-3,-1,-1,-1,-0.018770054
15.418975,12,43,13,-5,-3,-1,-1,-2,-0.018770054
15.419008,-15,-77,-12,-5,-2,-1,-2,-1,-0.018770054
15.421131,6,24,0,0,0,0,1,1,-0.018770054
15.421143,-6,8,5,-3,2,-3,-1,-1,-0.018770054
15.441155,3,1,-2,-1,1,-2,-1,-1,-0.018770054
15.441171,11,5,-2,4,1,-2,-2,-3,-0.018770054
15.442565,-23,-4,5,2,-1,0,-1,-1,-0.018770054
15.442581,14,1,-10,-5,-2,-1,-1,0,-0.018770054
15.456674,-1,11,-2,0,-2,0,-1,-1,-0.018770054
15.456687,-8,-16,5,3,1,-1,-2,-3,-0.018770054
15.462288,23,8,-16,-9,-4,-3,-3,0,-0.018770054
15.462312,-31,-15,2,1,0,0,-2,-3,-0.018770054
15.480136,2,2,8,2,-1,-1,1,0,-0.018770054
15.480162,2,39,3,-3,-1,-1,0,-1,-0.018770054
15.481736,6,-44,-3,-2,-1,0,-2,-1,-0.018770054
15.481742,-7,-18,-8,-1,-1,-2,-2,-2,-0.018770054
15.503814,-5,-13,-8,0,-3,0,0,0,-0.018770054
15.503827,-8,5,-4,-9,-3,0,-1,-1,-0.018770054
15.503830,18,29,3,5,1,-2,1,0,-0.018770054
15.503833,13,14,5,5,0,0,-1,1,-0.018770054
15.516383,-21,-6,1,1,-1,-2,-4,-2,-0.018770054
15.516415,0,-52,-2,-1,-6,-2,-1,-2,-0.018770054
15.522332,5,-4,-2,-1,1,-1,-1,1,-0.018770054
15.522350,0,16,2,-1,-3,1,0,1,-0.018770054
15.538707,9,-3,-5,-2,-1,-2,-1,-2,-0.018770054
15.538733,-18,-17,-2,2,0,-1,-1,-1,-0.018770054
15.540291,-7,42,8,0,1,-1,-3,-3,-0.018770054
15.540313,-3,-43,-5,0,-3,-3,-1,0,-0.018770054
15.561262,16,4,8,3,2,1,-1,1,-0.018770054
15.561295,16,2,-4,-5,-2,-2,-1,1,-0.018770054
15.563283,1,2,-5,-3,-3,-1,0,-2,-0.018770054
15.563290,5,21,-4,1,0,-1,-1,-3,-0.018770054
15.576177,1,-6,-2,-3,-1,-2,-2,-3,-0.018770054
15.576208,10,7,4,-1,0,0,-1,-1,-0.018770054
15.582224,-16,12,1,-1,-2,0,-1,1,-0.018770054
15.582256,7,0,-4,-1,1,-2,-1,-2,-0.018770054
15.598592,-1,-8,-6,-7,-2,-2,1,-1,-0.018770054
15.598632,-3,6,7,3,1,0,0,0,-0.018770054
15.600273,-14,-46,-6,-1,-3,-2,-2,-5,-0.018770054
15.600290,-6,3,1,-4,-4,0,-1,-3,-0.018770054
15.621426,-8,-14,-4,-2,1,-2,-1,-1,-0.008319036
15.621445,18,33,1,-2,2,0,1,0,-0.008319036
15.623318,11,21,-6,-5,-3,0,-2,-1,-0.008319036
15.623332,-26,-49,1,-2,-3,-1,-1,-1,-0.008319036
15.635191,-9,10,8,7,1,0,-1,-1,-0.008319036
15.635225,3,-6,-8,0,-2,-1,-3,0,-0.008319036
15.643928,4,11,2,-7,0,-1,-1,0,-0.008319036
15.643938,-1,6,-1,1,1,-2,-1,-2,-0.008319036
15.661348,9,15,-7,-2,-4,-1,0,-2,-0.008319036
15.661366,-35,-33,-2,-3,0,0,0,-3,-0.008319036
15.661373,6,13,7,5,-1,0,1,2,-0.008319036
15.661378,13,4,-11,-6,1,-1,-2,-2,-0.008319036
15.681767,-10,-2,12,-5,-3,-1,-2,-2,-0.008319036
15.681797,11,14,4,2,-1,-1,-2,-1,-0.008319036
15.683181,-36,-44,-7,-3,-2,-1,-2,-3,-0.008319036
15.683186,8,25,0,-6,-5,-1,-1,1,-0.008319036
15.694933,11,9,2,6,0,0,-1,1,-0.008319036
15.694942,1,-7,-11,-3,1,-1,0,-1,-0.008319036
15.705266,-29,-35,5,5,0,-2,-2,-6,-0.008319036
15.705278,-19,-2,-2,-5,-2,-1,-2,-3,-0.008319036
15.719061,7,0,-6,-1,1,-1,-1,-1,-0.008319036
15.719095,-2,25,-2,-5,-5,-1,-1,0,-0.008319036
15.721245,15,17,10,3,2,-1,1,2,-0.008319036
15.721261,7,27,2,3,0,-1,0,0,-0.008319036
15.741295,-8,-15,-7,-4,-4,-2,-3,-3,-0.008319036
15.741316,-1,-7,0,3,1,-1,-1,1,-0.008319036
15.742632,6,6,-7,-3,-3,-1,-1,-1,-0.008319036
15.742642,1,8,-2,2,1,-1,-1,0,-0.008319036
15.754791,4,5,8,-1,-1,0,1,1,-0.008319036
15.754807,-12,-30,-4,-1,-1,-2,-2,-2,-0.008319036
15.764832,2,15,1,-2,-1,0,-1,-2,-0.008319036
15.764844,1,4,3,2,-1,-3,0,-1,-0.008319036
15.778719,-8,0,-17,-1,-2,0,-1,-2,-0.008319036
15.778737,3,5,13,4,0,0,-1,-1,-0.008319036
15.780333,9,4,0,0,0,0,0,1,-0.008319036
15.780446,8,-5,-8,-3,-4,-1,0,0,-0.008319036
15.801277,4,-9,-2,-3,0,0,1,2,-0.008319036
15.801305,-17,-24,-9,-4,-2,-2,-1,-3,-0.008319036
15.802858,14,28,5,12,1,0,-3,-1,-0.008319036
15.802880,-17,31,5,-2,3,-1,-1,-4,-0.008319036
15.816023,3,-59,-9,1,0,-2,-2,-2,-0.008319036
15.816034,3,10,-5,-4,-2,1,0,1,-0.008319036
15.824585,7,13,2,-2,-3,-1,1,3,-0.008319036
15.824599,-10,-8,-1,-1,0,0,-2,-3,-0.008319036
15.838699,14,16,-5,-4,-2,-3,-2,-1,-0.008319036
15.838726,-18,6,2,-2,0,0,0,-2,-0.008319036
15.840388,1,-12,-5,-7,-2,-2,-2,-2,-0.008319036
15.840412,10,-8,3,4,0,-1,0,0,-0.008319036
15.862526,-14,1,1,-2,-2,2,0,-2,-0.007309534
15.862541,20,12,-3,-1,-2,-3,-2,-2,-0.007309534
15.862830,-29,5,2,-1,0,0,-2,-2,-0.007309534
15.862865,9,-38,-8,-1,-4,0,0,2,-0.007309534
15.875120,-11,-3,-6,-3,-2,-1,-3,-5,-0.007309534
15.875144,13,22,-4,-4,0,-2,-2,-2,-0.007309534
15.884284,-11,9,4,1,0,0,1,-1,-0.007309534
15.884307,5,-44,-11,1,-1,0,-1,1,-0.007309534
15.898960,2,23,4,5,2,1,1,3,-0.007309534
15.898989,20,-8,-6,-2,-1,-2,-3,-2,-0.007309534
15.900263,11,-8,2,-3,3,-1,-2,-1,-0.007309534
15.900268,-17,17,8,0,-1,0,-1,0,-0.007309534
15.920766,-2,-14,-6,-3,-2,-3,-2,-2,-0.007309534
15.923124,4,-5,0,1,1,2,0,-1,-0.007309534
15.923137,14,-8,-5,0,-1,-4,0,-2,-0.007309534
15.923139,-9,-2,-2,-4,-1,-1,-2,-1,-0.007309534
15.943019,5,41,8,-2,-2,-2,-1,-3,-0.007309534
15.943036,-11,-29,1,0,0,0,0,0,-0.007309534
15.943753,11,-13,-6,-3,-4,-2,-3,-2,-0.007309534
15.943816,18,25,3,-1,0,-3,-1,2,-0.007309534
15.957970,-15,-11,-4,0,-1,-3,0,-1,-0.007309534
15.957988,-23,-22,5,-2,-3,-1,-1,-2,-0.007309534
15.958746,-9,-10,6,1,1,0,0,-1,-0.007309534
15.958770,0,0,7,4,1,-1,-1,-3,-0.007309534
15.980637,-9,2,-2,-3,-3,1,-1,1,-0.007309534
15.980664,13,14,-1,1,-4,-2,-3,1,-0.007309534
15.982504,5,10,-11,-3,-3,2,1,3,-0.007309534
15.982518,-50,-18,-4,-4,-3,-2,-2,-6,-0.007309534
16.003562,8,9,2,2,2,-2,0,-1,-0.007309534
16.003574,-11,-18,1,2,0,-1,0,-1,-0.007309534
16.003727,19,-4,-2,-2,-3,-2,-1,-1,-0.007309534
16.003735,-19,-1,-2,-4,-1,-2,-1,-3,-0.007309534
16.018003,-3,-13,-4,-5,-2,-1,-2,-1,-0.007309534
16.018021,1,27,8,-2,-1,-3,-1,-1,-0.007309534
16.018717,-2,-7,-8,5,1,0,0,0,-0.007309534
16.018727,20,-3,-3,0,-2,-2,0,2,-0.007309534
16.040897,-12,3,5,-2,-1,-1,-1,0,-0.007309534
16.040915,3,11,-2,1,-2,-1,-2,-2,-0.007309534
16.041812,-11,5,2,-4,-1,-2,-2,-3,-0.007309534
16.041817,33,32,8,0,-1,-1,1,1,-0.007309534
16.065435,-34,-70,-10,-5,1,0,-2,-5,-0.007309534
16.065444,-2,28,-13,-3,-1,0,1,2,-0.007309534
16.065447,-16,-22,14,-1,-4,-3,-3,-6,-0.007309534
16.065450,18,16,-1,2,2,0,-2,-2,-0.007309534
16.078024,9,17,5,5,0,-1,1,0,-0.007309534
16.078048,3,-23,-9,-2,-1,-1,1,-1,-0.007309534
16.080446,-13,35,-9,-4,-1,1,0,2,-0.007309534
16.080456,-2,-16,-4,0,-1,-1,-1,-1,-0.007309534
16.100787,1,-4,-1,-6,-2,-2,-1,-3,-0.007309534
16.100820,-12,23,3,5,-1,-1,-2,-4,-0.007309534
16.103660,17,-41,-6,-3,-2,-2,-2,-1,-0.007309534
16.103674,-5,8,3,-2,-1,-1,-2,0,-0.007309534
16.123047,10,-12,-7,-2,0,-1,-2,1,-0.005610514
16.123074,-1,9,1,0,-1,0,-1,0,-0.005610514
16.124651,5,16,0,-5,0,-2,-1,-2,-0.005610514
16.124664,-39,-29,-4,-5,-2,0,0,-1,-0.005610514
16.138067,6,7,-1,4,0,0,0,-1,-0.005610514
16.138085,8,-2,2,2,-1,-3,-2,-2,-0.005610514
16.139978,0,-12,-8,1,3,2,0,-1,-0.005610514
16.139992,6,-8,-4,-1,-3,0,0,2,-0.005610514
16.160722,-4,3,7,-8,2,-3,-2,-4,-0.005610514
16.160745,-34,-33,-6,0,-2,0,0,0,-0.005610514
16.161215,-3,3,3,-3,-2,-2,-2,-1,-0.005610514
16.161231,18,10,-3,-2,-1,-1,-1,-2,-0.005610514
16.183680,8,5,-2,2,-3,0,0,0,-0.005610514
16.183712,8,-4,-3,-4,-2,-2,-2,-1,-0.005610514
16.187053,-6,9,1,3,0,0,-1,-2,-0.005610514
16.187066,-8,2,-2,0,-2,2,-1,-1,-0.005610514
16.198365,11,8,4,-1,-2,-1,-2,2,-0.005610514
16.198398,0,-3,2,-1,0,-1,-2,-3,-0.005610514
16.200199,2,28,-3,-1,-2,-1,-2,2,-0.005610514
16.200204,10,33,1,0,-2,-2,-1,0,-0.005610514
16.221580,7,-55,-7,2,0,0,-1,1,-0.005610514
16.221595,-14,-5,1,-4,-2,1,1,1,-0.005610514
16.221598,-14,-7,-4,-6,-4,-3,-3,-3,-0.005610514
16.221600,15,-4,-2,6,2,0,-2,-1,-0.005610514
16.243497,-7,32,0,-5,1,-1,-1,0,-0.005610514
16.243542,7,-3,-1,-1,-2,-3,-1,-1,-0.005610514
16.245459,3,-12,3,-3,0,0,0,1,-0.005610514
16.245465,-3,3,-2,4,1,-1,-1,-3,-0.005610514
16.257982,10,20,8,2,-2,0,-1,0,-0.005610514
16.257999,-10,-28,-10,1,2,1,1,1,-0.005610514
16.258631,-1,4,6,1,-2,-2,-2,-2,-0.005610514
16.258648,-10,14,-7,-4,-4,-4,0,-2,-0.005610514
16.281022,13,-52,-4,-3,0,1,-1,0,-0.005610514
16.281053,17,-21,-3,-4,-4,-2,-3,-2,-0.005610514
16.283671,-11,-8,-8,-3,0,-1,0,0,-0.005610514
16.283689,1,3,0,-1,-1,-2,-1,-1,-0.005610514
16.303342,4,24,-1,2,-1,-2,0,-2,-0.005610514
16.303359,-11,14,2,-3,-3,-1,-1,-3,-0.005610514
16.303979,-4,-6,-2,1,1,-1,0,1,-0.005610514
16.304020,7,-8,4,0,3,-2,0,0,-0.005610514
16.317999,-1,15,-3,1,-3,0,0,-1,-0.005610514
16.318024,27,17,1,0,-1,0,-1,0,-0.005610514
16.320099,-49,2,0,-1,-2,-1,-2,-5,-0.005610514
16.320112,2,-68,-5,-9,-1,-1,-2,1,-0.005610514
16.340791,-34,-44,-6,0,-5,-2,-2,-4,-0.005610514
16.340824,8,-1,-6,11,3,0,-1,0,-0.005610514
16.343189,9,19,5,1,0,0,1,0,-0.005610514
16.343198,4,17,6,-2,-2,-1,-1,0,-0.005610514
16.363071,-3,20,-3,-6,-3,-1,-2,-1,-0.005610514
16.363110,-5,12,8,-2,-1,-1,-1,0,-0.005610514
16.363644,19,-9,-2,6,-2,0,0,2,-0.005610514
16.363679,-10,-21,-3,-2,-2,-1,-3,-1,-0.005610514
16.378065,4,2,-6,-4,-1,-2,-2,-2,-0.006651557
16.378083,16,35,-1,-3,-4,0,2,0,-0.006651557
16.379234,-39,-14,-1,-2,-1,-2,-1,-3,-0.006651557
16.379240,2,-52,5,-2,-1,-2,-1,-4,-0.006651557
16.400801,-4,-8,-1,-2,1,-2,-3,0,-0.006651557
16.400835,-2,-9,-1,7,0,-1,-1,0,-0.006651557
16.403037,22,26,3,0,1,0,-1,0,-0.006651557
16.403051,-5,20,-3,-1,-2,-1,-1,1,-0.006651557
16.424909,-10,1,2,0,-2,0,1,-1,-0.006651557
16.424920,8,27,4,-3,-1,-2,0,0,-0.006651557
16.430835,-9,-53,-24,-6,0,-3,-3,-3,-0.006651557
16.432949,1,40,31,14,-1,2,2,1,-0.006651557
16.438143,0,27,0,2,2,-2,-2,-4,-0.006651557
16.438161,2,-69,-1,-4,1,-1,0,0,-0.006651557
16.440389,14,7,-2,-4,-2,-2,1,1,-0.006651557
16.440401,4,14,-12,-2,-1,1,0,-1,-0.006651557
16.460467,2,13,-2,0,-1,-3,0,0,-0.006651557
16.460528,-19,-3,2,-1,0,-1,-3,-2,-0.006651557
16.461120,1,-15,-4,-3,-2,-1,0,-2,-0.006651557
16.462499,-4,-6,-7,-5,-4,-1,0,-2,-0.006651557
16.483577,17,12,1,-4,-2,-2,-1,0,-0.006651557
16.483600,-31,-8,-5,-2,0,-2,-3,-3,-0.006651557
16.486158,25,10,2,0,-3,1,0,3,-0.006651557
16.486173,-10,23,3,-3,-2,0,0,-1,-0.006651557
16.497946,-27,-18,-2,4,1,-1,-1,-3,-0.006651557
16.497980,36,-29,-3,0,-1,1,-1,-1,-0.006651557
16.500205,-9,0,5,-2,-2,-2,-1,-1,-0.006651557
16.500211,-3,2,-8,-1,0,-1,-1,-2,-0.006651557
16.520570,-10,-14,-9,-2,0,0,1,-1,-0.006651557
16.520587,-12,19,12,-4,-3,-2,-2,-2,-0.006651557
16.521295,18,46,15,8,-3,-1,-1,-1,-0.006651557
16.521302,3,-24,-6,-5,-2,-1,-1,0,-0.006651557
16.543025,-4,-5,1,-3,-2,-2,-1,0,-0.006651557
16.543043,0,11,-9,-2,-2,-1,0,1,-0.006651557
16.544550,-2,-2,-2,0,-2,-2,-1,0,-0.006651557
16.544568,-8,38,0,-9,1,-1,-1,1,-0.006651557
16.558055,13,-26,1,9,1,1,0,0,-0.006651557
16.558074,-18,-28,-9,-3,-3,-2,-3,-4,-0.006651557
16.558984,2,-20,-4,-4,-1,-2,-3,-5,-0.006651557
16.558990,-2,-4,-2,0,-1,0,2,-1,-0.006651557
16.582340,11,49,3,-2,1,1,-1,0,-0.006651557
16.582350,-12,8,0,-2,-3,-1,0,1,-0.006651557
16.582353,-2,-6,-2,-4,-2,0,0,0,-0.006651557
16.582355,11,11,-1,1,1,-2,-2,0,-0.006651557
16.603121,-9,3,0,-2,-1,1,0,0,-0.006651557
16.603143,-21,-51,-2,-2,-3,-1,0,0,-0.006651557
16.604896,-1,-3,-7,-4,3,-2,-3,-3,-0.006651557
16.604909,-15,-14,-7,-3,-3,-2,-1,-1,-0.006651557
16.617717,6,-3,5,2,0,-2,0,0,-0.006651557
16.617748,0,42,3,1,4,0,-1,-2,-0.006651557
16.625681,14,-13,-8,-3,-5,-2,-1,0,-0.008377622
16.625705,-2,-50,-5,3,2,0,-2,-1,-0.008377622
16.640654,7,6,-7,-6,-4,-2,-1,0,-0.008377622
16.640695,13,16,-3,-1,-1,-1,0,0,-0.008377622
16.642301,-8,10,8,0,0,-2,-1,-1,-0.008377622
16.642319,13,0,0,-4,-4,-2,-1,-1,-0.008377622
16.663612,-5,13,-3,0,0,0,-1,-1,-0.008377622
16.663639,5,-46,-1,-2,0,1,1,-2,-0.008377622
16.664182,11,15,3,3,1,-2,0,2,-0.008377622
16.664203,-19,-21,-9,-5,-1,-2,-2,-3,-0.008377622
16.677273,-12,11,2,-3,-1,0,0,-1,-0.008377622
16.678616,-1,10,-2,-4,-2,-3,-1,0,-0.008377622
16.685802,-6,-1,11,8,2,2,0,1,-0.008377622
16.685820,3,-1,-15,-2,-2,0,-1,0,-0.008377622
16.700916,1,14,27,7,5,0,-3,2,-0.008377622
16.700959,0,17,-5,-2,-1,-1,-3,1,-0.008377622
16.703238,2,-25,-8,-5,-3,-1,-1,-1,-0.008377622
16.703252,-10,22,5,6,0,-2,1,0,-0.008377622
16.722988,15,-29,-10,-4,-4,-1,1,1,-0.008377622
16.723003,3,0,-4,-3,-1,-3,-3,-4,-0.008377622
16.723663,6,16,2,-3,-1,1,2,0,-0.008377622
16.723709,-21,-9,1,-1,-1,-2,-4,-4,-0.008377622
16.737373,3,4,-4,-3,-4,-1,0,0,-0.008377622
16.737392,-4,19,8,2,-2,-3,-2,-2,-0.008377622
16.745641,8,9,-14,-1,0,1,1,0,-0.008377622
16.745662,14,-5,-4,-5,-2,-2,-2,0,-0.008377622
16.760512,-11,-48,5,10,1,0,-2,-1,-0.008377622
16.760529,6,48,4,0,-2,1,0,-2,-0.008377622
16.762441,-23,-72,-2,-1,0,-3,-2,-2,-0.008377622
16.762462,10,11,5,3,0,-1,-1,1,-0.008377622
16.786226,-5,13,-13,-3,-6,-1,-2,2,-0.008377622
16.786240,-14,-21,2,-10,3,-2,-2,-2,-0.008377622
16.786243,-6,24,0,5,-2,-1,-1,-3,-0.008377622
16.786246,5,5,-1,0,-2,0,2,0,-0.008377622
16.797677,9,-12,-10,-9,0,-1,-2,-1,-0.008377622
16.797709,-2,3,-2,0,-1,0,0,0,-0.008377622
16.805640,-1,26,5,-3,-5,-3,0,0,-0.008377622
16.807796,-4,-63,-4,-9,1,-1,-1,-3,-0.008377622
16.820808,-5,31,2,0,-1,0,0,-1,-0.008377622
16.820827,7,-36,-3,-3,-1,-1,0,-1,-0.008377622
16.821301,-7,-18,-6,0,1,0,-1,0,-0.008377622
16.822815,16,29,-1,2,-1,-1,-2,-2,-0.008377622
16.843050,21,21,5,-3,0,-2,-1,-1,-0.008377622
16.843884,-52,-34,-5,4,0,-1,-2,-4,-0.008377622
16.843889,-9,5,3,-1,1,-1,-2,0,-0.008377622
16.843892,4,25,3,1,-1,-1,-2,0,-0.008377622
16.857404,-7,-15,-16,-6,-3,-2,-2,-1,-0.008377622
16.857428,17,6,5,1,2,0,-1,1,-0.008377622
16.865285,11,-14,3,4,1,1,2,0,-0.008377622
16.865309,-13,5,-3,-1,1,0,0,0,-0.008377622
16.880522,-20,-23,-1,8,0,-1,-1,-3,-0.008377622
16.880544,16,14,-4,-3,-3,-2,-2,1,-0.008377622
16.881179,8,11,-3,-8,-1,-1,0,-2,-0.008377622
16.881217,-10,12,2,7,1,-1,-1,-1,-0.008377622
16.903229,5,-8,-5,-8,-2,-2,-1,-2,0.003308232
16.903249,2,18,3,3,-1,-2,-1,1,0.003308232
16.904996,-4,3,0,0,-2,0,-2,-1,0.003308232
16.905008,8,-4,3,-1,-2,1,-1,0,0.003308232
16.917644,-16,5,5,1,0,0,-1,-1,0.003308232
16.917678,10,-16,-3,-1,2,-1,-2,1,0.003308232
16.926771,-10,32,3,2,0,-1,-3,0,0.003308232
16.926782,-8,-84,-6,-2,-2,-2,-1,1,0.003308232
16.941610,0,2,5,-6,0,-1,-2,-3,0.003308232
16.941624,25,26,-4,1,0,1,1,1,0.003308232
16.941627,-3,4,-5,-3,-5,-2,0,-1,0.003308232
16.941629,-10,11,0,5,1,-1,0,-1,0.003308232
16.963009,3,19,17,-4,-1,-1,-2,-1,0.003308232
16.963041,-3,-5,-7,2,-1,0,1,1,0.003308232
16.964544,-1,38,7,-3,-1,-1,-1,0,0.003308232
16.964551,-4,-71,-9,-5,-3,-3,-3,-2,0.003308232
16.978107,13,-9,-3,2,-1,0,1,3,0.003308232
16.978140,-30,-2,-3,-4,-2,-1,-3,-5,0.003308232
16.985678,0,-10,-5,-1,-2,0,0,-2,0.003308232
16.985761,17,53,10,-5,2,-1,0,1,0.003308232
17.000910,3,24,0,-1,0,-2,0,-2,0.003308232
17.000947,26,-28,-6,-1,-1,-2,-2,0,0.003308232
17.003729,-21,-24,-9,-6,1,-1,-1,-1,0.003308232
17.003742,-7,21,3,1,-2,-2,-1,-1,0.003308232
17.023066,-15,-4,-4,3,-3,-1,0,-1,0.003308232
17.023091,-4,29,7,-1,2,0,2,1,0.003308232
17.023892,18,-39,-2,3,0,-2,-2,-2,0.003308232
17.023911,10,8,-6,-1,0,0,1,0,0.003308232
17.046447,-7,-5,-2,-5,-2,0,-2,-1,0.003308232
17.046479,1,1,-2,6,-1,0,0,0,0.003308232
17.048189,-10,3,1,-1,-2,1,0,-1,0.003308232
17.048196,-18,23,7,-1,-1,-1,-2,-2,0.003308232
17.060859,6,-46,-8,-2,-3,-1,-2,0,0.003308232
17.060891,6,26,6,-2,0,0,-1,-1,0.003308232
17.062693,1,-8,-6,2,0,0,-1,2,0.003308232
17.062704,1,-2,9,0,-2,0,0,-1,0.003308232
17.082930,6,35,-5,0,1,-1,0,-1,0.003308232
17.082970,-21,-81,-10,-7,-4,-1,-4,-7,0.003308232
17.083779,11,0,-1,-3,-4,-2,-4,0,0.003308232
17.083795,-7,3,-2,-3,0,1,-2,-1,0.003308232
17.106206,20,25,-1,-3,0,-1,2,2,0.003308232
17.106241,-9,-9,3,2,-2,1,0,-1,0.003308232
17.108088,5,2,0,2,-3,-1,-2,0,0.003308232
17.108103,3,2,-2,-10,-1,-1,-3,-4,0.003308232
17.120722,0,-6,2,9,-2,0,-1,0,0.003308232
17.120741,-16,23,0,-5,-2,0,-1,-2,0.003308232
17.122494,-1,21,-1,-2,0,-1,-1,-2,0.003308232
17.122505,11,-38,-1,-2,-4,-3,1,2,0.003308232
17.151475,-2,-23,-12,-1,1,-1,-1,0,-0.004010636
17.151501,-32,-9,11,3,0,-1,-1,-2,-0.004010636
17.153387,12,4,3,1,0,0,-2,-2,-0.004010636
17.153400,-12,20,-4,3,0,-2,-2,-1,-0.004010636
17.166213,4,10,0,-1,-1,-2,1,-2,-0.004010636
17.166241,-17,-25,-7,-2,-2,-3,-2,0,-0.004010636
17.168610,7,7,0,-3,1,-2,0,1,-0.004010636
17.168625,-21,-6,2,1,-2,1,1,-2,-0.004010636
17.180883,12,-13,-7,0,-3,2,-1,0,-0.004010636
17.180899,-11,-11,-7,-16,-3,-3,-4,-3,-0.004010636
17.183279,-9,3,-2,7,5,1,0,-2,-0.004010636
17.183286,15,-36,-1,8,-3,-1,1,1,-0.004010636
17.203160,-15,2,1,-7,2,-2,-3,-2,-0.004010636
17.203187,14,25,-1,5,-1,-1,-1,1,-0.004010636
17.204808,-6,-13,-4,-7,0,0,-1,-1,-0.004010636
17.204826,8,30,-4,-4,-2,-1,0,1,-0.004010636
17.226255,-26,-10,4,-1,-1,-1,-2,-1,-0.004010636
17.226281,16,7,-3,-2,-3,-4,-1,-1,-0.004010636
17.227000,11,7,2,-1,-1,-2,0,1,-0.004010636
17.227019,-16,13,1,0,-1,-2,-2,-2,-0.004010636
17.240717,-17,-23,-4,-1,0,-1,-3,-4,-0.004010636
17.240768,12,15,1,1,0,-1,-2,-2,-0.004010636
17.241319,-16,-12,-1,-2,-1,-1,0,1,-0.004010636
17.241350,6,7,8,2,-1,-2,-2,-1,-0.004010636
17.263310,9,-5,-5,-4,-1,-2,-1,0,-0.004010636
17.263343,-15,36,-6,-4,0,1,1,1,-0.004010636
17.264169,20,-41,-4,4,-2,-2,-2,-1,-0.004010636
17.264173,-13,-11,-5,-8,-2,-1,-2,-2,-0.004010636
17.286370,-16,-9,-1,5,-2,-2,-1,-2,-0.004010636
17.286390,18,31,4,-1,1,0,-2,1,-0.004010636
17.286946,-10,8,-2,-4,-1,-1,0,0,-0.004010636
17.286958,10,-3,-3,-4,-3,-1,1,1,-0.004010636
17.300458,-6,9,6,3,2,-1,-1,-3,-0.004010636
17.300468,12,-14,0,3,0,0,1,0,-0.004010636
17.301253,-8,3,-2,-1,1,1,0,-1,-0.004010636
17.301270,3,28,3,1,-2,-1,-2,-3,-0.004010636
17.323172,-1,-49,1,-4,-3,-1,-1,-1,-0.004010636
17.325437,16,18,0,0,0,-1,-2,3,-0.004010636
17.325443,-21,-12,-10,-9,-3,-1,-3,-3,-0.004010636
17.325446,17,25,6,3,1,0,1,-1,-0.004010636
17.346156,0,14,5,0,-3,-1,0,1,-0.004010636
17.346174,0,12,1,3,0,0,0,-1,-0.004010636
17.346856,6,-26,-2,4,-4,-2,-1,-3,-0.004010636
17.346888,-34,2,-6,-7,0,0,-1,0,-0.004010636
17.361033,6,6,-4,-3,4,0,-2,-3,-0.004010636
17.361044,-6,-16,-4,2,-3,-2,-4,-2,-0.004010636
17.361184,-1,25,16,-2,1,0,0,1,-0.004010636
17.361204,6,-5,-6,-1,-3,0,1,-1,-0.004010636
17.383211,-1,-6,2,-2,0,-2,-2,-1,-0.004010636
17.383227,-3,7,0,1,0,-1,1,1,-0.004010636
17.385703,11,23,4,0,-1,1,2,1,-0.004010636
17.385719,-1,7,-2,7,-1,-1,-1,-1,-0.004010636
17.407979,4,6,-4,-3,-2,-2,0,-2,-0.007494307
17.407990,-3,-7,-2,-2,-1,-3,-2,-2,-0.007494307
17.407992,-10,-5,-1,-7,-3,-2,-4,-2,-0.007494307
17.407995,-18,-24,0,-1,0,2,-2,-1,-0.007494307
17.420412,-1,-8,-14,4,-4,-1,-2,-2,-0.007494307
17.420432,0,-10,12,-3,-1,-2,-1,-2,-0.007494307
17.428463,7,2,8,0,1,1,-2,-1,-0.007494307
17.428495,14,-14,-7,2,-1,-1,0,-1,-0.007494307
17.443199,-1,-4,-2,-3,-2,-2,0,1,-0.007494307
17.443223,6,-8,-5,-4,-1,-1,-1,-1,-0.007494307
17.445352,7,21,-9,-2,-2,-3,-1,0,-0.007494307
17.445367,-2,2,6,-1,2,-1,-2,-5,-0.007494307
17.466215,-2,6,2,-6,0,1,-2,-2,-0.007494307
17.466240,3,8,-2,1,-3,-1,-1,0,-0.007494307
17.469303,-14,-24,-9,-2,-3,-2,0,-1,-0.007494307
17.469316,10,0,-6,4,0,-1,-1,0,-0.007494307
17.480889,3,18,5,-1,1,-1,-1,0,-0.007494307
17.482285,4,-10,3,3,-2,-1,-1,-1,-0.007494307
17.482291,-21,-19,-4,0,-3,-1,-2,-4,-0.007494307
17.482380,9,22,-1,-4,-1,-3,-1,-3,-0.007494307
17.503150,-3,-23,-2,-7,-1,-1,0,1,-0.007494307
17.503169,22,11,-5,-1,-1,-1,0,0,-0.007494307
17.503966,0,-3,-5,-3,-3,-2,-3,-1,-0.007494307
17.503978,0,12,-4,1,1,-1,-1,0,-0.007494307
17.526297,-4,-1,1,-1,-2,-1,-2,0,-0.007494307
17.526314,-6,10,1,1,0,0,0,0,-0.007494307
17.527681,-6,-6,-1,1,0,-1,1,0,-0.007494307
17.527694,6,3,-4,-4,-2,-1,-1,0,-0.007494307
17.540552,8,14,-3,1,-1,-3,-2,-3,-0.007494307
17.540571,15,-17,-12,-9,-1,-2,-1,-2,-0.007494307
17.541438,-30,6,11,8,3,-2,-3,-4,-0.007494307
17.541444,-4,-45,-1,-4,-2,-2,-1,2,-0.007494307
17.564857,-10,-7,5,4,-4,-3,-2,1,-0.007494307
17.564873,12,-1,1,1,-1,-2,-2,-3,-0.007494307
17.564879,1,8,-11,-5,-5,-2,0,-1,-0.007494307
17.564884,9,38,6,-5,1,-2,0,-1,-0.007494307
17.586467,-8,-24,-3,0,0,0,-1,-1,-0.007494307
17.586486,-18,-4,-2,2,0,0,0,-1,-0.007494307
17.588339,11,-7,-1,-8,5,0,1,-1,-0.007494307
17.588353,-8,4,-7,-7,-2,-1,-1,-1,-0.007494307
17.600201,14,1,8,3,-1,0,1,0,-0.007494307
17.600232,-42,-19,-2,6,0,-1,-2,-2,-0.007494307
17.610293,-5,-1,3,2,0,-1,0,0,-0.007494307
17.610300,-1,-16,-4,-1,1,-2,-2,-1,-0.007494307
17.623138,0,38,-4,-4,0,-1,-1,-2,-0.007494307
17.623165,0,-40,2,-5,-1,0,0,-1,-0.007494307
17.624834,13,-3,-2,3,-3,1,-2,-1,-0.007494307
17.624849,-3,-11,-7,-2,-1,0,-2,1,-0.007494307
17.646580,-15,29,7,0,-3,-1,0,0,-0.007494307
17.646612,11,16,-4,1,-3,-1,-1,-3,-0.007494307
17.647845,-1,-17,2,-2,0,-1,-2,-5,-0.007494307
17.647850,10,16,1,-2,-3,-1,-1,-1,-0.007494307
17.659926,-19,1,-5,1,-2,-2,-1,-2,-0.007458256
17.659944,10,-2,3,-4,1,-1,1,1,-0.007458256
17.668436,7,2,-1,-2,-1,-2,0,-2,-0.007458256
17.668454,1,26,-1,2,-4,-1,-1,-2,-0.007458256
17.683557,14,-18,-2,-9,1,-1,0,-1,-0.007458256
17.683589,-20,-15,-2,-6,-3,-2,-1,-2,-0.007458256
17.685979,2,26,-5,2,-3,-3,-3,-3,-0.007458256
17.685992,-7,-33,3,-6,0,0,0,-3,-0.007458256
17.706312,12,30,-5,9,-1,1,1,1,-0.007458256
17.706331,5,-17,3,3,1,0,-1,1,-0.007458256
17.707795,0,-10,5,2,0,-1,0,2,-0.007458256
17.707808,6,18,3,0,-1,-2,-2,1,-0.007458256
17.720096,-20,-34,-16,-9,-3,-2,-3,-2,-0.007458256
17.720115,6,29,-3,-1,-2,-2,-1,-1,-0.007458256
17.728046,-10,-28,10,-6,1,-1,-2,1,-0.007458256
17.728071,11,20,-2,2,-1,-2,0,-2,-0.007458256
17.743807,6,-49,-4,-1,0,-1,-1,-1,-0.007458256
17.743831,-7,5,-1,0,-2,0,-2,1,-0.007458256
17.745746,-3,11,-2,1,-2,0,-1,1,-0.007458256
17.745759,3,2,-6,3,-1,-1,-1,-2,-0.007458256
17.766117,16,11,8,1,-2,-2,-1,1,-0.007458256
17.766127,-28,-8,9,-3,-3,-1,-1,-2,-0.007458256
17.766810,8,9,-5,6,2,-1,0,-1,-0.007458256
17.766818,1,3,1,1,0,1,-4,-1,-0.007458256
17.779851,0,-32,-6,-4,-1,-2,-1,0,-0.007458256
17.779860,8,0,-1,0,-2,-2,-1,-2,-0.007458256
17.788094,-1,4,-8,-4,-2,-1,2,-2,-0.007458256
17.788113,-11,-1,9,1,-1,-1,0,-1,-0.007458256
17.803319,18,30,-2,-5,-1,0,0,1,-0.007458256
17.803343,-28,0,-1,0,2,-3,-2,-2,-0.007458256
17.805057,11,-34,-3,-1,0,-2,-1,0,-0.007458256
17.805065,-1,-1,-6,-1,-1,-1,0,-1,-0.007458256
17.827530,3,13,4,1,1,-2,-3,-2,-0.007458256
17.827539,1,7,1,2,1,1,0,2,-0.007458256
17.827541,3,17,-4,-3,-2,0,-1,-2,-0.007458256
17.827544,-4,-10,-2,-3,0,0,2,2,-0.007458256
17.842331,-8,14,5,-1,0,-2,-1,0,-0.007458256
17.842343,11,2,-2,4,0,0,-2,-2,-0.007458256
17.848332,-1,7,-1,-3,0,0,-2,0,-0.007458256
17.848358,-18,-10,0,2,-2,0,-2,-1,-0.007458256
17.863321,-2,-16,-7,-4,-3,-3,0,-4,-0.007458256
17.863353,3,0,-7,-2,-2,-2,-1,-1,-0.007458256
17.865256,0,1,8,-4,-3,0,0,0,-0.007458256
17.865261,-2,3,-3,-8,2,-3,-2,-1,-0.007458256
17.886342,-2,10,10,10,1,0,-1,-1,-0.007458256
17.886360,13,19,0,-2,-2,1,0,1,-0.007458256
17.888105,4,8,-7,-1,-1,-1,0,-3,-0.007458256
17.888117,-9,-51,-6,1,-3,-1,-2,-2,-0.007458256
17.900505,13,16,-1,-11,-4,-1,-1,2,-0.007458256
17.900537,-20,-29,-8,1,1,0,0,-1,-0.007458256
17.908041,14,26,5,5,0,-1,-1,-1,-0.009441201
17.908059,2,27,4,4,-1,0,-1,-2,-0.009441201
17.923165,-10,-73,-6,-1,-1,-2,-1,-2,-0.009441201
17.923190,14,21,-1,-5,-1,-2,1,1,-0.009441201
17.923978,-11,-8,-5,-5,-1,-1,-2,0,-0.009441201
17.923996,4,7,-1,-2,-2,-2,-2,-1,-0.009441201
17.946588,-5,5,2,0,-1,-1,-2,-2,-0.009441201
17.946621,-2,1,-1,-1,1,0,0,-1,-0.009441201
17.947940,-9,-10,-2,-1,1,-2,-1,0,-0.009441201
17.947946,11,5,2,0,0,-1,-2,0,-0.009441201
17.968789,-20,5,-4,-1,-4,1,-1,0,-0.009441201
17.968815,-19,-19,-1,0,-1,0,-2,-5,-0.009441201
17.969612,-5,-4,-1,-1,-1,0,-1,1,-0.009441201
17.969637,15,10,8,2,2,-1,2,1,-0.009441201
17.984402,-18,11,-11,0,1,1,-2,-5,-0.009441201
17.984433,-9,-76,0,-1,-3,0,-3,-1,-0.009441201
17.984634,-1,14,-1,-2,-1,0,-2,-1,-0.009441201
17.984642,-6,-21,1,2,-1,-1,1,0,-0.009441201
18.006445,6,39,5,9,1,-1,0,1,-0.009441201
18.006464,19,9,-3,-2,-1,-1,0,1,-0.009441201
18.008428,-10,-2,3,-4,-1,-2,-1,-1,-0.009441201
18.008443,-19,-38,-11,-6,-2,-2,-3,-3,-0.009441201
18.029300,9,8,-1,-5,-1,0,-1,-2,-0.009441201
18.029310,-3,18,-1,0,-3,-3,-2,0,-0.009441201
18.029343,13,0,-1,-2,-4,-3,0,1,-0.009441201
18.029346,-1,1,-2,-1,-1,-2,-1,-1,-0.009441201
18.044612,-2,-4,4,0,-1,0,0,-1,-0.009441201
18.044623,-1,37,-2,-2,-2,-1,0,0,-0.009441201
18.044625,3,-36,0,-2,-1,-1,-1,0,-0.009441201
18.044628,-19,-2,0,1,-2,2,1,-2,-0.009441201
18.066197,17,12,-4,-10,-5,-3,-2,1,-0.009441201
18.066215,-4,-13,-3,-5,-1,-1,-2,-2,-0.009441201
18.067207,-10,3,-5,0,-4,0,-1,-4,-0.009441201
18.067213,1,13,12,-1,3,-2,-1,-1,-0.009441201
18.089853,-5,-7,7,6,0,0,1,1,-0.009441201
18.089864,8,18,5,0,0,0,-1,2,-0.009441201
18.089867,-9,-6,-5,-2,-2,-1,0,-2,-0.009441201
18.089869,3,-13,-10,-3,-4,0,-1,0,-0.009441201
18.103361,5,9,2,0,0,-1,0,-2,-0.009441201
18.103380,13,11,0,-1,-4,0,-2,-3,-0.009441201
18.105332,-26,6,-7,-1,1,-2,-1,-2,-0.009441201
18.105344,-6,-40,1,-1,0,-1,-2,-2,-0.009441201
18.126648,0,-22,-3,1,-1,-2,-1,1,-0.009441201
18.126789,-6,3,5,-5,-2,-2,1,-1,-0.009441201
18.126985,21,19,-4,6,-2,-1,0,-1,-0.009441201
18.127000,-9,23,7,2,2,-1,-2,0,-0.009441201
18.149278,-19,1,3,-1,-1,-2,-3,-6,-0.009441201
18.149321,8,-17,-7,2,-1,-1,-1,2,-0.009441201
18.152178,6,11,8,-4,-3,0,-3,1,-0.009441201
18.152195,4,-1,-5,3,3,0,0,0,-0.009441201
18.163057,6,-2,-4,2,-1,1,0,0,-0.009792722
18.163082,-2,40,5,-3,3,0,0,0,-0.009792722
18.164353,-2,-66,-9,-4,-2,-2,-2,-2,-0.009792722
18.164358,13,3,-7,-2,-4,0,0,0,-0.009792722
18.186307,-53,-12,-4,-3,-3,-2,-1,-4,-0.009792722
18.186324,-2,-9,-5,-4,1,-2,0,-1,-0.009792722
18.187254,9,16,4,1,2,-2,-1,0,-0.009792722
18.187272,2,0,-2,-3,-2,-2,-2,-1,-0.009792722
18.209459,5,1,2,-2,-1,0,-2,0,-0.009792722
18.209495,10,3,-3,-3,-2,0,1,0,-0.009792722
18.211831,3,15,2,0,0,-1,-1,1,-0.009792722
18.211837,-34,-53,-2,1,-4,-1,-2,-2,-0.009792722
18.223109,8,11,-1,-4,-2,-3,-2,-3,-0.009792722
18.223127,-1,8,-2,0,0,0,-1,-1,-0.009792722
18.225587,38,6,1,1,-4,0,1,2,-0.009792722
18.225594,-23,-8,-5,1,-1,-2,0,-1,-0.009792722
18.246431,-8,-7,-1,-7,-1,0,0,1,-0.009792722
18.246443,6,3,2,2,-1,-2,-2,0,-0.009792722
18.246905,-1,24,0,1,-2,1,1,-1,-0.009792722
18.246939,17,21,-2,-2,2,-1,-2,-2,-0.009792722
18.268828,4,-25,-13,1,-1,-3,0,0,-0.009792722
18.268847,-7,27,7,4,1,-1,-2,1,-0.009792722
18.270948,-24,-33,10,1,2,0,-2,0,-0.009792722
18.270963,22,37,0,-5,-3,0,-1,0,-0.009792722
18.283429,7,-43,-5,-6,1,0,-1,1,-0.009792722
18.283458,-1,-8,-6,2,-3,-1,-1,-3,-0.009792722
18.285339,-14,-12,-4,-3,-1,-1,-2,-2,-0.009792722
18.285354,-1,5,0,0,-2,-2,1,-2,-0.009792722
18.306248,18,38,0,3,-2,-1,-1,2,-0.009792722
18.306272,-5,-15,-5,-2,-1,-1,-1,1,-0.009792722
18.308331,-6,-11,0,-2,0,-2,1,0,-0.009792722
18.308345,14,13,-1,-3,-2,-2,-1,0,-0.009792722
18.329159,6,13,-1,1,1,1,-3,-1,-0.009792722
18.329187,-1,-13,2,-2,-3,-1,0,-1,-0.009792722
18.329922,-7,-1,-1,-3,2,0,0,-3,-0.009792722
18.329949,-4,0,-3,0,-3,-2,0,1,-0.009792722
18.343164,-4,29,7,-1,1,-2,1,-1,-0.009792722
18.343187,20,-60,-4,-5,-1,-1,0,1,-0.009792722
18.343736,-31,10,-6,-1,-1,-3,-4,-4,-0.009792722
18.343779,0,-3,0,3,1,0,1,-1,-0.009792722
18.366385,-32,-5,-5,-2,-2,-2,-2,-2,-0.009792722
18.366403,8,7,-3,-5,0,-2,0,0,-0.009792722
18.369058,13,3,-5,-10,-4,-3,1,0,-0.009792722
18.369078,3,-13,1,5,-2,-1,-1,-1,-0.009792722
18.388836,3,37,2,2,-1,1,-1,1,-0.009792722
18.388854,2,5,1,5,0,0,0,-4,-0.009792722
18.389519,-15,-11,-3,-2,-2,-1,0,-2,-0.009792722
18.389556,0,10,-6,-7,-1,-2,-4,-4,-0.009792722
18.403107,11,-7,5,1,-1,-1,-2,-2,-0.009792722
18.403129,-3,3,0,-1,-2,-1,-1,-2,-0.009792722
18.403842,6,38,7,3,3,0,0,1,-0.009792722
18.403860,-12,-41,-5,-2,2,0,-2,-3,-0.009792722
18.426328,-29,-40,-1,1,-2,-2,0,-2,-0.010712088
18.426353,-3,0,0,0,0,1,0,-1,-0.010712088
18.428135,-2,-3,-1,4,-1,-1,0,-2,-0.010712088
18.428141,10,32,1,-2,-2,-1,0,1,-0.010712088
18.450069,11,25,-4,0,-4,-1,0,1,-0.010712088
18.450078,-6,-33,-8,-10,-1,-2,-2,-2,-0.010712088
18.450080,-2,9,0,8,3,0,0,0,-0.010712088
18.450083,-15,-12,7,5,0,0,-1,-1,-0.010712088
18.464858,26,0,-7,-1,0,-1,1,1,-0.010712088
18.464869,-28,0,2,-3,-2,-2,-1,-2,-0.010712088
18.464871,1,20,-10,-10,-5,-2,-3,-1,-0.010712088
18.464874,8,-53,-6,-4,-1,-2,-3,-1,-0.010712088
18.486435,-8,1,5,1,1,1,0,-2,-0.010712088
18.486456,9,5,-3,5,-3,0,0,1,-0.010712088
18.488365,1,-4,0,0,-1,-2,-1,-2,-0.010712088
18.488521,-39,-16,-6,-4,-1,0,0,-3,-0.010712088
18.511678,-2,-1,-5,-4,-4,-2,-2,-2,-0.010712088
18.511687,5,12,0,3,0,-1,-1,2,-0.010712088
18.511690,-9,-15,-2,0,0,0,-1,-2,-0.010712088
18.511692,25,27,6,0,-2,0,1,2,-0.010712088
18.523468,3,2,-3,-3,1,-1,-1,-2,-0.010712088
18.523500,-5,-19,1,-1,-2,-1,-1,-2,-0.010712088
18.525495,5,-17,1,0,-1,-1,-3,-2,-0.010712088
18.525510,6,17,0,0,-2,-2,-1,0,-0.010712088
18.546392,-7,-8,-2,-3,0,1,-2,-2,-0.010712088
18.546417,8,37,-2,-3,-3,-1,-3,-1,-0.010712088
18.548216,-6,-32,-3,3,0,-1,1,3,-0.010712088
18.548222,27,23,-2,-7,2,-3,-2,-2,-0.010712088
18.569125,-29,-56,-5,6,0,-2,-2,-1,-0.010712088
18.569145,-17,8,-3,-5,-1,-1,-1,-2,-0.010712088
18.571628,5,10,2,3,-1,1,-1,-1,-0.010712088
18.571641,8,28,0,-3,-2,1,-1,2,-0.010712088
18.583591,10,5,5,-2,0,-1,-1,2,-0.010712088
18.583623,7,0,14,5,-1,-1,-3,-2,-0.010712088
18.590962,4,-11,-5,-7,-1,-2,-1,-1,-0.010712088
18.590987,-15,-7,-5,-2,-2,0,2,1,-0.010712088
18.606264,7,28,-3,-3,0,-1,-1,-1,-0.010712088
18.606289,1,-35,-7,-2,0,-2,-1,1,-0.010712088
18.607124,-4,-3,0,1,-4,-4,-2,-2,-0.010712088
18.607144,-1,0,4,5,0,-1,-2,0,-0.010712088
18.628878,5,7,0,0,-3,-3,-1,-3,-0.010712088
18.628902,6,30,-3,-3,-1,-1,0,-1,-0.010712088
18.631171,-19,-14,-1,-1,-3,-2,-2,1,-0.010712088
18.631179,1,5,-4,-3,-4,-2,-2,-5,-0.010712088
18.642667,9,2,-10,0,-2,1,1,2,-0.010712088
18.642684,-1,-2,4,3,3,0,-1,0,-0.010712088
18.650737,-11,-15,-2,-1,0,0,-1,-1,-0.010712088
18.650756,-3,-3,-2,0,-2,-3,-2,-2,-0.010712088
18.666563,-5,-7,5,-5,-3,-1,-2,-3,-0.010712088
18.666571,4,0,-3,0,-1,-1,0,-2,-0.010712088
18.666921,6,66,9,-1,0,0,0,1,-0.010712088
18.666928,-10,-89,-5,1,-5,-2,-3,0,-0.010712088
18.688920,19,2,-3,-8,-1,-2,-3,-4,-0.016259825
18.688940,-22,-21,-14,1,-2,0,-1,-3,-0.016259825
18.691277,16,23,3,-2,-2,-1,0,-2,-0.016259825
18.691287,-3,36,16,2,2,0,2,0,-0.016259825
18.702695,5,-30,-3,1,-1,-1,0,1,-0.016259825
18.702723,2,-1,1,-2,-3,-2,-2,0,-0.016259825
18.710674,0,-7,-10,0,-4,-1,-1,-1,-0.016259825
18.710692,3,0,-4,-6,1,0,1,0,-0.016259825
18.727800,5,4,3,3,0,-1,-3,-2,-0.016259825
18.727815,-6,15,2,-1,-1,-1,-1,-2,-0.016259825
18.727821,-6,-29,5,-1,1,2,0,0,-0.016259825
18.727827,10,49,-4,4,2,0,0,0,-0.016259825
18.749736,-6,-57,0,1,-1,-2,-1,-1,-0.016259825
18.749761,-5,-1,4,2,-2,-2,-1,-1,-0.016259825
18.753210,18,7,-5,-7,2,-3,1,1,-0.016259825
18.753222,-14,0,-3,-4,0,0,-3,-2,-0.016259825
18.762369,8,45,2,4,0,2,0,3,-0.016259825
18.762385,-12,-17,-3,-17,-3,-3,0,0,-0.016259825
18.770788,-6,-14,2,14,0,-2,-1,-2,-0.016259825
18.770806,0,-8,-2,-1,-3,-3,-2,-3,-0.016259825
18.786474,-14,2,-3,1,0,0,0,-1,-0.016259825
18.786493,19,15,-3,-2,-1,1,-2,-2,-0.016259825
18.788653,0,0,12,-6,-2,-2,-1,-1,-0.016259825
18.788665,-3,-8,-4,-3,-1,-1,0,-1,-0.016259825
18.807880,-5,4,-2,0,1,-1,1,-2,-0.016259825
18.807892,1,-3,5,7,1,1,0,1,-0.016259825
18.815628,1,4,-8,-3,-1,1,0,0,-0.016259825
18.818551,1,29,3,1,-3,-2,-1,0,-0.016259825
18.822494,-10,-45,-3,-7,-2,-1,-1,-1,-0.016259825
18.822519,5,-9,-5,-1,-1,-2,-1,-2,-0.016259825
18.830635,-12,-28,-6,-1,-3,-1,0,-2,-0.016259825
18.830668,5,7,4,3,1,0,1,0,-0.016259825
18.846776,1,30,1,0,0,-1,1,0,-0.016259825
18.848593,-5,3,1,-1,1,0,0,0,-0.016259825
18.848599,0,-6,-4,1,-2,-2,-1,1,-0.016259825
18.848601,-5,-2,-4,-5,-4,-2,-2,-3,-0.016259825
18.870409,8,12,-1,1,3,-2,-1,-1,-0.016259825
18.870424,-16,-7,5,5,0,0,0,-1,-0.016259825
18.870427,15,8,-9,-8,-5,-4,-3,-2,-0.016259825
18.870429,-15,-13,9,-2,-1,0,0,0,-0.016259825
18.882978,9,14,-5,7,-2,-2,-1,-1,-0.016259825
18.883024,-9,-26,-5,-1,0,-2,-3,0,-0.016259825
18.890715,-13,4,-3,1,3,1,0,-1,-0.016259825
18.890742,2,-33,-5,-2,1,-1,0,1,-0.016259825
18.904944,3,19,3,-4,-3,-2,-2,-1,-0.016259825
18.904962,0,-3,-1,-1,-2,-3,0,0,-0.016259825
18.916114,30,23,-1,1,0,1,1,1,-0.016259825
18.916131,-45,-43,-5,0,-3,-2,-3,-4,-0.016259825
18.928877,-18,-11,-3,-13,-1,-1,-3,-5,-0.016259825
18.928901,1,27,-2,6,0,-1,-2,-1,-0.016259825
18.930801,-5,-4,3,3,2,-1,-1,0,-0.018436558
18.930812,18,12,3,-1,-1,-2,-2,1,-0.018436558
18.952199,-7,-11,-3,0,0,0,-1,1,-0.018436558
18.952232,-3,-2,0,-2,-3,-1,0,1,-0.018436558
18.954135,12,33,2,0,-2,0,-1,-1,-0.018436558
18.954153,-7,-24,-4,-2,0,0,0,0,-0.018436558
18.964866,3,14,1,-3,1,-1,-2,-4,-0.018436558
18.964909,2,0,1,1,-2,-4,-3,1,-0.018436558
18.974852,15,-12,8,0,0,0,-1,-1,-0.018436558
18.974873,-16,11,-3,2,-1,0,1,-2,-0.018436558
18.988888,25,-8,-4,1,-2,0,0,-2,-0.018436558
18.988913,2,15,-8,-5,-1,-1,-2,-4,-0.018436558
18.990678,0,5,-2,-3,-2,-1,-3,-2,-0.018436558
18.990793,10,-4,2,-3,0,-1,-1,0,-0.018436558
19.011201,0,-6,3,2,0,-2,1,2,-0.018436558
19.011212,2,-11,-5,-7,-1,0,-1,0,-0.018436558
19.012675,-3,-1,-6,-1,-4,-1,-1,-2,-0.018436558
19.012710,-3,-7,-8,-2,-2,-1,-1,-3,-0.018436558
19.026398,-9,24,6,2,-1,-1,-1,1,-0.018436558
19.026409,3,5,1,0,3,1,2,1,-0.018436558
19.035582,-8,-30,-5,-2,-3,-2,-2,-1,-0.018436558
19.035599,6,2,-4,-1,0,-2,-1,0,-0.018436558
19.049084,8,-10,-2,4,-4,0,-2,-1,-0.018436558
19.049120,-5,2,1,-2,-3,0,-1,-3,-0.018436558
19.051212,-3,19,-2,-6,2,-2,0,1,-0.018436558
19.051228,31,29,6,6,3,-2,0,0,-0.018436558
19.071340,-8,-13,-4,-8,-5,-2,-3,-4,-0.018436558
19.071359,0,7,3,2,3,0,-1,-3,-0.018436558
19.073107,-13,-14,-4,-6,-3,-2,1,0,-0.018436558
19.073119,24,40,-8,-5,-2,0,-1,0,-0.018436558
19.085898,-9,-4,5,-3,0,0,0,1,-0.018436558
19.085935,3,-25,2,4,-5,-2,-1,-1,-0.018436558
19.092523,-6,-9,0,-1,-1,-1,-1,-4,-0.018436558
19.092541,-1,-11,-4,-1,0,0,0,1,-0.018436558
19.108986,5,28,1,0,1,1,-1,0,-0.018436558
19.109011,-14,0,-5,-3,-2,-1,-1,-2,-0.018436558
19.110378,-7,-1,7,2,0,0,-1,0,-0.018436558
19.112260,16,11,2,0,-1,-2,-2,-1,-0.018436558
19.131551,-23,-18,-8,-4,-2,-2,-2,-3,-0.018436558
19.133105,-6,-12,-2,0,0,-2,-1,0,-0.018436558
19.133111,-2,-8,3,-4,0,0,-2,-3,-0.018436558
19.133114,-8,19,6,2,-3,-2,-1,-2,-0.018436558
19.145979,9,7,-4,-2,-3,-2,0,1,-0.018436558
19.146013,-29,-49,-10,-2,-1,0,1,-2,-0.018436558
19.152587,-1,20,1,-1,2,-1,-1,-1,-0.018436558
19.152605,-19,-39,-2,-2,-1,-1,0,-1,-0.018436558
19.168858,19,40,4,-3,0,-1,0,-1,-0.018436558
19.168875,7,20,4,5,-1,0,-1,-1,-0.018436558
19.170365,2,-9,-4,0,-2,-1,-1,-1,-0.018436558
19.170382,-5,13,5,-1,-1,0,-1,-1,-0.018436558
19.191465,-14,-19,-6,1,0,-1,-2,-1,-0.020162619
19.191502,11,7,0,-7,0,-1,-2,-3,-0.020162619
19.192747,-4,-1,-4,-2,-1,-1,-1,1,-0.020162619
19.192776,2,-6,-2,-1,0,-1,-1,1,-0.020162619
19.205777,-10,-23,-1,-2,1,-1,-1,-2,-0.020162619
19.205796,8,-2,-3,-3,0,-1,-2,-1,-0.020162619
19.212414,-8,1,-1,-5,-2,-3,-2,-2,-0.020162619
19.212438,11,20,-1,3,-2,-1,0,-1,-0.020162619
19.228780,-32,-59,4,-5,1,1,-1,-2,-0.020162619
19.228793,-2,11,5,4,-1,-1,-1,0,-0.020162619
19.230225,0,1,-8,-2,-4,-1,-2,-2,-0.020162619
19.230261,-9,0,0,-5,1,-1,-2,-3,-0.020162619
19.251548,2,14,-1,6,-2,-3,1,0,-0.020162619
19.251570,13,10,1,-2,0,0,0,-1,-0.020162619
19.253122,-21,0,-1,0,-1,-1,-1,-2,-0.020162619
19.253137,-5,-68,-3,0,-4,-1,-2,-2,-0.020162619
19.265890,11,3,-6,-1,0,2,-1,1,-0.020162619
19.265922,-8,12,3,0,-1,0,0,0,-0.020162619
19.272511,9,-4,-1,1,2,0,0,-1,-0.020162619
19.272530,-4,11,-4,-3,1,-1,-2,-1,-0.020162619
19.290679,-2,-10,-3,-7,-4,-2,-1,-3,-0.020162619
19.290692,21,17,9,7,3,1,-1,1,-0.020162619
19.290696,-17,5,-1,0,-1,-1,-2,-1,-0.020162619
19.290699,-6,-6,0,-5,1,-2,-1,-1,-0.020162619
19.311297,9,-1,-4,-2,-2,-2,-3,-2,-0.020162619
19.311314,-3,10,-7,-6,-1,0,0,1,-0.020162619
19.313616,12,5,-2,-3,-1,-1,-1,-5,-0.020162619
19.313625,10,13,1,2,-1,0,1,0,-0.020162619
19.325686,-15,-29,-5,-4,-1,-2,0,-2,-0.020162619
19.325712,-14,-13,-3,-1,-2,-3,-2,-2,-0.020162619
19.332810,4,10,0,-1,-2,-2,-2,2,-0.020162619
19.332842,7,-3,-4,-5,2,1,0,0,-0.020162619
19.349104,6,20,2,3,0,-1,-2,-1,-0.020162619
19.349137,-20,-8,6,0,-1,-1,-2,-2,-0.020162619
19.351914,3,-17,-2,0,-1,1,0,0,-0.020162619
19.351934,4,25,2,1,-2,-3,-2,-3,-0.020162619
19.371417,-5,6,-5,0,-2,-1,-4,0,-0.020162619
19.371434,-1,-22,-9,-3,-1,-2,-1,-1,-0.020162619
19.372824,-3,41,7,-1,-1,-2,0,0,-0.020162619
19.372924,0,-26,-7,-10,-5,0,-2,-3,-0.020162619
19.386463,-2,16,2,13,3,-1,-2,-3,-0.020162619
19.386475,5,-51,1,0,-2,-1,-1,-1,-0.020162619
19.396444,1,-3,-5,0,-1,0,-1,-2,-0.020162619
19.396450,-6,13,9,6,0,-1,-1,0,-0.020162619
19.409289,-1,13,-3,-7,0,-1,-1,0,-0.020162619
19.409322,6,14,4,1,-1,-1,-1,-3,-0.020162619
19.411572,10,-12,0,3,3,-1,0,0,-0.020162619
19.411582,-18,-6,-1,3,-2,-1,0,-1,-0.020162619
19.432143,7,18,1,-2,0,-1,-1,3,-0.020162619
19.432153,-15,-17,-7,-4,-2,-1,-2,-4,-0.020162619
19.432758,-13,-13,3,5,1,-1,0,-2,-0.020162619
19.432765,6,-2,-4,-1,-1,-1,-3,-3,-0.020162619
19.445045,-16,-14,1,-3,2,0,0,-2,-0.018003916
19.445070,11,30,-1,-8,-2,-1,-1,2,-0.018003916
19.455251,-3,6,-3,2,-1,-1,-2,0,-0.018003916
19.455261,4,-14,-6,0,-2,-1,0,-1,-0.018003916
19.469007,-2,-33,3,-3,-1,0,-1,-3,-0.018003916
19.469027,18,14,-3,-2,-4,-1,-2,0,-0.018003916
19.470888,7,2,-12,-9,3,0,-1,-1,-0.018003916
19.470901,0,37,18,2,2,0,2,1,-0.018003916
19.491428,-21,-20,-3,-2,-3,-3,-1,-4,-0.018003916
19.491446,-11,13,0,-10,-4,-3,-1,-1,-0.018003916
19.492922,9,-30,-2,7,-2,-1,-2,-2,-0.018003916
19.492935,6,2,-3,-3,-2,-5,-2,-2,-0.018003916
19.504991,4,3,1,2,-1,-3,0,0,-0.018003916
19.505009,-17,-15,-5,0,-1,-1,0,-3,-0.018003916
19.515887,26,34,-1,-6,-2,-2,-2,1,-0.018003916
19.515894,-27,-40,-11,1,2,0,-2,-2,-0.018003916
19.529142,10,4,1,-2,-2,2,-1,0,-0.018003916
19.529171,-3,47,5,-2,2,-2,-1,0,-0.018003916
19.531450,24,-68,-6,3,1,0,0,1,-0.018003916
19.531456,0,-5,-1,0,-1,-1,-2,-6,-0.018003916
19.551702,5,24,4,1,-2,0,-2,0,-0.018003916
19.551735,-3,-23,-7,0,-1,-1,0,0,-0.018003916
19.554100,-6,39,8,0,-1,-1,0,-2,-0.018003916
19.554120,5,5,-1,-6,-3,-1,-2,1,-0.018003916
19.564918,-1,-6,0,0,-2,0,1,-1,-0.018003916
19.568787,10,5,-7,5,0,-1,-1,0,-0.018003916
19.573865,-28,5,16,-1,-4,-3,-2,-3,-0.018003916
19.573882,-6,-9,-3,-1,1,0,-1,0,-0.018003916
19.588864,9,17,-1,-3,-2,-2,-1,1,-0.018003916
19.588881,-5,-1,-8,-1,-1,-1,-1,1,-0.018003916
19.590322,-1,-24,-12,-10,-4,-3,-1,-2,-0.018003916
19.590414,-5,67,5,4,-3,-1,-2,0,-0.018003916
19.611278,-13,-97,2,4,4,1,-3,-3,-0.018003916
19.611303,16,5,-4,2,-1,-2,-2,-2,-0.018003916
19.612951,-19,-47,-3,-5,-3,-2,-1,-2,-0.018003916
19.612958,-4,8,-2,-4,-1,0,0,-1,-0.018003916
19.625009,10,41,-9,-3,-1,-2,-2,-1,-0.018003916
19.625028,5,-11,0,-4,-1,-1,-1,-2,-0.018003916
19.634434,-3,23,4,0,-1,-1,-1,-1,-0.018003916
19.634447,8,-7,4,1,-2,-1,0,-1,-0.018003916
19.650411,0,11,1,0,2,0,0,1,-0.018003916
19.650420,-9,-18,-3,1,-1,0,-2,-2,-0.018003916
19.650424,4,16,-8,-4,3,0,0,0,-0.018003916
19.650427,6,7,0,-1,-2,-1,0,-3,-0.018003916
19.671428,17,27,9,0,2,-1,1,2,-0.018003916
19.671447,-22,-35,4,-3,1,0,-2,-2,-0.018003916
19.672783,5,4,-5,2,0,2,1,1,-0.018003916
19.672794,-4,0,-7,-3,-1,-3,-1,-3,-0.018003916
19.685422,-16,2,-5,-4,-3,-2,-3,-2,-0.018003916
19.685458,2,20,0,-1,1,-2,0,2,-0.018003916
19.694539,1,-11,3,-2,0,-1,-1,-1,-0.018003916
19.694551,-3,-12,-4,-2,0,1,-3,0,-0.018003916
19.707464,3,20,2,0,-1,-1,1,-1,-0.014997953
19.707482,4,-20,-1,0,-1,-1,0,0,-0.014997953
19.718395,1,-4,-8,4,2,-1,-1,-1,-0.014997953
19.718408,-5,-8,-8,-5,-3,-3,-3,-1,-0.014997953
19.731762,11,14,1,-2,0,0,-1,-2,-0.014997953
19.731790,-10,10,3,2,1,-1,-2,-2,-0.014997953
19.734020,3,-48,-5,-2,-3,-1,-3,-5,-0.014997953
19.734034,4,15,3,-3,1,0,0,-1,-0.014997953
19.744899,-7,-34,-8,-2,-3,-2,-1,-4,-0.014997953
19.744954,5,46,3,4,-2,-2,0,-2,-0.014997953
19.755071,-5,19,-1,-3,-1,0,0,0,-0.014997953
19.755083,-1,-11,-3,0,-1,0,0,-2,-0.014997953
19.769063,-1,2,8,2,0,-1,-1,-1,-0.014997953
19.769092,3,13,2,-2,0,1,-1,0,-0.014997953
19.770756,-12,9,-1,-2,-2,-1,-3,-3,-0.014997953
19.770769,-4,-47,-1,0,1,0,1,2,-0.014997953
19.791527,5,12,-9,-4,-1,0,-1,0,-0.014997953
19.791556,2,-12,-1,-2,-2,-1,0,-1,-0.014997953
19.793269,-11,20,6,3,6,0,-1,0,-0.014997953
19.793295,-14,-2,1,2,-1,-1,-2,-1,-0.014997953
19.805059,11,16,-3,-3,-1,0,-1,0,-0.014997953
19.805080,-23,-31,-5,-6,-1,-2,-1,-2,-0.014997953
19.815778,17,16,-3,0,-5,-2,-1,0,-0.014997953
19.815784,6,-4,3,0,0,-1,1,0,-0.014997953
19.828823,-19,18,0,3,-1,-1,0,0,-0.014997953
19.828847,21,-18,0,0,1,-1,0,-1,-0.014997953
19.830699,0,-6,4,-2,-1,-1,1,0,-0.014997953
19.830706,-8,-8,-6,-6,0,-2,0,-1,-0.014997953
19.851430,-13,-15,-6,3,-2,-1,1,-1,-0.014997953
19.851443,11,22,-4,-2,0,-1,-3,-1,-0.014997953
19.852904,12,8,16,0,-2,-2,-1,-2,-0.014997953
19.852922,-15,-9,-3,-4,-1,0,-2,-1,-0.014997953
19.873975,1,1,-1,-4,-1,-2,-1,-1,-0.014997953
19.874000,-7,-6,-1,-1,0,-1,0,-1,-0.014997953
19.875454,11,-6,-10,-1,-3,-2,-1,1,-0.014997953
19.875467,-1,17,-2,1,0,-1,-1,0,-0.014997953
19.888829,-11,-13,-2,-2,-1,-2,-2,-3,-0.014997953
19.888847,5,40,6,1,-3,-1,-1,0,-0.014997953
19.890860,-12,-79,-8,-4,0,-1,-2,-1,-0.014997953
19.890874,5,4,-2,2,-1,-1,-1,0,-0.014997953
19.913402,-1,5,4,-2,0,0,0,0,-0.014997953
19.913411,11,-3,-2,1,1,-1,0,-1,-0.014997953
19.913414,-31,17,-3,7,0,0,-1,-1,-0.014997953
19.913417,5,-2,1,0,-3,-1,-1,-2,-0.014997953
19.934227,1,-13,7,0,-1,0,-3,-1,-0.014997953
19.934262,22,29,0,-7,-3,0,-2,-1,-0.014997953
19.935549,-9,-12,-6,-2,-3,-3,-1,-1,-0.014997953
19.935578,-2,-17,-11,-2,1,-1,0,-2,-0.014997953
19.949216,12,31,-5,-4,-3,-1,-2,0,-0.014997953
19.949249,-19,-37,-1,3,-1,-1,-1,1,-0.014997953
19.951252,-12,0,2,-3,0,1,-2,-1,-0.014997953
19.951266,14,-3,3,0,-1,-1,-2,1,-0.014997953
19.971424,0,-8,-2,-3,-3,-3,-1,-3,-0.015047524
19.971442,-13,3,-8,-2,0,0,-1,-1,-0.015047524
19.973856,20,9,6,0,0,-3,1,0,-0.015047524
19.973876,-9,7,2,-8,0,-2,0,-1,-0.015047524
19.994185,2,3,-1,5,-1,-1,-2,0,-0.015047524
19.994209,7,-6,0,8,-1,1,-1,0,-0.015047524
19.995579,-4,22,3,-6,-1,-2,-1,-1,-0.015047524
19.996660,0,11,0,2,-1,-1,-2,-1,-0.015047524
