timestamp,emg1,emg2,emg3,emg4,emg5,emg6,emg7,emg8,label
10.013970,-13,-57,-8,17,48,0,-16,-21,1.536777688
10.014051,-21,16,1,-14,-66,-12,2,-48,1.536777688
10.015271,51,59,7,15,45,-10,22,71,1.536777688
10.015311,-31,-66,-18,-29,-101,9,7,-5,1.536777688
10.036564,-18,-8,4,18,20,-36,6,-4,1.536777688
10.036590,43,16,1,12,-49,13,-25,9,1.536777688
10.039006,-2,84,-4,-7,-44,-30,8,-21,1.536777688
10.039018,6,-88,-8,-10,21,9,6,-18,1.536777688
10.051129,27,18,3,-16,11,23,3,30,1.536777688
10.051161,-19,10,-1,17,32,45,30,-8,1.536777688
10.057423,-12,52,5,-29,-93,-73,-8,10,1.536777688
10.057440,-2,-76,-3,21,81,79,14,41,1.536777688
10.073935,48,4,-4,3,-3,-64,11,-14,1.536777688
10.073947,-9,34,-2,-33,62,15,-5,4,1.536777688
10.075185,-24,-34,-2,-3,13,-14,-43,29,1.536777688
10.075197,-23,34,11,24,-3,-29,23,-53,1.536777688
10.096446,-24,96,12,16,68,26,-12,-51,1.536777688
10.096481,15,-87,-10,3,-44,-18,8,41,1.536777688
10.098787,39,-8,-7,-16,22,-26,32,-6,1.536777688
10.098798,-14,56,-8,-18,11,66,25,-13,1.536777688
10.110635,60,10,4,2,41,-54,-12,21,1.536777688
10.110652,-43,2,0,-11,-33,-53,75,-26,1.536777688
10.117855,2,-23,4,26,60,26,-59,-2,1.536777688
10.117886,51,6,3,-7,-90,-22,-10,24,1.536777688
10.133829,14,5,0,-21,-3,-1,-9,43,1.536777688
10.133846,27,110,11,-1,14,25,-12,-13,1.536777688
10.136750,-34,-128,-13,-8,-10,-10,8,10,1.536777688
10.136763,-23,0,-6,-8,34,1,32,57,1.536777688
10.156786,-24,-26,4,3,23,6,-23,-9,1.536777688
10.156804,7,2,-4,4,-53,-9,-14,-9,1.536777688
10.158245,29,43,2,-2,39,22,3,58,1.536777688
10.158320,-18,42,-10,13,39,-50,-23,-56,1.536777688
10.170635,18,-104,-8,-5,71,104,-26,5,1.536777688
10.170654,-7,8,-3,-6,-67,-55,-2,7,1.536777688
10.177647,-5,36,3,3,-22,28,53,-18,1.536777688
10.177672,-2,-68,4,7,-5,-10,-70,-4,1.536777688
10.193985,29,48,-7,-2,-4,-36,24,-19,1.536777688
10.194016,-37,-39,-5,2,5,18,-28,-16,1.536777688
10.195292,13,0,5,-7,-37,13,5,-14,1.536777688
10.195316,28,21,5,20,46,6,-13,28,1.536777688
10.216366,-26,-80,-5,-2,-66,-22,18,-10,1.536777688
10.216410,61,35,4,-11,37,57,-13,7,1.536777688
10.217984,-71,-1,-9,-6,-53,-62,10,-44,1.536777688
10.218117,19,25,18,3,-15,9,-6,-10,1.536777688
10.229926,-2,52,1,22,5,-14,15,1,1.536777688
10.229945,-24,-102,-11,-9,106,-31,10,12,1.536777688
10.240191,11,-2,3,4,98,78,-7,-49,1.541311417
10.240203,13,31,3,-19,-58,-54,31,-8,1.541311417
10.253873,-72,-42,-7,-16,-38,-8,3,-17,1.541311417
10.253895,-35,61,6,-5,2,-34,-37,-19,1.541311417
10.256070,-15,-64,-4,13,7,41,21,21,1.541311417
10.256092,-4,52,2,-2,-2,-1,-21,-8,1.541311417
10.277195,-18,-39,1,7,14,23,46,-1,1.541311417
10.277206,3,49,-9,-25,-7,-31,-15,-34,1.541311417
10.277768,15,-104,-2,2,41,24,16,22,1.541311417
10.277846,11,90,12,27,22,-52,-33,2,1.541311417
10.290006,12,-25,-7,-7,-58,-20,2,2,1.541311417
10.290035,14,-9,5,9,-13,26,-4,2,1.541311417
10.299664,-14,25,-3,1,-2,-10,-2,12,1.541311417
10.299672,6,50,1,-47,-108,16,-4,-13,1.541311417
10.323349,-4,-7,5,46,58,-63,-16,-39,1.541311417
10.323361,-23,-9,14,12,-40,35,12,14,1.541311417
10.323365,-31,68,0,4,14,-6,-4,-47,1.541311417
10.323369,-6,-125,-3,-22,-88,15,9,-9,1.541311417
10.336602,-24,56,3,-16,-1,-16,-22,-26,1.541311417
10.336622,19,17,-1,-3,2,12,8,7,1.541311417
10.338967,32,21,7,5,-23,-26,10,11,1.541311417
10.338981,-30,21,-4,0,3,-9,-26,-9,1.541311417
10.350457,14,72,-3,-36,-23,86,-2,4,1.541311417
10.350501,26,-61,-12,1,-41,-34,8,-36,1.541311417
10.358887,29,41,7,-2,57,-11,-40,39,1.541311417
10.358910,-11,-63,-15,10,-8,48,-2,-15,1.541311417
10.373957,-6,17,1,-6,32,-19,10,13,1.541311417
10.373975,15,36,1,-5,-70,16,34,0,1.541311417
10.375419,19,5,-4,-9,-17,7,1,-3,1.541311417
10.375444,0,22,2,12,37,52,6,8,1.541311417
10.403847,14,7,3,1,-20,13,-3,11,1.541311417
10.403866,-5,-6,1,10,23,26,-8,18,1.541311417
10.405280,2,21,18,-12,-120,-39,24,12,1.541311417
10.405326,-93,-95,-10,18,118,20,-57,-13,1.541311417
10.409879,-52,-35,-24,-6,-84,38,-35,-50,1.541311417
10.409904,-20,-62,0,-5,126,28,-35,33,1.541311417
10.420427,89,6,18,-6,0,-7,14,92,1.541311417
10.420440,25,77,12,14,-48,-18,-13,-15,1.541311417
10.434674,19,4,-4,-15,20,-26,27,-7,1.541311417
10.434688,-57,18,2,10,-38,4,21,-7,1.541311417
10.435321,-11,-8,-8,-1,6,-3,5,-33,1.541311417
10.435341,23,-11,-3,-8,28,-6,20,34,1.541311417
10.456298,11,-11,0,-3,-4,-5,-13,21,1.541311417
10.456316,15,8,-2,-2,-21,-16,-3,-3,1.541311417
10.458511,-24,-26,-9,3,26,16,-15,-12,1.541311417
10.458529,16,-2,-3,-4,-14,-11,27,-23,1.541311417
10.470131,-41,-6,-1,8,12,1,-9,-16,1.541311417
10.470151,16,13,1,-15,-34,16,5,-10,1.541311417
10.480801,-1,104,22,35,27,-78,19,-20,1.541311417
10.480810,16,31,-22,-15,34,40,-45,23,1.541311417
10.494369,18,-42,-12,-62,-85,-29,-63,6,1.525628133
10.494388,-12,-31,-17,60,89,43,41,-54,1.525628133
10.496720,-3,-18,-12,-24,47,34,26,-61,1.525628133
10.496737,0,59,19,16,-7,-49,21,-1,1.525628133
10.516890,25,48,9,-4,40,22,26,12,1.525628133
10.516971,44,30,-2,-32,-77,-21,-32,4,1.525628133
10.519988,-101,-35,-10,8,-26,14,-44,-24,1.525628133
10.520003,13,-77,2,1,-12,38,114,-12,1.525628133
10.529802,-33,27,-3,25,65,-19,-83,-6,1.525628133
10.529846,21,-73,0,-15,-66,35,69,21,1.525628133
10.539639,-3,-33,-20,-14,-4,-1,4,12,1.525628133
10.539653,-2,18,-1,10,12,-56,-30,-44,1.525628133
10.553787,22,43,5,25,27,40,20,17,1.525628133
10.553816,-3,57,16,-4,4,22,6,12,1.525628133
10.555885,30,10,-3,15,33,1,-13,35,1.525628133
10.555896,-40,-78,-7,-21,11,67,3,16,1.525628133
10.576556,-41,9,0,2,-20,-45,4,-33,1.525628133
10.576589,-15,-34,3,16,23,-5,6,-4,1.525628133
10.578040,-13,-21,-3,-23,-33,-2,-49,2,1.525628133
10.578063,48,31,8,-9,-20,-31,-12,21,1.525628133
10.589931,-4,-22,-3,8,-32,5,25,23,1.525628133
10.589945,-50,-89,-17,-22,45,-30,-27,3,1.525628133
10.600245,-4,-15,-8,25,-16,51,7,-44,1.525628133
10.600255,4,15,-4,-10,-5,-77,-3,12,1.525628133
10.613975,-1,44,6,-9,-11,31,32,0,1.525628133
10.613999,15,64,-3,-25,-20,-7,-27,-5,1.525628133
10.615508,-8,5,5,-6,49,53,35,2,1.525628133
10.615522,-17,12,0,6,-26,-57,-36,-40,1.525628133
10.637248,29,13,-5,0,43,99,24,70,1.525628133
10.637262,-60,-72,-17,-2,7,27,17,-67,1.525628133
10.637827,52,65,15,34,-52,7,11,19,1.525628133
10.637845,-8,-36,-7,-4,51,30,-47,14,1.525628133
10.658756,-57,-18,1,-11,-45,-71,-10,-51,1.525628133
10.660022,43,61,12,25,49,-19,-11,50,1.525628133
10.660307,1,44,-14,-27,-16,-10,-15,0,1.525628133
10.660332,5,-33,-1,18,-7,16,87,61,1.525628133
10.682147,22,34,11,14,6,-27,3,-20,1.525628133
10.682163,15,-34,-8,4,31,17,-26,8,1.525628133
10.682644,-61,-81,-14,-19,-45,-3,-35,-44,1.525628133
10.682651,14,-19,-3,-11,-81,-5,29,-29,1.525628133
10.696131,22,5,11,25,106,51,41,8,1.525628133
10.696143,25,127,14,4,-85,-18,-10,10,1.525628133
10.697603,-15,-110,-6,8,-6,44,22,14,1.525628133
10.697612,-47,29,-2,-4,-5,6,-56,-30,1.525628133
10.719218,9,-5,5,-19,7,2,-46,41,1.525628133
10.719240,32,44,8,-7,-56,-21,10,6,1.525628133
10.721053,2,16,-7,18,37,-28,2,-33,1.525628133
10.721067,5,-1,-2,-4,16,36,-12,50,1.525628133
10.733946,4,2,-9,-12,-45,-32,-22,-67,1.525628133
10.733972,0,52,8,3,8,-41,59,38,1.525628133
10.737143,16,-11,-2,-9,59,18,-3,20,1.525628133
10.737158,53,33,-3,21,14,-16,7,-27,1.525628133
10.756399,13,4,-2,8,-33,-64,5,16,1.540225303
10.756416,-22,-45,-4,-9,31,-17,-33,-9,1.540225303
10.758390,-60,45,5,11,49,23,21,54,1.540225303
10.758402,-5,23,9,0,-43,-52,-60,-9,1.540225303
10.779144,34,-68,-15,-23,-85,28,53,-7,1.540225303
10.779176,-13,-59,6,1,34,41,-18,-6,1.540225303
10.782263,44,18,4,14,-14,-43,19,13,1.540225303
10.782273,-5,29,-5,-7,1,11,6,-5,1.540225303
10.794057,-46,-72,-6,-23,-12,-29,-30,39,1.540225303
10.794086,21,3,2,41,47,3,-9,-23,1.540225303
10.795245,-4,13,4,-11,-42,6,-4,43,1.540225303
10.795262,37,74,1,-10,-70,15,27,6,1.540225303
10.816662,-18,-2,3,-18,-42,-28,0,-85,1.540225303
10.816694,11,59,-9,-17,-109,94,39,4,1.540225303
10.819421,66,-11,4,32,84,-52,-101,-24,1.540225303
10.819443,-35,52,1,-8,38,3,-13,-43,1.540225303
10.838799,8,-65,-9,-4,30,50,16,29,1.540225303
10.838819,1,-25,-10,-7,-9,-44,-21,-7,1.540225303
10.840314,38,43,3,-22,-56,-11,19,-4,1.540225303
10.840330,-91,-79,-5,-38,-32,-8,23,-8,1.540225303
10.853976,32,27,5,72,80,54,30,46,1.540225303
10.853991,-8,-23,6,-2,13,-33,-38,4,1.540225303
10.860164,-22,-54,-9,-11,-36,-7,-4,-13,1.540225303
10.860181,28,-10,2,-11,-28,-22,-8,2,1.540225303
10.877001,-33,-30,-7,-11,-8,-18,74,-30,1.540225303
10.877026,16,101,2,-1,33,57,-62,13,1.540225303
10.879429,-27,-41,-9,-10,-31,-91,-1,41,1.540225303
10.879439,-18,-31,-6,5,54,52,-47,13,1.540225303
10.898665,38,46,6,-2,-41,-52,-20,-3,1.540225303
10.898697,-98,-72,-9,-17,-12,18,50,-4,1.540225303
10.900887,9,22,0,-13,24,16,0,-33,1.540225303
10.900898,50,13,0,-7,4,21,9,24,1.540225303
10.912481,-30,2,4,23,38,-9,-19,3,1.540225303
10.912505,-5,-31,-1,31,27,-34,-9,19,1.540225303
10.922093,17,-31,-1,-5,-83,47,41,-1,1.540225303
10.922107,-13,-14,2,-2,28,8,25,-6,1.540225303
10.936324,22,19,5,-18,-15,7,-20,8,1.540225303
10.936346,-20,-23,-9,-2,10,58,28,-35,1.540225303
10.937826,11,29,2,-5,3,-82,-73,-10,1.540225303
10.937845,1,56,6,30,0,57,69,-5,1.540225303
10.959449,-15,-57,-3,-15,-37,10,-21,-40,1.540225303
10.959473,35,57,0,0,47,6,15,61,1.540225303
10.961859,35,16,1,7,67,-29,-36,19,1.540225303
10.961870,6,24,6,21,23,17,24,-22,1.540225303
10.973387,-4,17,-8,-19,27,-15,-11,36,1.540225303
10.973405,26,-25,-3,-3,-33,-15,-7,-53,1.540225303
10.979982,-27,59,0,-12,40,20,30,-33,1.540225303
10.980018,1,17,0,8,29,-17,-61,6,1.540225303
10.996239,6,-83,-6,-5,1,13,7,23,1.540225303
10.996252,8,0,1,-12,-45,-44,-18,41,1.540225303
10.997689,-2,2,-2,5,-14,25,6,-6,1.540225303
10.997704,10,15,-5,-4,25,0,-7,-13,1.540225303
11.017774,14,49,2,-12,-24,-27,13,19,1.562425267
11.017826,-22,-18,-5,15,41,50,13,-30,1.562425267
11.026624,-7,18,10,14,-8,-34,11,-3,1.562425267
11.026634,-15,-33,-7,2,37,23,8,-13,1.562425267
11.033265,-21,45,8,8,-4,19,-39,52,1.562425267
11.033285,61,-16,-4,-27,-60,-91,12,15,1.562425267
11.042187,3,17,5,-18,-41,42,49,34,1.562425267
11.042196,4,-5,1,43,73,-36,-69,-34,1.562425267
11.056925,-91,-79,-14,19,72,46,6,-76,1.562425267
11.056938,15,50,3,-12,-33,-4,-2,-4,1.562425267
11.057721,4,-59,-4,-19,31,37,-32,8,1.562425267
11.057729,28,8,6,-26,-62,-60,3,10,1.562425267
11.078703,-5,56,0,1,-24,3,-5,-6,1.562425267
11.078727,-29,-46,-7,-8,2,-35,-28,-11,1.562425267
11.080369,-16,-9,-5,8,32,30,4,-20,1.562425267
11.080381,-11,7,-3,-1,-5,30,34,14,1.562425267
11.093570,22,27,5,0,-9,-32,-21,-47,1.562425267
11.093593,12,56,12,1,25,-12,15,3,1.562425267
11.100192,-21,24,3,-11,-2,6,-2,-50,1.562425267
11.100219,2,-69,-12,-7,-49,34,-3,11,1.562425267
11.116887,25,-62,-2,6,13,30,27,29,1.562425267
11.116919,-41,-16,2,11,-14,-12,-6,-55,1.562425267
11.119862,16,54,4,11,-29,77,3,-30,1.562425267
11.119886,-13,-40,-6,-10,39,14,28,-2,1.562425267
11.138836,43,40,6,2,-70,-37,-64,-13,1.562425267
11.138858,-4,-40,-9,-8,33,45,21,8,1.562425267
11.140383,34,14,3,9,6,-18,14,32,1.562425267
11.140424,-27,63,1,-6,-89,-31,-32,-5,1.562425267
11.152338,47,-21,-6,-26,-16,19,-6,-68,1.562425267
11.152358,-34,49,4,12,98,-3,9,45,1.562425267
11.164021,-39,-93,-13,5,-24,-22,3,-33,1.562425267
11.164043,-4,5,-1,-10,67,38,14,-2,1.562425267
11.176788,6,36,8,23,72,-10,12,5,1.562425267
11.176813,16,36,3,-18,-42,-16,-30,-14,1.562425267
11.179077,-9,91,9,-15,-64,26,16,32,1.562425267
11.179093,-11,-128,-13,21,118,-13,2,-11,1.562425267
11.198798,-8,14,-7,-29,-64,0,20,21,1.562425267
11.198886,34,-6,-5,-1,-46,-40,-54,-9,1.562425267
11.200181,4,34,6,9,21,67,53,58,1.562425267
11.200189,-15,14,0,-13,-39,-44,3,-16,1.562425267
11.214424,-1,28,0,0,-69,25,31,32,1.562425267
11.214435,-27,-34,-19,-14,-66,-28,-27,7,1.562425267
11.222376,7,-38,-11,1,-18,-26,5,13,1.562425267
11.222389,1,27,8,-4,-77,27,-9,10,1.562425267
11.236768,-27,12,-1,5,18,-38,25,-63,1.562425267
11.236791,54,90,10,17,100,50,-14,14,1.562425267
11.238957,-20,-128,-9,-25,-98,-50,-12,12,1.562425267
11.238971,-21,4,-7,0,-29,-13,-8,1,1.562425267
11.259018,24,0,-7,-5,-9,17,35,10,1.561361688
11.259049,-41,-40,-6,-16,-64,42,-1,-48,1.561361688
11.261694,28,82,7,5,74,-56,4,-26,1.561361688
11.261712,28,56,6,-6,10,1,-4,-3,1.561361688
11.272894,-41,-83,-10,-2,-17,15,-24,18,1.561361688
11.272911,-10,-7,-4,-23,-47,-10,10,-14,1.561361688
11.284202,-16,-29,-4,37,126,18,-1,-5,1.561361688
11.284212,-10,43,11,15,-96,-24,0,-42,1.561361688
11.296699,-21,-80,-1,20,74,-51,-19,61,1.561361688
11.296741,-43,27,4,14,32,104,1,-5,1.561361688
11.297673,-20,-74,-11,-8,-49,-23,-2,-29,1.561361688
11.299084,8,-5,-11,-17,-3,5,19,-40,1.561361688
11.318992,-11,26,7,4,-25,34,4,3,1.561361688
11.319016,14,8,15,10,36,-98,1,-12,1.561361688
11.322096,20,94,-5,-6,-11,55,14,1,1.561361688
11.322121,-30,-86,-4,2,18,38,-9,0,1.561361688
11.332998,17,94,1,-13,14,-1,2,-3,1.561361688
11.333043,15,17,9,-8,-118,-37,20,9,1.561361688
11.341459,-47,-19,0,27,77,11,-46,-17,1.561361688
11.341491,12,-28,-1,-23,103,34,10,9,1.561361688
11.356218,15,15,3,36,22,19,31,-18,1.561361688
11.356238,2,-24,3,6,36,-6,-49,7,1.561361688
11.357758,46,54,10,-11,-54,-29,-3,-5,1.561361688
11.357852,-52,-58,-14,-14,-74,-15,-2,21,1.561361688
11.378655,-2,-81,-7,4,-11,3,11,-25,1.561361688
11.378672,37,26,5,-4,-28,-48,27,3,1.561361688
11.380598,29,-37,-1,20,106,22,-33,17,1.561361688
11.380616,5,-23,3,8,10,53,16,7,1.561361688
11.392849,8,26,-8,-27,-23,-20,-20,-34,1.561361688
11.392881,-19,-65,-16,6,-14,-14,6,-7,1.561361688
11.401881,4,30,0,-27,-122,2,-13,-9,1.561361688
11.401895,52,66,14,34,72,-39,-5,29,1.561361688
11.417039,-9,-42,2,1,37,29,20,25,1.561361688
11.417050,6,-84,-14,0,16,23,-68,-32,1.561361688
11.417654,-62,-7,1,-20,-71,-33,27,-25,1.561361688
11.417662,18,36,-7,-29,-26,2,-16,-11,1.561361688
11.438884,-44,8,1,9,20,33,2,49,1.561361688
11.438902,27,9,-4,-10,74,-28,37,21,1.561361688
11.440541,-51,74,-9,-13,-57,51,-5,-54,1.561361688
11.440552,-19,-105,-1,31,-8,-54,7,0,1.561361688
11.452379,32,30,-1,-19,-13,-27,-21,54,1.561361688
11.452404,-5,42,7,-21,-74,18,23,24,1.561361688
11.462946,-17,8,-1,12,77,9,-7,-29,1.561361688
11.462957,34,26,3,-7,-17,23,10,-40,1.561361688
11.477690,-23,-16,1,4,9,-36,-78,-6,1.561361688
11.477702,-42,47,6,0,-35,34,40,-21,1.561361688
11.477751,-10,-85,-20,-5,28,-32,10,12,1.561361688
11.477773,15,86,4,25,15,65,25,-8,1.561361688
11.499090,9,23,-2,-37,-58,-21,3,-6,1.561361688
11.499114,-9,-33,6,50,105,8,-13,-8,1.561361688
11.500737,7,-16,7,0,34,16,44,65,1.561361688
11.500748,-8,45,-1,6,30,-21,-26,14,1.561361688
11.512569,-6,60,0,1,-32,23,-24,-24,1.560586539
11.512615,74,-2,-4,-28,-18,62,30,42,1.560586539
11.522963,-28,15,-1,9,66,-74,-6,-2,1.560586539
11.522976,10,-25,13,13,6,-42,-12,-1,1.560586539
11.536606,66,67,2,9,56,9,16,2,1.560586539
11.536639,13,8,-16,-5,-5,-13,-18,-18,1.560586539
11.538590,50,-94,-12,-19,-88,-7,-1,2,1.560586539
11.538607,-53,18,-4,10,57,14,-2,-6,1.560586539
11.558753,-2,24,0,-12,-65,-43,-18,-50,1.560586539
11.558801,4,-9,3,-6,-73,-7,33,-41,1.560586539
11.560183,-18,34,1,12,52,30,-66,-13,1.560586539
11.560204,17,48,1,-26,-128,-94,-10,33,1.560586539
11.572431,5,-82,-4,4,93,120,47,-20,1.560586539
11.572444,14,28,-6,11,32,-100,4,82,1.560586539
11.582272,-35,1,12,17,5,18,17,-6,1.560586539
11.582282,-21,-47,-9,-29,-39,27,27,-12,1.560586539
11.596617,-11,29,-1,12,-7,-74,-25,-37,1.560586539
11.596650,-27,33,0,-6,-27,50,-1,-6,1.560586539
11.598885,46,6,6,3,22,8,-17,-22,1.560586539
11.598894,13,-84,-5,-1,-9,8,7,39,1.560586539
11.619493,-25,-21,-6,7,9,-15,-13,-4,1.560586539
11.619506,-18,55,8,-1,45,15,6,-4,1.560586539
11.620325,8,-62,-4,-2,-69,-35,-32,38,1.560586539
11.620342,15,25,9,27,102,101,23,-18,1.560586539
11.641504,3,-17,-2,-20,-24,4,44,33,1.560586539
11.641524,-35,-76,-15,-8,-9,0,-13,-62,1.560586539
11.642755,7,9,6,-1,-13,8,-41,28,1.560586539
11.642822,15,-4,0,-10,-19,39,9,46,1.560586539
11.656334,3,-43,7,31,67,-19,13,3,1.560586539
11.658613,-2,15,3,4,-4,-6,5,17,1.560586539
11.658631,-30,34,-9,-16,-36,1,27,-25,1.560586539
11.658637,67,24,-8,-17,-19,-5,-38,11,1.560586539
11.678803,10,-51,-5,4,11,30,1,5,1.560586539
11.678829,-24,-52,-2,-14,-17,-71,-80,-2,1.560586539
11.680785,29,28,4,-3,-75,3,10,6,1.560586539
11.680803,-15,46,1,-11,45,-34,15,2,1.560586539
11.702013,7,-26,-13,-22,-39,37,-19,-39,1.560586539
11.702044,-19,-32,0,10,28,35,47,53,1.560586539
11.703010,35,-2,0,-23,-75,-7,21,-7,1.560586539
11.703042,-108,-11,-13,-17,43,46,-52,-54,1.560586539
11.716583,-13,35,4,40,86,-26,31,80,1.560586539
11.716610,13,9,0,-5,13,12,-1,15,1.560586539
11.718752,-47,4,-5,-7,-24,-24,-13,-73,1.560586539
11.718766,21,-49,-1,0,-46,-9,29,24,1.560586539
11.738701,-46,47,8,-10,-40,4,-27,-21,1.560586539
11.738719,19,42,5,3,22,-16,10,-13,1.560586539
11.740331,-35,-90,-2,8,7,4,-9,0,1.560586539
11.740347,3,31,-18,-2,35,-19,18,-48,1.560586539
11.761380,44,-61,-1,-17,-120,-46,-37,31,1.560586539
11.761392,24,56,5,10,100,-47,47,-29,1.560586539
11.762653,27,1,6,-11,-24,1,10,11,1.560586539
11.762661,-9,55,9,8,-47,24,26,-1,1.560586539
11.776196,2,-53,-1,16,41,-32,4,-2,1.562776793
11.776209,-6,26,3,6,-37,33,-3,-7,1.562776793
11.782538,34,41,0,-9,-24,-9,-2,15,1.562776793
11.782560,-17,-25,-4,6,-34,-38,-2,15,1.562776793
11.799279,19,127,5,-8,22,36,10,-13,1.562776793
11.799308,-18,-112,-16,-7,-38,-25,1,49,1.562776793
11.801777,34,37,7,12,88,50,-47,-28,1.562776793
11.801796,16,-34,-2,-18,-27,-44,9,-56,1.562776793
11.823209,-10,22,-5,-10,-34,-25,-31,-20,1.562776793
11.823221,-47,-76,-1,17,50,99,28,-33,1.562776793
11.823225,49,58,-2,-1,-15,-45,53,60,1.562776793
11.823228,-16,-73,-14,-27,-19,42,-31,55,1.562776793
11.835695,1,-25,-5,7,20,41,-17,-18,1.562776793
11.835718,12,27,8,34,21,-15,-41,-31,1.562776793
11.842455,-11,42,5,10,57,27,1,-15,1.562776793
11.843381,-42,-29,7,10,-3,-61,7,-5,1.562776793
11.858841,-29,-8,-4,-11,-14,-24,35,6,1.562776793
11.858860,9,-56,-4,-14,-66,43,-13,7,1.562776793
11.860190,-13,14,-11,8,19,7,10,4,1.562776793
11.860204,-24,-3,0,-11,1,-8,-20,-64,1.562776793
11.881749,30,-63,-5,0,-12,-15,-17,34,1.562776793
11.881774,-7,37,-3,10,13,-12,-11,-60,1.562776793
11.883780,36,-5,0,-8,-92,-5,37,-3,1.562776793
11.883789,-48,65,8,6,58,73,1,44,1.562776793
11.895719,-32,-8,-7,-15,-53,31,13,-33,1.562776793
11.895744,-34,31,-3,-17,23,-49,-15,-19,1.562776793
11.902912,-15,-128,-10,-1,81,-2,-10,8,1.562776793
11.902944,40,68,7,6,59,-27,33,17,1.562776793
11.918900,-5,24,6,13,8,8,-66,7,1.562776793
11.918922,9,6,1,5,-8,-11,-7,24,1.562776793
11.920403,-26,17,-5,-9,27,-1,-10,-27,1.562776793
11.920421,17,-12,1,-11,-27,41,24,27,1.562776793
11.941312,-1,20,-5,5,42,-96,8,-8,1.562776793
11.941337,34,4,-1,-19,-47,17,4,2,1.562776793
11.943359,-44,56,-2,-24,-61,-14,-55,-15,1.562776793
11.943376,24,-74,-15,2,37,30,-24,-40,1.562776793
11.955599,7,34,-2,9,-32,41,24,21,1.562776793
11.955616,-9,46,-8,-19,-28,-5,12,15,1.562776793
11.962458,-17,22,10,36,22,16,14,13,1.562776793
11.962482,30,60,4,-13,-40,-53,-31,-21,1.562776793
11.978786,0,23,5,3,38,16,-5,-24,1.562776793
11.978823,-7,-47,-5,1,5,-1,0,5,1.562776793
11.980098,2,106,5,-12,-17,-6,7,-7,1.562776793
11.980106,-9,-83,-15,-17,-45,-21,9,3,1.562776793
12.001358,-20,-10,7,39,16,-18,-41,3,1.562776793
12.001386,13,23,0,-5,-4,16,27,-50,1.562776793
12.003959,-22,-22,1,-7,31,77,-7,9,1.562776793
12.003971,39,56,15,21,16,-95,-14,89,1.562776793
12.016003,14,2,3,-8,-38,18,46,-3,1.562776793
12.016093,7,27,-1,-15,-21,-12,-48,-9,1.562776793
12.022414,-12,-81,-5,20,44,19,31,-7,1.562776793
12.022432,-8,81,6,10,12,13,5,-7,1.562776793
12.040359,1,-80,-12,-34,-29,37,-10,2,1.558720767
12.040370,-62,-44,-19,-13,-32,-86,7,31,1.558720767
12.040373,12,-21,0,7,63,13,73,6,1.558720767
12.040376,20,3,-4,5,-90,7,14,-1,1.558720767
12.069039,5,122,26,0,21,-9,-14,43,1.558720767
12.069062,12,-15,2,6,25,24,-21,4,1.558720767
12.071325,-18,-24,10,8,-18,-18,-48,-13,1.558720767
12.071339,-21,-17,0,11,5,-6,23,-10,1.558720767
12.075829,43,75,3,-5,-16,4,-8,-29,1.558720767
12.075854,-4,-68,2,-3,-3,8,12,9,1.558720767
12.082765,-25,-81,-16,-36,-43,-12,-25,-57,1.558720767
12.082793,16,-13,0,30,-12,-33,-39,-14,1.558720767
12.099088,23,35,-7,-16,44,26,26,-8,1.558720767
12.099112,-8,-38,13,30,-62,-12,22,30,1.558720767
12.101817,22,-19,-9,-18,89,33,-3,58,1.558720767
12.101832,-11,25,9,-2,-91,22,-13,-35,1.558720767
12.121503,7,-95,-19,3,-16,-19,-12,14,1.558720767
12.121520,-51,67,-4,-41,-62,1,4,-58,1.558720767
12.122824,-1,-38,5,32,-2,-25,1,26,1.558720767
12.122835,-1,-8,-8,-7,-9,10,-12,0,1.558720767
12.134904,-16,14,7,-5,-6,-5,-4,-5,1.558720767
12.134923,23,10,-4,8,19,-16,7,-10,1.558720767
12.145684,2,23,2,-3,-28,-19,-5,-8,1.558720767
12.145694,-10,10,0,1,80,20,-5,12,1.558720767
12.159189,-5,2,-10,-30,-11,-23,11,-16,1.558720767
12.159221,23,43,9,15,-6,18,-8,22,1.558720767
12.162071,0,7,-19,-18,-48,38,15,-22,1.558720767
12.162089,14,10,3,25,47,-6,-28,69,1.558720767
12.181409,-29,14,6,-10,32,96,5,-23,1.558720767
12.181421,-5,25,-4,-6,-13,29,9,-3,1.558720767
12.182645,64,65,3,9,-11,32,2,82,1.558720767
12.182653,-27,-8,4,-25,15,-11,-3,-4,1.558720767
12.196815,-38,-74,-7,1,-8,-31,5,8,1.558720767
12.196830,55,26,1,0,20,-9,13,48,1.558720767
12.205357,-27,-46,-2,-19,-63,-40,-89,-61,1.558720767
12.205369,-7,-103,-24,-20,-29,7,47,-4,1.558720767
12.219162,43,48,11,3,-92,-15,-20,32,1.558720767
12.219185,9,10,-4,-5,37,21,-27,-23,1.558720767
12.221525,-41,66,-1,-4,49,-25,31,-18,1.558720767
12.221538,-20,74,0,14,-59,60,27,-15,1.558720767
12.243870,-44,-99,-9,6,-4,-23,-18,-18,1.558720767
12.243882,3,-55,2,-4,-19,-22,-30,-31,1.558720767
12.243885,10,7,4,5,-20,65,-1,-13,1.558720767
12.243888,13,27,13,-6,-28,-12,33,-13,1.558720767
12.255124,-21,41,-7,-7,37,55,-18,-12,1.558720767
12.255144,44,6,4,10,61,-11,62,87,1.558720767
12.265674,28,20,3,-2,-42,-28,-64,-7,1.558720767
12.265682,-87,-31,-8,2,62,-4,-7,-9,1.558720767
12.278830,24,62,10,15,-9,14,-13,-79,1.558720767
12.278854,-5,-114,-18,-14,-27,-4,18,50,1.558720767
12.281620,-1,-23,-4,5,-14,-32,9,-11,1.556354755
12.281631,-6,29,-5,-13,-39,-14,-19,1,1.556354755
12.301822,-25,29,-2,-4,22,-32,30,5,1.556354755
12.301865,-24,16,6,-1,24,78,-29,-36,1.556354755
12.304516,-18,-10,-1,4,-31,-95,-3,-35,1.556354755
12.304529,32,-13,1,-1,26,63,8,-52,1.556354755
12.314868,-7,-74,3,13,29,-82,19,24,1.556354755
12.314885,24,58,-1,-7,-50,2,5,-12,1.556354755
12.325660,57,100,6,-6,41,-8,40,-7,1.556354755
12.325671,-11,-29,-3,19,-20,12,-13,-18,1.556354755
12.338114,-20,9,7,16,101,27,-43,-15,1.556354755
12.338127,15,26,4,13,22,4,0,42,1.556354755
12.349147,22,15,7,-19,-32,17,13,-4,1.556354755
12.349157,9,34,6,19,69,-49,37,69,1.556354755
12.360870,8,-21,-10,-19,-36,69,-34,-16,1.556354755
12.360894,-27,-36,2,-2,-32,-78,-21,-59,1.556354755
12.363391,6,38,-3,-3,11,43,-8,13,1.556354755
12.363408,4,-68,-4,-7,46,19,4,82,1.556354755
12.385110,53,35,0,-7,-61,-14,20,51,1.556354755
12.385123,-27,49,6,13,43,6,-3,-9,1.556354755
12.385126,7,6,-9,0,0,15,1,-3,1.556354755
12.385128,26,-22,-9,-17,-36,-21,-7,-37,1.556354755
12.399521,1,-35,-2,0,37,-59,-4,-6,1.556354755
12.399531,-26,10,-8,-24,-62,98,14,-31,1.556354755
12.399533,-23,8,6,33,90,45,32,15,1.556354755
12.399536,40,11,5,-21,-106,-61,-40,-7,1.556354755
12.420761,-37,52,0,13,63,21,40,15,1.556354755
12.420780,-5,-41,-5,17,-70,42,-7,-15,1.556354755
12.422209,71,48,11,-13,-26,-44,-36,39,1.556354755
12.422226,-11,-82,-18,-24,-40,16,-29,20,1.556354755
12.443668,45,33,-3,-3,1,34,63,-3,1.556354755
12.443711,-11,-3,-7,-16,35,-109,-7,-9,1.556354755
12.445786,9,6,-1,0,-6,8,1,0,1.556354755
12.445796,6,43,6,7,-11,-11,-16,-17,1.556354755
12.458271,3,-9,0,-16,-48,37,55,9,1.556354755
12.458295,-34,19,-5,4,24,14,-65,-1,1.556354755
12.461042,-43,-121,-10,4,33,-8,62,-12,1.556354755
12.461053,-33,-35,-3,-4,10,-4,-44,-55,1.556354755
12.480705,16,34,3,-11,11,-9,9,2,1.556354755
12.480716,-48,-68,-2,17,98,15,27,-5,1.556354755
12.481144,23,33,3,0,-76,-12,-41,-34,1.556354755
12.481180,7,9,1,8,71,65,32,-22,1.556354755
12.503258,-14,6,1,-7,-63,-79,-10,5,1.556354755
12.503278,50,76,1,0,-41,-16,-26,-16,1.556354755
12.505338,-18,-77,-9,-15,-26,-35,17,-15,1.556354755
12.505350,7,33,6,-3,-27,19,-12,-74,1.556354755
12.518989,-28,-84,-4,42,52,-5,-21,14,1.556354755
12.519081,75,77,13,8,-5,30,7,-18,1.556354755
12.519090,-96,-125,-15,-4,-5,-37,13,-7,1.556354755
12.521318,34,74,9,16,-1,4,-6,-10,1.556354755
12.540649,-23,34,10,-33,-60,-29,7,7,1.554651226
12.540662,-12,-98,-13,22,75,37,-20,-4,1.554651226
12.541311,12,85,4,14,79,91,36,16,1.554651226
12.541348,-2,-32,5,18,-3,-65,-4,21,1.554651226
12.563701,-5,52,-3,-9,65,65,-43,-11,1.554651226
12.563732,71,34,9,-3,-74,41,35,27,1.554651226
12.565736,-46,18,-4,-7,58,-14,-9,-3,1.554651226
12.565743,35,47,-3,-3,-2,-25,-5,21,1.554651226
12.578016,-27,-105,-14,-4,-54,10,7,-33,1.554651226
12.578040,-1,13,2,-12,2,-37,-12,-17,1.554651226
12.580125,-7,4,-5,2,-21,28,-11,-25,1.554651226
12.580132,3,-26,1,-12,-4,-47,-25,32,1.554651226
12.602832,55,34,5,9,-33,-18,20,-1,1.554651226
12.602844,-37,43,12,-9,-65,-12,18,17,1.554651226
12.602847,-33,-66,-14,-4,50,20,3,10,1.554651226
12.602849,-32,29,1,8,-83,40,17,-15,1.554651226
12.623629,37,43,3,27,49,-59,-13,-24,1.554651226
12.623648,-20,-107,-20,-3,7,-90,-4,8,1.554651226
12.624975,-11,39,-2,-31,-128,40,-15,-18,1.554651226
12.624991,38,58,11,21,114,83,32,5,1.554651226
12.638122,-19,-79,-15,-25,-32,-22,-19,11,1.554651226
12.638141,-31,73,2,16,41,28,35,-15,1.554651226
12.639726,23,-61,-5,-14,-48,-63,-7,24,1.554651226
12.639737,-40,-46,-14,-17,-5,-6,-9,-23,1.554651226
12.661000,-4,12,-2,-4,-34,2,-14,39,1.554651226
12.661025,67,-14,3,-19,6,3,-5,5,1.554651226
12.663296,-33,-14,2,20,25,48,-1,-10,1.554651226
12.663312,14,50,0,-6,-4,-84,2,-16,1.554651226
12.683158,-17,-43,2,18,6,31,-29,-3,1.554651226
12.683208,27,74,-1,-23,18,15,-5,-8,1.554651226
12.683882,1,-64,4,6,-37,-46,45,22,1.554651226
12.683919,-1,2,2,3,2,33,-62,45,1.554651226
12.698259,35,70,12,-7,16,0,-26,1,1.554651226
12.698298,-22,25,-9,-22,-30,20,6,-24,1.554651226
12.700490,18,12,9,13,-7,-34,-10,8,1.554651226
12.700500,13,5,-10,-8,5,42,-19,-21,1.554651226
12.720781,-30,13,-5,5,6,-14,28,-23,1.554651226
12.720802,11,-13,7,21,40,-13,-42,16,1.554651226
12.722745,5,61,4,-14,-26,-32,-13,14,1.554651226
12.722757,-11,-33,-2,-1,-30,58,31,0,1.554651226
12.743313,-8,36,2,-2,26,17,8,-46,1.554651226
12.743324,-46,30,4,-20,-95,23,12,29,1.554651226
12.743792,27,-33,-21,9,44,-81,-20,-24,1.554651226
12.743830,2,-46,2,-1,1,-27,13,17,1.554651226
12.758044,-2,1,-2,3,79,18,10,3,1.554651226
12.758061,-4,-13,-1,-16,-76,-12,7,6,1.554651226
12.758659,-65,17,9,8,45,85,-37,-21,1.554651226
12.758684,-14,36,-7,-8,-4,-19,10,-12,1.554651226
12.781056,57,41,-7,-17,-65,60,25,1,1.554651226
12.781088,-19,45,6,45,100,-16,-12,9,1.554651226
12.783508,10,4,-3,-13,-24,20,-11,16,1.554651226
12.783516,30,-47,-9,17,32,10,15,37,1.554651226
12.804712,-40,26,5,-8,-38,-28,19,24,1.555917608
12.804725,-16,-18,-10,-13,20,1,0,-18,1.555917608
12.804728,-5,48,11,18,-11,-5,13,-13,1.555917608
12.804730,-7,7,-3,-19,29,-2,-7,-4,1.555917608
12.820150,-77,-25,-9,1,-38,-22,-17,-26,1.555917608
12.820165,75,-50,-17,-32,-20,14,-8,-59,1.555917608
12.820168,6,0,15,35,37,-30,27,27,1.555917608
12.820171,-35,59,-5,-14,-8,8,25,-5,1.555917608
12.840893,38,-41,7,1,-81,-46,-36,-32,1.555917608
12.840918,-66,-46,-13,-21,25,85,12,-18,1.555917608
12.843196,17,-69,-7,11,56,-13,-53,-13,1.555917608
12.843210,-33,-2,6,9,13,24,32,-31,1.555917608
12.863124,59,68,-3,-7,-104,-62,-20,6,1.555917608
12.863148,-20,-18,6,22,85,70,38,11,1.555917608
12.864377,36,76,5,-16,-45,-16,13,49,1.555917608
12.864396,-1,-99,-11,8,5,-17,-25,-31,1.555917608
12.878123,-77,6,-6,-19,-12,-11,-8,14,1.555917608
12.878147,29,-16,-1,26,5,-21,18,-4,1.555917608
12.879391,-3,-4,-4,-16,-9,25,-19,15,1.555917608
12.879407,4,40,11,-10,2,-80,-6,-40,1.555917608
12.900586,52,24,0,-23,13,25,4,41,1.555917608
12.900602,-11,-27,-4,17,18,-42,20,24,1.555917608
12.901287,30,-10,-12,-20,36,34,-69,-32,1.555917608
12.901307,-29,-52,2,-5,-48,-60,-30,16,1.555917608
12.922982,21,29,4,11,60,50,8,-3,1.555917608
12.924349,-15,-70,-1,16,-68,-8,28,-9,1.555917608
12.924365,11,-15,-1,-8,43,-8,-1,2,1.555917608
12.924371,25,-1,-2,5,12,41,35,65,1.555917608
12.938168,-2,-50,-6,8,24,-38,0,33,1.555917608
12.938188,-19,57,4,8,71,33,33,14,1.555917608
12.939222,63,72,1,1,-45,-12,15,-28,1.555917608
12.939232,-30,-112,-11,-6,-16,6,-9,16,1.555917608
12.961690,-87,-25,3,17,2,-3,-13,-72,1.555917608
12.961700,65,75,1,-23,-69,-42,-5,8,1.555917608
12.961702,18,-31,3,1,-12,4,15,19,1.555917608
12.961705,56,126,12,-7,-43,100,47,-35,1.555917608
12.983603,-30,-87,-12,38,83,9,-10,4,1.555917608
12.983629,-12,-13,1,-16,-65,-64,1,-62,1.555917608
12.986345,-31,35,1,2,-11,11,-7,0,1.555917608
12.986361,34,-51,-3,-1,-16,-16,19,46,1.555917608
13.006383,-16,-77,-16,-49,-117,5,4,-47,1.555917608
13.006402,-10,43,10,53,102,32,-33,-27,1.555917608
13.008756,-24,19,6,7,-14,-29,32,-41,1.555917608
13.008769,10,3,-8,-3,-17,-27,-29,12,1.555917608
13.020827,22,29,-1,5,25,9,7,1,1.555917608
13.020896,-9,-3,-4,-30,-13,-53,-5,27,1.555917608
13.022904,-57,-5,-6,-14,-9,27,-34,-7,1.555917608
13.022916,25,67,7,12,50,16,-1,-7,1.555917608
13.042986,6,-26,-6,-4,-13,5,-30,-36,1.555917608
13.043027,-13,-71,-7,-12,-25,-10,-29,-51,1.555917608
13.043746,-24,55,8,-2,53,-32,-25,19,1.555917608
13.043759,36,-8,-6,-2,-66,-17,-61,7,1.555917608
13.058074,-35,-36,-5,-14,26,3,35,7,1.551987769
13.058091,50,51,5,6,-10,3,-24,17,1.551987769
13.060439,-38,-22,-14,-15,-38,12,-3,-72,1.551987769
13.060450,-39,-40,-1,10,6,-11,20,-49,1.551987769
13.080692,31,58,9,-4,-16,4,-4,24,1.551987769
13.080710,-16,-34,-11,-15,-15,17,-20,31,1.551987769
13.083619,69,-30,2,-2,-3,-4,22,15,1.551987769
13.083629,-43,-1,-6,-10,-50,-17,27,-14,1.551987769
13.104228,38,15,7,3,75,27,1,16,1.551987769
13.104240,-32,34,-3,-24,-59,35,-56,-3,1.551987769
13.104242,60,-6,3,50,105,-86,22,58,1.551987769
13.104245,-41,-12,-5,-10,-48,7,-1,-3,1.551987769
13.119603,3,-60,1,2,-19,12,16,5,1.551987769
13.119617,4,27,-2,-18,-5,21,-4,-11,1.551987769
13.119619,-51,-26,-6,-24,-31,-5,-11,-30,1.551987769
13.119622,35,42,3,4,0,30,-3,-11,1.551987769
13.140738,-14,19,0,-4,-27,-30,3,-8,1.551987769
13.140762,19,-17,1,15,33,26,-10,10,1.551987769
13.143571,4,0,-4,-18,-48,-5,5,21,1.551987769
13.143581,17,9,-4,-18,29,-8,40,-2,1.551987769
13.163386,-12,-13,-1,11,28,48,26,-45,1.551987769
13.163423,38,53,7,10,37,-97,-36,10,1.551987769
13.165684,-44,-9,-12,-29,16,82,35,42,1.551987769
13.165692,28,-25,12,39,72,-13,-24,76,1.551987769
13.180006,2,-57,-8,-15,21,21,-14,6,1.551987769
13.180017,-44,28,-7,3,-44,-72,63,-39,1.551987769
13.185743,37,-15,4,0,-60,12,15,31,1.551987769
13.185768,-31,19,-10,-13,7,-25,-46,-24,1.551987769
13.200973,12,18,-2,6,-26,7,3,35,1.551987769
13.201004,-6,18,2,6,22,-2,-14,-10,1.551987769
13.201742,2,-98,-5,6,-9,20,16,-18,1.551987769
13.201774,-29,-23,-4,-15,-71,11,-12,-15,1.551987769
13.223164,36,41,-13,-15,-21,5,-2,14,1.551987769
13.223187,-51,6,15,10,26,9,39,19,1.551987769
13.225379,59,21,-9,-9,-102,-28,-35,27,1.551987769
13.225391,8,-4,10,14,121,116,35,49,1.551987769
13.237511,-17,-53,-7,-1,19,-89,33,-1,1.551987769
13.237531,-37,-15,6,-1,-51,47,-41,65,1.551987769
13.245763,-6,91,20,10,13,3,-7,-9,1.551987769
13.245797,-5,-19,-17,8,58,-16,18,-36,1.551987769
13.260514,42,47,1,1,-33,20,-21,8,1.551987769
13.260554,19,-41,1,6,17,2,20,20,1.551987769
13.261147,-18,39,1,13,55,0,6,-5,1.551987769
13.261155,-16,-10,-3,-17,-33,-33,-25,0,1.551987769
13.283546,-5,37,14,15,-3,-7,-7,-11,1.551987769
13.283578,2,22,-4,6,2,14,4,-5,1.551987769
13.286232,44,-64,-8,-27,-41,-34,-2,21,1.551987769
13.286250,17,-41,6,20,36,-29,-22,-27,1.551987769
13.306266,15,-19,-6,13,-46,-20,-53,-24,1.549153059
13.306280,79,11,2,-14,-52,-2,23,25,1.549153059
13.306998,-61,15,-8,-22,-76,-4,6,-49,1.549153059
13.307009,51,18,5,33,72,0,23,11,1.549153059
13.321992,-13,10,0,8,20,24,3,5,1.549153059
13.322004,6,-3,-4,-9,-16,-4,1,-9,1.549153059
13.322007,21,54,-1,-7,-2,21,14,-20,1.549153059
13.322009,18,-25,7,-9,-73,-37,-22,-8,1.549153059
13.343059,-82,-30,2,3,22,18,48,21,1.549153059
13.343076,-8,46,3,-7,77,10,-29,-79,1.549153059
13.344005,-44,-40,-10,22,23,32,15,-13,1.549153059
13.344012,-17,52,0,-16,-32,-80,-63,-18,1.549153059
13.357631,-4,13,3,-7,23,111,48,34,1.549153059
13.357656,-18,-89,-9,-2,-58,-44,-41,19,1.549153059
13.373188,-40,-5,5,8,17,-4,8,-8,1.549153059
13.373206,-21,27,-3,-14,-32,11,18,-4,1.549153059
13.380983,10,22,3,1,44,-6,-15,-15,1.549153059
13.381015,-14,38,-5,-17,-82,30,33,3,1.549153059
13.383446,2,-60,7,31,120,-62,-41,30,1.549153059
13.383457,55,-25,1,-9,-30,2,13,10,1.549153059
13.403215,15,88,-12,-7,102,26,-69,-29,1.549153059
13.403234,33,-127,-29,-13,-14,-10,3,26,1.549153059
13.403842,0,35,-2,-27,-49,56,-4,-34,1.549153059
13.403863,-5,-11,-4,21,40,-6,12,-53,1.549153059
13.417863,14,30,14,-4,-45,-71,-42,4,1.549153059
13.417887,-11,16,1,1,11,-10,22,-40,1.549153059
13.426010,20,8,4,21,13,22,14,-35,1.549153059
13.426042,-28,19,1,-16,-27,1,-15,60,1.549153059
13.441133,7,0,2,-12,-47,-13,22,-8,1.549153059
13.441151,22,-30,1,11,33,12,-16,13,1.549153059
13.443319,-21,-2,1,-5,24,-22,4,2,1.549153059
13.443329,11,103,8,-44,-56,61,0,6,1.549153059
13.463381,-86,-96,-11,17,59,-26,52,16,1.549153059
13.463398,65,-29,-8,-10,-28,-47,-8,9,1.549153059
13.463641,-61,33,-11,1,-48,40,-18,-23,1.549153059
13.463648,0,19,-2,-5,76,48,14,8,1.549153059
13.493644,35,46,10,10,-28,1,2,9,1.549153059
13.493660,-9,29,9,8,8,-19,14,-2,1.549153059
13.494304,22,2,-2,-7,-16,-5,11,13,1.549153059
13.494312,-41,-25,2,11,19,15,7,-14,1.549153059
13.500624,6,16,3,-3,-61,-2,2,-7,1.549153059
13.500635,-42,-10,-8,5,35,-6,-2,-28,1.549153059
13.502466,50,31,3,3,-5,22,-6,75,1.549153059
13.502481,35,-1,-2,-21,-86,-20,1,11,1.549153059
13.523105,-52,-56,-4,19,-45,-7,9,-37,1.549153059
13.523157,-8,-26,-9,-19,-74,9,-30,12,1.549153059
13.525149,30,68,6,7,23,20,11,-16,1.549153059
13.525164,17,-21,-1,7,-67,-23,37,37,1.549153059
13.546269,1,34,2,8,41,10,-19,-11,1.549153059
13.546293,-21,8,6,7,17,54,-38,2,1.549153059
13.548333,8,52,8,-5,-49,14,24,13,1.549153059
13.548351,-50,-80,-16,-17,50,20,-9,-15,1.549153059
13.560513,58,27,-5,-22,-32,2,-58,9,1.536327015
13.560529,-17,19,19,29,54,70,46,25,1.536327015
13.561225,2,-12,-7,-9,-16,-116,-12,44,1.536327015
13.561260,0,-3,4,32,48,26,-27,43,1.536327015
13.583635,42,-1,1,-22,53,-17,8,3,1.536327015
13.583668,13,32,-7,-1,-22,-4,5,-4,1.536327015
13.586477,12,24,7,4,15,17,-23,-8,1.536327015
13.586492,-8,-57,-6,8,-31,-15,9,-26,1.536327015
13.606365,-23,-20,1,-17,-55,-7,10,24,1.536327015
13.606384,12,36,1,-1,14,18,-26,6,1.536327015
13.606952,-2,-24,-11,4,-21,-53,17,34,1.536327015
13.606996,-22,-3,-7,6,88,75,36,-55,1.536327015
13.620544,-8,-27,10,18,-10,-16,3,48,1.536327015
13.620563,-18,-53,-7,-18,-24,-14,15,0,1.536327015
13.621292,17,-110,-13,-9,-11,17,8,-30,1.536327015
13.621311,-29,99,4,-20,-42,-39,-18,-15,1.536327015
13.643259,-6,7,0,-3,-34,4,7,-18,1.536327015
13.643284,9,37,7,-9,53,-9,41,71,1.536327015
13.645342,13,48,11,17,52,-50,-73,-30,1.536327015
13.645367,79,-5,6,15,-23,-37,-10,1,1.536327015
13.667194,-5,3,-14,-15,-7,3,29,-25,1.536327015
13.667204,-28,54,5,-1,-81,-34,-57,-50,1.536327015
13.667207,-9,-41,-13,-12,13,18,31,-12,1.536327015
13.667209,5,-3,4,15,13,38,13,17,1.536327015
13.683116,11,-11,-3,3,19,-22,-20,-11,1.536327015
13.683125,19,15,-1,10,-5,-33,56,-50,1.536327015
13.683127,-47,-25,1,10,32,31,-34,0,1.536327015
13.683130,-34,-1,-4,-6,58,4,-16,-27,1.536327015
13.703245,29,-3,-2,-8,-12,-6,30,13,1.536327015
13.703271,-22,95,4,-10,-35,7,-38,-5,1.536327015
13.704097,-26,-80,-7,3,32,28,22,-60,1.536327015
13.704117,62,47,9,20,-35,-42,13,61,1.536327015
13.725708,-57,-32,3,-2,43,19,-48,-17,1.536327015
13.725741,34,4,-2,-8,23,-32,30,-4,1.536327015
13.733240,-30,-3,1,2,-39,-13,1,-17,1.536327015
13.733261,-9,2,-8,-20,-49,-20,-51,-20,1.536327015
13.740636,28,40,5,2,-43,28,25,10,1.536327015
13.740653,1,-28,-6,7,19,10,-11,5,1.536327015
13.741241,15,-22,1,-12,59,-1,17,30,1.536327015
13.741276,-11,-64,-14,-28,36,44,32,-35,1.536327015
13.762994,19,35,6,42,85,-19,-40,2,1.536327015
13.763042,-77,-110,-10,0,-17,15,-24,-22,1.536327015
13.763833,66,58,6,-13,-49,-12,17,-9,1.536327015
13.763894,-43,-40,-1,-6,-4,54,-9,42,1.536327015
13.786476,10,34,-5,-14,-19,-61,9,-12,1.536327015
13.786500,23,-45,0,3,16,55,9,9,1.536327015
13.788682,-25,-35,2,-3,-19,6,4,-16,1.536327015
13.788703,-46,6,-7,-4,-30,-12,-4,-65,1.536327015
13.801069,16,-21,-2,-9,-36,-6,-39,50,1.536327015
13.801102,1,51,7,11,38,-2,-10,5,1.536327015
13.804316,-12,-4,-5,-15,-122,-29,-15,-23,1.536327015
13.804329,72,45,2,-3,19,-21,1,7,1.536327015
13.824313,-4,58,0,12,7,-10,13,-9,1.541892782
13.824324,-34,17,-14,-41,0,32,15,2,1.541892782
13.824327,-9,-82,-3,28,42,3,12,5,1.541892782
13.824329,9,38,7,0,-39,-47,-60,-1,1.541892782
13.846513,-11,63,1,-14,-95,-60,11,-74,1.541892782
13.846536,-54,-63,-10,13,55,43,20,-28,1.541892782
13.848937,28,91,12,-15,-11,-3,-26,45,1.541892782
13.848954,-9,1,-13,-17,-17,8,7,0,1.541892782
13.860730,28,11,-8,-13,-10,-46,4,-7,1.541892782
13.860754,36,-86,0,37,72,13,1,-21,1.541892782
13.861272,-1,52,-1,-2,-9,37,7,2,1.541892782
13.861287,-19,-33,-6,12,6,-27,4,4,1.541892782
13.883225,-36,18,8,-1,18,50,-13,10,1.541892782
13.883250,76,36,-3,-30,-128,2,37,64,1.541892782
13.885739,19,45,6,17,62,-32,-37,-24,1.541892782
13.885753,-37,-15,8,12,7,-5,39,4,1.541892782
13.906411,6,-17,-4,-8,-32,109,54,2,1.541892782
13.906440,-50,-54,-5,-4,-4,-104,-12,4,1.541892782
13.907032,-16,27,-2,12,-29,-25,31,21,1.541892782
13.907068,-5,0,-16,-50,-5,29,15,12,1.541892782
13.920701,44,-43,9,54,49,-39,-60,18,1.541892782
13.920725,10,-35,-2,-6,6,3,2,-22,1.541892782
13.921323,-5,-40,-12,-17,6,13,-9,-7,1.541892782
13.921341,-16,-7,-1,-5,-85,-1,-7,-11,1.541892782
13.943310,-16,-17,-4,-17,-27,13,29,-7,1.541892782
13.945626,-16,43,10,17,80,57,9,-8,1.541892782
13.945637,46,-66,-10,-3,49,-25,-55,-6,1.541892782
13.945640,-79,68,4,23,59,69,-29,-29,1.541892782
13.967083,45,-38,-5,-15,35,-73,11,80,1.541892782
13.967100,34,-27,8,29,29,-11,-37,-24,1.541892782
13.967106,-13,62,8,-14,-49,-4,35,82,1.541892782
13.967111,56,40,6,-2,-16,0,-29,0,1.541892782
13.981626,-91,-46,-15,-1,12,61,-1,-46,1.541892782
13.981637,-36,25,-1,2,-63,-44,-1,73,1.541892782
13.981640,33,-8,1,8,57,62,-16,-11,1.541892782
13.981642,22,23,8,7,-11,-118,-9,1,1.541892782
14.003155,0,-41,0,-13,-30,64,23,-8,1.541892782
14.003177,57,96,6,-15,-79,-61,-49,4,1.541892782
14.005247,-112,-101,-15,7,-9,63,11,-54,1.541892782
14.005265,21,63,-1,-19,-20,4,10,13,1.541892782
14.027796,13,-5,-6,5,59,18,-5,-36,1.541892782
14.027836,-33,115,6,-11,65,11,48,-12,1.541892782
14.027839,-16,-61,-6,17,-69,0,28,-26,1.541892782
14.027841,48,-28,2,10,-9,-32,25,54,1.541892782
14.042687,-49,-38,-1,-4,16,-37,-33,-46,1.541892782
14.042699,41,1,-7,-16,-44,28,29,29,1.541892782
14.042702,0,75,7,-14,0,-67,-60,-9,1.541892782
14.042704,-68,-25,-3,-6,-30,54,12,-29,1.541892782
14.063676,12,45,6,14,-14,-52,-2,-2,1.541892782
14.063707,-9,-21,-5,-5,7,47,-33,45,1.541892782
14.066596,11,15,-4,-12,12,20,37,-3,1.541892782
14.066606,-12,22,4,14,3,-17,-5,-5,1.541892782
14.088880,41,63,2,-36,-78,-40,-11,2,1.561199450
14.088894,-67,-76,-2,16,76,38,-59,-9,1.561199450
14.088896,37,-5,4,37,22,33,62,-9,1.561199450
14.088899,39,31,1,25,-23,-29,-23,17,1.561199450
14.100097,-9,-7,0,-9,2,73,51,-2,1.561199450
14.100122,6,-7,-7,-14,-31,-24,-37,-22,1.561199450
14.108029,-52,26,-2,0,32,-9,20,-67,1.561199450
14.108046,-4,35,3,3,2,52,-23,-29,1.561199450
14.123079,-78,-44,-4,-2,72,-3,7,-61,1.561199450
14.123105,42,-8,7,5,-49,6,4,-19,1.561199450
14.123807,27,53,1,-14,-14,5,8,17,1.561199450
14.123828,-36,-47,-5,-38,5,-11,23,-12,1.561199450
14.146365,38,35,5,62,48,26,30,21,1.561199450
14.146393,-50,39,-1,-16,26,-2,22,-72,1.561199450
14.149096,33,-81,-3,9,-9,24,-4,28,1.561199450
14.149108,6,-14,-7,-26,-94,-64,-15,2,1.561199450
14.159956,-25,22,0,3,23,-46,-44,8,1.561199450
14.159981,7,38,6,-12,-20,-18,-17,9,1.561199450
14.168916,11,34,-3,-7,1,-2,-1,35,1.561199450
14.168948,-2,-72,-9,12,60,52,43,3,1.561199450
14.182956,-10,24,-2,-11,-2,-20,-25,-49,1.561199450
14.182999,23,81,6,24,-66,-41,25,18,1.561199450
14.183794,-31,-82,3,-22,15,52,-27,1,1.561199450
14.183802,-39,-73,-9,-22,14,-73,42,-3,1.561199450
14.206351,44,-16,-9,16,-39,95,-77,-16,1.561199450
14.206369,9,0,3,5,15,-11,44,-7,1.561199450
14.208215,36,64,5,-15,-89,-36,0,35,1.561199450
14.208233,7,68,8,19,89,63,-43,-31,1.561199450
14.220162,20,-54,-8,-37,-32,-63,-6,27,1.561199450
14.220188,19,-65,-1,22,99,27,-8,49,1.561199450
14.228222,19,-2,4,3,-33,3,-11,-14,1.561199450
14.228249,-3,-13,-7,3,-18,-18,18,-3,1.561199450
14.243523,3,15,-5,-15,-38,23,-16,93,1.561199450
14.243534,-7,23,-4,5,-1,25,-5,-27,1.561199450
14.243711,10,66,7,-1,25,-83,14,-11,1.561199450
14.243718,-19,-92,-1,3,14,21,-8,8,1.561199450
14.266412,14,6,-4,-12,-50,-5,33,-7,1.561199450
14.266436,-48,-50,0,22,16,-14,-15,-25,1.561199450
14.268319,-12,-2,-7,-23,3,1,-15,15,1.561199450
14.268340,35,59,17,57,33,33,-28,-5,1.561199450
14.289040,-63,-49,-5,-4,-83,-39,-1,-81,1.561199450
14.289053,30,-4,7,25,76,27,75,-58,1.561199450
14.289520,-103,-43,-12,-15,-27,24,-35,10,1.561199450
14.289536,19,49,0,2,37,1,34,-14,1.561199450
14.304616,-43,-54,2,22,-4,16,-39,-4,1.561199450
14.304628,14,16,-8,-20,-7,-63,26,-15,1.561199450
14.304631,2,25,11,16,35,-24,-17,8,1.561199450
14.304633,-15,-38,3,-12,-3,7,20,-4,1.561199450
14.325537,10,20,-1,-5,37,18,13,28,1.561199450
14.325555,-5,19,-7,-29,-67,-10,-7,15,1.561199450
14.335990,-13,-64,-5,0,36,17,10,-17,1.589492460
14.336004,23,44,2,-4,9,-27,-26,20,1.589492460
14.343109,67,85,9,-4,-56,-15,21,20,1.589492460
14.343122,-23,-8,-4,-5,4,13,-61,-12,1.589492460
14.348517,16,9,-3,18,22,-45,12,-6,1.589492460
14.348557,-28,9,-10,-5,-41,71,6,21,1.589492460
14.363010,35,-21,4,-12,-46,22,-36,63,1.589492460
14.363027,18,-5,-11,12,61,99,59,15,1.589492460
14.365640,8,93,5,5,12,-42,-17,0,1.589492460
14.365658,29,-72,0,7,-32,-4,4,13,1.589492460
14.386488,-55,46,-4,-18,42,29,42,-3,1.589492460
14.386621,-34,-25,0,-12,-74,-38,-21,-8,1.589492460
14.387071,-69,-60,-10,-11,-16,39,-27,-35,1.589492460
14.387086,32,-8,3,-1,11,-31,-9,-11,1.589492460
14.399915,3,7,7,5,-3,3,25,-13,1.589492460
14.399928,-2,-15,-6,-11,-16,-19,-23,8,1.589492460
14.408635,46,34,3,18,-1,14,16,14,1.589492460
14.408656,-11,-57,-1,-45,-69,-5,1,-3,1.589492460
14.423172,-20,-4,-1,46,67,-55,-52,-28,1.589492460
14.425397,30,19,-10,-20,-78,96,-6,-42,1.589492460
14.425410,-36,-14,0,13,63,-37,-27,13,1.589492460
14.425413,29,86,0,-6,-30,-14,18,-64,1.589492460
14.446891,-2,-45,-3,-17,-19,7,44,4,1.589492460
14.446919,-73,-87,-14,-10,-2,-22,-20,-51,1.589492460
14.447521,4,-17,-5,-15,-59,8,-2,0,1.589492460
14.449839,-17,47,5,-10,-5,44,-2,-9,1.589492460
14.468741,4,16,-1,15,52,-10,-11,-4,1.589492460
14.468767,41,46,8,-1,-13,-34,-1,24,1.589492460
14.471078,14,23,-5,-14,-49,24,14,3,1.589492460
14.471091,3,-73,-6,9,37,-35,6,19,1.589492460
14.483444,7,12,2,-8,-23,7,11,17,1.589492460
14.483476,35,61,5,-9,-84,-40,5,-15,1.589492460
14.485711,25,-28,3,29,5,63,-57,-1,1.589492460
14.485733,-57,10,-4,6,118,5,63,-17,1.589492460
14.506200,25,0,-2,5,-15,-21,-34,-6,1.589492460
14.506220,2,23,2,-29,-4,2,-13,14,1.589492460
14.506862,-17,17,-3,-13,-4,18,40,-12,1.589492460
14.506872,7,4,2,7,-37,-17,-42,-17,1.589492460
14.528712,-1,-3,-3,7,-6,-4,18,-13,1.589492460
14.528763,0,51,7,18,32,-19,6,13,1.589492460
14.530141,12,-3,0,-2,37,4,-4,102,1.589492460
14.530164,33,2,4,24,44,-41,-47,19,1.589492460
14.543043,-31,-32,-8,-45,-69,37,77,-11,1.589492460
14.543063,61,3,1,25,69,-24,-53,52,1.589492460
14.544428,12,-16,-6,6,-32,26,56,-55,1.589492460
14.544441,-21,127,5,9,-23,-50,-69,-36,1.589492460
14.567961,-2,-68,-8,-16,81,27,60,6,1.589492460
14.567976,-33,-57,0,-6,-19,14,-44,4,1.589492460
14.567979,-6,43,-4,-15,-36,14,48,-24,1.589492460
14.567981,-20,-23,-8,-12,-37,-32,-27,17,1.589492460
14.588824,16,34,2,28,97,24,-15,1,1.586540574
14.588852,-7,-4,4,6,-36,9,19,-1,1.586540574
14.590726,-22,-41,-2,-13,-4,-65,-9,-15,1.586540574
14.590738,8,-8,-2,-1,7,36,5,1,1.586540574
14.603260,-4,-30,-4,8,-11,-19,-17,-14,1.586540574
14.603289,16,39,6,-17,-64,-28,24,79,1.586540574
14.603951,-3,-6,5,36,84,27,-10,1,1.586540574
14.603970,-16,-128,-21,-5,-26,-1,14,28,1.586540574
14.626840,19,45,9,-3,-53,1,-24,-12,1.586540574
14.626875,11,14,3,7,-19,14,31,-4,1.586540574
14.629155,-7,27,1,-11,-13,-56,-73,-6,1.586540574
14.629166,16,12,2,0,-35,63,43,44,1.586540574
14.648699,-21,82,0,1,23,-75,-37,-10,1.586540574
14.648714,-23,-90,-7,2,74,108,80,-29,1.586540574
14.649384,75,-32,1,-3,44,5,-10,17,1.586540574
14.651327,-1,29,8,-10,-56,-15,3,-71,1.586540574
14.663112,-25,-39,-6,-11,34,1,-6,3,1.586540574
14.663136,24,43,0,15,23,-36,-13,-3,1.586540574
14.670676,-20,-55,-9,-6,-8,11,23,-15,1.586540574
14.670695,-7,-40,5,1,34,10,-46,32,1.586540574
14.686408,-6,59,5,-12,-99,-12,-10,13,1.586540574
14.686428,-7,-119,-13,3,18,-25,-22,-20,1.586540574
14.688164,18,63,5,-12,15,31,31,-1,1.586540574
14.688178,-62,-10,-7,4,-9,-49,-27,6,1.586540574
14.708923,41,-36,-3,-2,10,28,27,13,1.586540574
14.708946,-19,13,0,-9,24,22,-30,-27,1.586540574
14.709474,7,55,8,-5,-82,-45,13,47,1.586540574
14.709490,15,1,-1,-5,11,40,32,0,1.586540574
14.723043,16,14,0,-20,-47,-34,-23,10,1.586540574
14.723056,-1,-49,8,-5,15,-21,-14,-4,1.586540574
14.723753,-24,21,-7,30,60,62,22,-13,1.586540574
14.723764,40,23,-4,-4,15,-43,-36,-9,1.586540574
14.746639,22,26,9,4,-2,17,-29,12,1.586540574
14.746672,-84,10,-18,-22,-71,37,17,-18,1.586540574
14.749193,35,3,-3,-6,-46,-41,6,-16,1.586540574
14.749204,30,21,3,20,23,12,17,21,1.586540574
14.771000,23,7,-8,-5,-13,8,10,-67,1.586540574
14.771015,41,47,22,19,24,-40,2,61,1.586540574
14.771018,20,34,-6,0,13,-13,-89,-40,1.586540574
14.771020,-7,21,1,-7,-7,74,35,-28,1.586540574
14.783174,-7,-79,-1,11,30,59,11,-6,1.586540574
14.783190,-49,-67,-10,-4,18,-42,-12,-17,1.586540574
14.785181,-14,5,9,26,93,18,28,5,1.586540574
14.785195,20,25,-2,-44,-85,13,43,-25,1.586540574
14.806283,-5,62,-4,45,56,-53,-65,12,1.586540574
14.806343,-32,-40,-16,-12,24,36,24,4,1.586540574
14.807030,-27,-23,1,-18,-25,-4,-24,-7,1.586540574
14.807123,-30,-46,-10,-5,21,-6,-14,-13,1.586540574
14.829432,50,29,7,3,-38,9,53,71,1.586540574
14.829464,-24,27,0,9,10,-33,-24,-31,1.586540574
14.831862,13,-71,-3,-30,-53,-1,-13,-3,1.586540574
14.831873,76,86,9,29,22,-4,14,27,1.586540574
14.843351,-6,-86,-9,1,7,-3,8,49,1.569879337
14.843376,43,33,-2,-14,66,-26,-12,25,1.569879337
14.846086,-16,4,-5,-11,-43,69,29,-61,1.569879337
14.846097,-35,-27,1,8,-19,-81,6,15,1.569879337
14.866321,18,28,12,48,127,60,-14,13,1.569879337
14.866349,11,34,7,-16,-28,18,-84,2,1.569879337
14.867286,-14,84,-2,4,-35,-81,33,-1,1.569879337
14.867307,-40,-109,-13,-3,45,22,-14,-21,1.569879337
14.888875,15,52,-2,-24,-41,-52,2,-21,1.569879337
14.888895,-13,19,7,16,-24,9,15,-56,1.569879337
14.890778,9,1,-2,-22,-54,5,-14,52,1.569879337
14.890795,-10,-27,1,-5,2,-3,-15,-7,1.569879337
14.903120,34,39,11,6,21,-3,14,1,1.569879337
14.903143,6,-18,1,-5,-54,-9,2,10,1.569879337
14.905611,-51,20,-7,-6,32,15,7,25,1.569879337
14.905624,-29,27,-3,-19,-61,-12,-18,-22,1.569879337
14.926400,39,-34,-2,5,41,16,13,35,1.569879337
14.926418,12,12,-7,-17,-90,30,41,37,1.569879337
14.926937,7,-44,4,27,62,-42,-41,-45,1.569879337
14.926977,13,-44,-7,17,34,-12,22,26,1.569879337
14.948972,-43,-9,-5,-21,7,36,19,-6,1.569879337
14.949003,63,47,0,-1,-48,-24,12,9,1.569879337
14.951035,-57,-7,-10,-20,-69,-10,3,-4,1.569879337
14.951048,12,55,0,26,82,33,-17,-3,1.569879337
14.963428,-38,-80,-11,-18,-66,-6,-1,-38,1.569879337
14.963459,-6,3,1,6,75,5,11,-9,1.569879337
14.965110,23,6,4,-15,-81,-38,5,6,1.569879337
14.965122,15,9,2,5,54,42,-4,-11,1.569879337
14.988165,-66,12,0,3,-11,0,-6,-33,1.569879337
14.988185,108,37,8,5,19,-25,20,51,1.569879337
14.988191,-43,-40,-17,-16,31,48,-34,-14,1.569879337
14.988196,24,19,6,-2,-58,-9,29,28,1.569879337
15.008688,-18,-32,-10,-6,84,6,-7,-14,1.569879337
15.008707,-9,37,5,-1,26,57,-15,-7,1.569879337
15.010792,40,-55,10,39,70,39,20,18,1.569879337
15.010803,-41,26,5,-13,-78,-39,4,-10,1.569879337
15.022450,-1,8,3,-14,-66,-18,20,3,1.569879337
15.022504,-52,-23,-8,11,45,-16,12,-32,1.569879337
15.033378,25,51,10,9,46,9,-26,5,1.569879337
15.033392,-6,-25,-12,-8,-22,-31,-15,-13,1.569879337
15.045439,-27,37,1,-14,-14,4,17,-3,1.569879337
15.045464,-7,-77,-10,-18,-114,-30,1,-37,1.569879337
15.053351,18,98,8,26,37,15,-51,-6,1.569879337
15.054596,-63,-41,9,11,25,0,56,7,1.569879337
15.069041,34,36,-6,-15,-26,3,-40,-3,1.569879337
15.069068,10,-24,0,23,1,50,22,25,1.569879337
15.071271,-7,59,2,-22,-51,-65,23,-26,1.569879337
15.071283,9,42,-2,-9,50,96,-7,35,1.569879337
15.082281,-6,-35,5,32,-37,-56,-30,17,1.569879337
15.082367,-17,99,12,18,70,-13,18,-23,1.569879337
15.090806,7,-128,-5,-8,3,14,-13,6,1.569879337
15.090824,-6,98,5,-10,-18,-42,-60,-51,1.569879337
15.106543,-29,-4,-10,-36,-86,1,39,-64,1.571767640
15.106568,25,-19,-7,16,68,-49,-72,15,1.571767640
15.108356,33,56,1,7,32,28,13,8,1.571767640
15.108372,18,-11,-2,-7,-7,62,27,-6,1.571767640
15.128666,-11,-47,-5,-5,-9,1,-5,-1,1.571767640
15.128680,-18,75,11,29,29,2,66,-3,1.571767640
15.129359,23,-25,-2,-13,-34,-37,-26,19,1.571767640
15.129395,-101,-71,-9,-4,-47,4,-10,6,1.571767640
15.142630,12,4,-6,-16,108,6,8,-11,1.571767640
15.142645,-36,-16,0,-4,-87,37,-4,-1,1.571767640
15.150811,22,-3,-3,2,30,7,22,17,1.571767640
15.150829,51,16,9,-7,-29,0,28,17,1.571767640
15.167209,-2,23,8,40,86,-101,-10,-6,1.571767640
15.167251,-21,-18,-12,-19,24,9,-42,-14,1.571767640
15.170004,-18,-23,-2,-9,-12,23,31,-25,1.571767640
15.170020,-25,23,-7,-8,-82,-59,-16,-53,1.571767640
15.188935,-34,9,7,-17,-21,84,5,-13,1.571767640
15.188952,-9,-101,-17,22,54,-50,-13,-53,1.571767640
15.189502,29,64,9,-1,-38,29,6,55,1.571767640
15.189519,-27,-30,-10,17,110,43,53,13,1.571767640
15.202472,-1,64,7,-3,-49,34,0,12,1.571767640
15.202495,31,16,2,-15,-82,-9,-18,12,1.571767640
15.210551,4,-38,-6,-30,34,-17,-10,-83,1.571767640
15.210568,24,-87,-8,29,24,14,35,22,1.571767640
15.226278,16,24,2,-5,5,-3,-28,17,1.571767640
15.226296,-14,3,0,8,-10,39,22,7,1.571767640
15.227384,23,54,2,-7,-2,-25,32,-4,1.571767640
15.227394,0,37,-1,-17,11,0,-27,-2,1.571767640
15.248693,25,-62,-10,3,-1,-16,-17,2,1.571767640
15.248718,-51,56,2,-40,-100,-20,7,-18,1.571767640
15.251106,30,74,-5,15,17,26,42,3,1.571767640
15.251119,-3,-53,2,14,120,70,-72,-7,1.571767640
15.262711,-16,36,4,22,20,17,34,10,1.571767640
15.262744,-6,-61,-6,-18,18,-44,-40,20,1.571767640
15.270642,-32,16,-6,-22,-54,27,33,-18,1.571767640
15.270662,47,34,-4,-11,-63,-107,-43,-9,1.571767640
15.286402,-36,6,-6,7,-50,-1,-32,7,1.571767640
15.286421,-5,27,10,16,68,51,86,-9,1.571767640
15.287092,-64,-85,-4,-3,-49,-28,-22,12,1.571767640
15.287110,32,35,8,9,5,56,26,25,1.571767640
15.308803,35,-13,-1,-15,-33,-6,-5,45,1.571767640
15.308827,21,44,1,5,1,-22,-11,-3,1.571767640
15.311195,-46,-47,1,5,-23,-2,-6,-15,1.571767640
15.311205,-3,32,8,-39,-9,22,36,-11,1.571767640
15.322529,17,21,4,44,95,-22,-35,-20,1.571767640
15.322547,-2,15,-3,-8,-64,-1,7,66,1.571767640
15.332520,-1,-113,-16,11,81,62,-6,49,1.571767640
15.332526,25,50,13,2,-89,-16,-11,36,1.571767640
15.345773,52,71,-4,-25,-24,38,-3,-23,1.571767640
15.345805,19,-90,-11,-2,2,-80,-17,-2,1.571767640
15.352882,28,83,4,-15,-36,14,41,-6,1.565259976
15.352925,-69,-90,-17,14,54,10,-65,2,1.565259976
15.368802,-29,-26,-1,-9,-47,14,53,-23,1.565259976
15.368828,-24,24,2,6,7,-9,-17,-4,1.565259976
15.371433,63,-7,1,-17,-114,-3,48,58,1.565259976
15.371449,-4,11,5,36,86,-46,-6,-21,1.565259976
15.390382,8,15,-9,-13,-1,54,18,3,1.565259976
15.390400,1,-26,-16,-25,62,25,-3,1,1.565259976
15.400723,-42,-66,11,20,34,-49,-72,-74,1.565259976
15.400734,15,31,-6,-4,-69,7,23,3,1.565259976
15.406396,-19,-33,0,-12,-11,-68,-9,17,1.565259976
15.406414,16,34,-3,-7,-68,30,0,-17,1.565259976
15.408293,-26,27,-7,5,3,-2,-27,-5,1.565259976
15.408304,17,-17,4,-13,-1,64,55,-14,1.565259976
15.429406,-29,-55,-2,12,-21,-23,-49,-2,1.565259976
15.429439,43,15,9,11,48,47,19,7,1.565259976
15.430235,-17,25,-1,-20,10,-22,-2,-4,1.565259976
15.430253,-16,-42,-14,4,63,-34,-60,-2,1.565259976
15.451396,14,9,-4,-24,-68,-5,45,3,1.565259976
15.451435,12,-40,2,9,13,26,-4,33,1.565259976
15.454657,-11,47,3,12,18,-3,-19,-7,1.565259976
15.454739,6,66,9,-4,-32,-23,6,-4,1.565259976
15.466174,20,-8,-8,-14,-7,22,35,10,1.565259976
15.466218,14,16,3,2,-15,-62,-92,-13,1.565259976
15.472349,21,46,-1,9,42,17,9,63,1.565259976
15.472366,0,-105,-10,-19,-99,-28,-6,58,1.565259976
15.488756,12,41,-8,-14,-1,17,-50,-25,1.565259976
15.488776,-12,-17,2,18,29,54,36,-16,1.565259976
15.490308,-20,-19,3,4,5,27,-10,-9,1.565259976
15.490396,34,64,2,-13,-11,-69,0,-42,1.565259976
15.511287,-24,-20,1,7,46,102,28,-3,1.565259976
15.511312,18,81,-1,4,35,-39,-9,23,1.565259976
15.514238,-6,-88,-6,-3,-25,37,9,-45,1.565259976
15.514249,-35,-58,0,19,58,8,-25,4,1.565259976
15.526269,10,1,-6,-10,-55,4,24,0,1.565259976
15.526371,-6,20,2,-3,0,-16,-6,-26,1.565259976
15.532714,-6,-19,-6,-17,-83,15,-19,-21,1.565259976
15.532738,14,26,10,42,69,36,70,-7,1.565259976
15.549118,-15,34,8,-6,-16,-32,-17,18,1.565259976
15.549131,6,-105,-8,10,-10,10,-8,-1,1.565259976
15.550147,35,29,-2,-13,5,-44,-19,13,1.565259976
15.550156,-4,47,-3,-9,-31,3,-2,-17,1.565259976
15.571338,-9,-45,3,18,-14,-1,-27,30,1.565259976
15.571373,-14,11,-2,-14,-41,-32,56,-9,1.565259976
15.573258,7,112,8,-3,-19,11,-49,21,1.565259976
15.573270,-29,-90,-13,-8,1,-40,35,2,1.565259976
15.585764,-38,33,0,14,33,-51,-60,66,1.565259976
15.585784,33,53,4,5,50,84,40,-3,1.565259976
15.592810,-8,-6,-2,-11,-17,4,25,-1,1.565259976
15.592842,-8,38,-3,-9,58,-8,-27,-60,1.565259976
15.610879,0,4,3,13,-54,-3,28,-16,1.569144744
15.610891,1,8,-6,-13,-14,-8,-14,-10,1.569144744
15.610894,-23,-20,3,17,21,-2,12,7,1.569144744
15.610897,-18,56,-3,-28,-34,-11,-42,10,1.569144744
15.631612,40,-128,-6,3,32,-12,11,-67,1.569144744
15.631645,-19,34,8,-1,-1,5,-9,8,1.569144744
15.634113,0,-29,-3,5,30,10,5,4,1.569144744
15.634124,-5,25,5,5,-104,30,23,-16,1.569144744
15.646074,30,40,-7,-18,-30,-79,-69,-9,1.569144744
15.646102,-1,-32,-1,5,60,28,8,11,1.569144744
15.652667,-21,-4,-17,-5,-25,-23,4,-57,1.569144744
15.652689,3,28,2,-9,17,74,18,64,1.569144744
15.676689,11,54,11,2,-16,28,-52,5,1.569144744
15.676712,-28,-13,-5,-24,-59,-23,12,-11,1.569144744
15.678705,16,-62,-10,-5,28,-37,1,-15,1.569144744
15.678716,21,32,-1,-6,49,4,-20,3,1.569144744
15.691974,9,-11,-3,-2,-41,-4,64,-28,1.569144744
15.692002,-55,-40,-5,-8,-79,-27,-37,18,1.569144744
15.692925,4,30,8,3,78,6,-13,0,1.569144744
15.692940,46,0,4,0,-34,19,-21,7,1.569144744
15.705590,-10,5,-1,-4,-2,-7,10,15,1.569144744
15.705607,-54,-14,-2,-27,-52,36,18,-98,1.569144744
15.712448,85,93,24,37,61,-42,14,45,1.569144744
15.712465,-47,-85,-15,13,85,18,10,-7,1.569144744
15.729536,-17,19,-2,6,63,26,1,-19,1.569144744
15.729567,-31,18,-1,2,-15,-53,-18,8,1.569144744
15.732406,3,21,-3,-9,-32,76,4,-8,1.569144744
15.732419,14,49,-4,-36,-53,-40,-2,-15,1.569144744
15.751365,-45,-65,1,-6,-23,29,-3,-11,1.569144744
15.751387,60,60,-3,4,-8,-17,-14,-15,1.569144744
15.752905,-48,-52,-6,-2,11,-18,25,14,1.569144744
15.752923,35,-33,-3,10,-42,-26,0,-64,1.569144744
15.765733,-43,-15,-16,-14,24,32,15,-7,1.569144744
15.765749,27,43,5,4,-18,-16,-25,1,1.569144744
15.772407,-43,-12,-6,-4,-19,6,27,12,1.569144744
15.772424,13,16,9,4,-18,21,-8,-7,1.569144744
15.788827,10,21,0,-24,0,27,55,-7,1.569144744
15.788845,14,-33,-5,14,-21,-55,11,-32,1.569144744
15.790207,-5,69,10,34,60,-33,1,6,1.569144744
15.790247,9,-15,-7,3,1,-30,12,22,1.569144744
15.813277,31,75,1,-4,26,-7,0,19,1.569144744
15.813288,-50,12,2,-2,45,31,7,5,1.569144744
15.813291,-20,25,-3,-17,-65,20,2,-5,1.569144744
15.813294,16,34,5,13,-6,11,-2,11,1.569144744
15.827022,-6,-28,-4,17,-26,-44,-10,40,1.569144744
15.827033,27,1,-4,-27,0,48,-9,1,1.569144744
15.832535,-4,19,4,16,20,-26,3,-8,1.569144744
15.832564,-5,-4,0,0,3,27,9,45,1.569144744
15.856506,-10,-26,-1,6,-14,-45,-12,-34,1.569144744
15.858705,-21,-104,-4,13,49,30,7,22,1.569144744
15.858717,26,16,-2,-13,-78,4,-26,8,1.569144744
15.858720,58,43,1,-7,24,35,41,-4,1.569144744
15.871244,-7,21,11,20,66,47,-23,-17,1.561402249
15.871261,-9,-20,-12,19,43,61,12,-3,1.561402249
15.873367,20,6,0,-11,-29,28,-6,9,1.561402249
15.873379,-14,-17,-10,-31,-26,-70,-7,-24,1.561402249
15.885759,23,13,7,14,41,78,-3,42,1.561402249
15.885791,-36,-15,4,-5,-6,-28,-21,25,1.561402249
15.892477,-40,-5,-4,1,-2,-1,16,-26,1.561402249
15.892497,18,-39,0,-10,-49,-17,-12,-4,1.561402249
15.908763,20,28,-5,-7,-4,-50,-22,-17,1.561402249
15.908817,0,1,0,0,-2,-18,-9,10,1.561402249
15.910230,-60,-100,-13,10,50,0,-3,-4,1.561402249
15.910255,-14,24,3,4,-24,-15,-29,16,1.561402249
15.931578,-27,-6,-1,-10,36,0,15,-23,1.561402249
15.931612,19,26,-1,-24,-38,-16,6,1,1.561402249
15.933379,83,31,5,19,73,28,-52,-19,1.561402249
15.933388,-75,-47,-5,10,19,46,13,5,1.561402249
15.945126,-4,57,1,9,24,21,-67,2,1.561402249
15.945157,29,-14,2,-14,-94,-66,16,-3,1.561402249
15.955514,3,9,-3,8,27,-23,12,72,1.561402249
15.955526,-2,14,-1,1,1,-1,-3,31,1.561402249
15.970083,35,-70,3,1,25,55,22,26,1.561402249
15.970099,-12,23,-8,-17,-6,51,21,-5,1.561402249
15.970390,9,-63,0,6,6,-12,3,45,1.561402249
15.970405,7,40,6,12,10,-36,-32,-35,1.561402249
15.991392,9,22,11,-16,-46,-22,31,25,1.561402249
15.991438,10,18,6,49,50,72,-18,9,1.561402249
15.992794,-5,-57,-9,-5,-11,-30,11,-12,1.561402249
15.992806,6,-6,-9,-12,-2,54,-16,5,1.561402249
16.004909,8,-10,-3,-15,-32,-32,10,-9,1.561402249
16.004934,-11,44,6,6,-5,-4,1,-3,1.561402249
16.016155,-5,38,6,-6,-10,15,2,-23,1.561402249
16.016164,-10,-31,-2,1,-26,-23,-15,-2,1.561402249
16.030696,19,92,21,-29,-47,8,13,-18,1.561402249
16.030753,-1,-122,-17,19,127,-13,-9,4,1.561402249
16.030760,-9,12,-4,5,-25,54,9,-33,1.561402249
16.030765,19,36,4,7,-11,-58,30,23,1.561402249
16.051954,-5,26,4,14,-7,37,-3,8,1.561402249
16.051980,50,25,-1,-22,-41,16,33,4,1.561402249
16.054230,-53,52,-4,-14,-41,-33,-41,-11,1.561402249
16.054243,-31,-65,-4,0,45,9,-4,-81,1.561402249
16.064943,-47,-23,-9,9,5,-23,3,-62,1.561402249
16.064954,64,46,7,-8,-121,-47,4,12,1.561402249
16.075137,-18,-16,7,5,45,-43,-66,-11,1.561402249
16.075155,-14,43,-1,-15,-4,19,13,1,1.561402249
16.088827,-11,-64,-11,2,-75,-21,51,-18,1.561402249
16.088845,-12,-30,-5,-5,-4,20,-90,-18,1.561402249
16.090833,-41,-4,-2,-24,18,-67,28,-20,1.561402249
16.090845,24,-2,0,16,40,63,1,12,1.561402249
16.111276,15,6,2,4,6,-24,-12,9,1.561402249
16.111292,1,39,3,-1,34,18,24,16,1.561402249
16.112671,48,95,12,-5,-60,9,-4,-8,1.561402249
16.112789,-63,-88,-5,11,57,18,-26,8,1.561402249
16.124875,-20,-1,-9,-3,15,-19,-44,-19,1.564827334
16.124890,-11,31,2,-8,-16,-35,-12,-5,1.564827334
16.135196,-22,16,-3,0,-12,45,7,-41,1.564827334
16.135214,-1,-7,0,-14,-28,-20,14,1,1.564827334
16.149941,25,8,-3,18,20,12,-20,57,1.564827334
16.149973,-53,39,7,5,1,-6,-16,-74,1.564827334
16.152414,35,-2,-7,-4,9,37,58,27,1.564827334
16.152433,99,57,-1,-4,-25,-10,-36,-12,1.564827334
16.171954,-22,-44,-4,3,-21,-8,23,-12,1.564827334
16.171969,-62,3,-1,-2,-47,27,-9,3,1.564827334
16.172873,27,-17,4,1,24,-10,-15,7,1.564827334
16.172883,-28,61,-4,-47,-33,-24,35,-9,1.564827334
16.185361,46,68,2,23,16,-38,39,27,1.564827334
16.185393,-23,0,10,58,102,27,-17,38,1.564827334
16.194231,-15,-128,-13,5,-58,11,6,-16,1.564827334
16.194240,6,72,2,-11,-56,10,18,35,1.564827334
16.208651,-2,7,-5,-20,-15,-28,-27,-17,1.564827334
16.208671,27,35,1,-24,-16,-41,11,-43,1.564827334
16.210247,10,85,17,9,36,47,23,73,1.564827334
16.210261,-7,-6,-5,6,-6,-27,-27,-39,1.564827334
16.231582,-42,-128,-15,-4,5,2,22,-14,1.564827334
16.231618,15,-15,1,-7,10,9,3,31,1.564827334
16.234941,6,9,1,9,8,-10,-17,-10,1.564827334
16.234955,11,43,5,3,-5,4,28,7,1.564827334
16.245363,-3,-9,-3,3,20,55,-48,20,1.564827334
16.245396,-17,-30,-7,-15,41,-83,25,3,1.564827334
16.253966,34,-5,-13,-36,-50,36,13,-23,1.564827334
16.253991,-38,5,4,65,39,40,19,12,1.564827334
16.268735,-52,-124,-17,-5,110,38,-52,-23,1.564827334
16.268757,23,12,-3,-11,-117,-75,4,27,1.564827334
16.270444,-77,43,-2,-8,116,85,55,-57,1.564827334
16.270465,3,34,7,21,14,-37,-48,12,1.564827334
16.291366,-8,36,-2,-1,-44,30,-20,-18,1.564827334
16.291385,4,24,4,-7,7,2,-16,-26,1.564827334
16.292752,12,-120,-13,-4,-25,-47,-31,14,1.564827334
16.292800,-3,24,2,-1,-10,-8,28,2,1.564827334
16.313997,25,52,1,0,9,-1,32,-28,1.564827334
16.314008,-71,-107,-8,-20,-37,-16,-21,-32,1.564827334
16.315122,20,63,2,6,24,-7,3,-58,1.564827334
16.315130,11,-96,-5,-13,-4,11,-40,19,1.564827334
16.328610,56,43,4,-1,-6,-41,23,30,1.564827334
16.328648,-6,-25,4,17,106,54,30,-18,1.564827334
16.330067,12,7,1,15,-58,-21,0,10,1.564827334
16.330075,11,-30,-2,-7,6,34,-5,4,1.564827334
16.351381,12,40,2,-12,-20,-16,8,3,1.564827334
16.351406,23,35,0,-2,-46,51,52,18,1.564827334
16.353081,-1,62,11,34,65,-28,18,62,1.564827334
16.353097,52,-36,-9,-6,1,-8,-63,-1,1.564827334
16.373776,-92,-58,-1,-5,-31,39,50,-47,1.564827334
16.373793,17,24,-8,-7,-5,6,-36,8,1.564827334
16.375992,51,8,1,-22,-20,20,38,14,1.564827334
16.376006,-45,32,-3,-6,1,-38,-21,-22,1.564827334
16.388829,26,-35,4,5,25,-30,12,-5,1.565764725
16.388858,-40,-32,-10,-5,0,17,12,0,1.565764725
16.390936,35,43,1,-6,11,38,-7,47,1.565764725
16.390947,-54,-86,-8,10,33,5,13,22,1.565764725
16.411372,3,37,4,-3,-13,-40,-17,-8,1.565764725
16.411396,15,32,1,4,-19,1,26,6,1.565764725
16.413940,-6,15,5,-7,-6,-30,-45,-7,1.565764725
16.413952,10,4,-1,-25,40,32,35,2,1.565764725
16.434730,-16,-36,-11,14,-11,11,-7,76,1.565764725
16.434763,51,-1,2,0,-42,6,7,-21,1.565764725
16.437781,-20,-73,-3,13,-28,-25,4,-13,1.565764725
16.437794,-65,-54,-2,19,20,-3,-21,-22,1.565764725
16.449147,-6,49,-1,-3,6,-10,-16,27,1.565764725
16.449179,32,-36,-5,-11,7,-3,-19,-1,1.565764725
16.451752,-31,-36,-13,-5,-16,-1,-7,1,1.565764725
16.451772,-28,50,13,-11,-72,-47,-7,8,1.565764725
16.471387,7,1,-8,-27,-97,22,24,-48,1.565764725
16.471405,-8,14,5,50,115,-29,-16,60,1.565764725
16.472731,-18,19,2,0,27,37,15,-50,1.565764725
16.472748,29,-14,-3,2,-7,4,17,26,1.565764725
16.493716,2,10,-3,-14,-26,-10,17,-13,1.565764725
16.493733,20,-61,-5,-8,-39,-4,16,2,1.565764725
16.495563,-5,-9,-7,-15,-47,-18,-31,-11,1.565764725
16.495580,-34,113,10,15,-66,-38,-27,-16,1.565764725
16.508897,10,-59,14,24,83,84,92,17,1.565764725
16.508929,-5,-18,-5,-7,-51,-54,-72,42,1.565764725
16.515088,11,-10,4,-3,72,19,4,3,1.565764725
16.515111,24,-41,1,7,-35,23,-23,-31,1.565764725
16.531192,49,53,7,16,54,-12,4,70,1.565764725
16.531233,-8,47,6,1,17,-15,-31,-32,1.565764725
16.532834,-18,-56,-3,-11,-29,-24,7,11,1.565764725
16.532867,-6,0,-8,-11,4,7,9,-34,1.565764725
16.553735,18,2,-3,-12,-1,5,-25,3,1.565764725
16.553754,28,95,5,2,9,20,6,-8,1.565764725
16.555574,-33,-32,-8,3,-32,-38,-12,9,1.565764725
16.555587,6,7,-4,-5,43,28,24,5,1.565764725
16.576617,43,-15,-11,-3,-19,-53,-45,-16,1.565764725
16.576628,-22,57,4,-27,-43,-3,12,-5,1.565764725
16.577628,35,36,-2,-29,-97,9,32,4,1.565764725
16.577636,2,-24,6,37,73,-23,-45,-2,1.565764725
16.591865,-20,3,-2,-5,-97,-25,14,-14,1.565764725
16.591878,23,42,0,-2,55,49,-1,43,1.565764725
16.592875,17,23,-1,-20,-79,-35,13,-60,1.565764725
16.592891,43,3,6,16,63,46,-15,19,1.565764725
16.614487,-30,15,-4,1,2,-9,-37,-13,1.565764725
16.614507,-2,-27,-4,-18,66,16,23,35,1.565764725
16.620111,-46,-89,-5,29,44,54,38,16,1.565764725
16.620133,23,41,-10,-27,-40,-59,-15,-22,1.565764725
16.628446,-10,48,8,4,51,41,9,26,1.565764725
16.628489,-16,-68,-5,14,-51,-15,1,-25,1.565764725
16.638744,-25,44,4,-6,8,-10,-31,7,1.572520258
16.638756,89,46,0,-32,19,4,17,43,1.572520258
16.651664,-128,-72,-4,25,46,-12,-22,-29,1.572520258
16.651699,13,21,2,16,-13,9,11,-25,1.572520258
16.654505,16,-75,-10,-4,60,5,21,84,1.572520258
16.654518,-21,-10,7,-2,34,81,35,-12,1.572520258
16.673921,40,69,3,-23,-90,-5,-2,16,1.572520258
16.673939,-21,28,1,-4,53,52,0,-13,1.572520258
16.675340,11,45,-5,10,61,1,-28,-32,1.572520258
16.675367,-33,-85,-9,-4,-75,27,49,-47,1.572520258
16.688047,9,-44,-1,-7,34,-35,-49,30,1.572520258
16.688066,12,1,-7,-5,-40,-32,7,-7,1.572520258
16.694757,31,34,-4,-23,-54,-9,-27,-25,1.572520258
16.694774,2,44,7,10,-8,-2,31,62,1.572520258
16.711600,19,-16,9,0,-25,-26,-15,-20,1.572520258
16.711625,30,18,1,16,52,39,-21,-19,1.572520258
16.713818,-35,15,5,-5,34,-41,34,13,1.572520258
16.713828,1,11,-18,-6,-8,4,-58,-8,1.572520258
16.733901,-36,10,6,25,16,-39,61,-47,1.572520258
16.733911,19,26,2,-8,37,18,27,62,1.572520258
16.735517,-1,-18,2,6,-31,-30,-53,-7,1.572520258
16.735545,-26,10,2,-6,5,-35,-5,-3,1.572520258
16.749771,26,56,-11,-33,-57,93,0,-11,1.572520258
16.749782,-65,-127,-15,7,-40,-18,-48,-109,1.572520258
16.754953,-5,33,8,9,48,22,18,-8,1.572520258
16.754977,15,-27,6,7,-35,-12,13,63,1.572520258
16.771348,8,39,-4,-18,-20,-35,-6,4,1.572520258
16.771366,-50,13,2,12,-20,20,40,8,1.572520258
16.773046,58,42,4,-3,-66,73,53,-16,1.572520258
16.773059,-59,-72,-8,-12,4,-30,-36,-11,1.572520258
16.794710,-13,5,1,14,114,21,59,-11,1.572520258
16.794721,39,15,8,-1,-24,36,-44,21,1.572520258
16.795301,-19,5,-7,-7,44,-99,-59,-18,1.572520258
16.795378,8,65,19,-21,-82,38,46,25,1.572520258
16.816379,-9,-36,-7,19,3,45,16,-83,1.572520258
16.816396,26,-97,-4,0,79,-10,2,1,1.572520258
16.818475,-33,11,-11,-19,-31,-2,-36,-2,1.572520258
16.818494,2,3,-5,0,30,-10,4,59,1.572520258
16.831403,-37,19,-2,6,18,6,-33,-35,1.572520258
16.831423,54,-4,11,-8,-45,-49,30,15,1.572520258
16.833209,-37,20,5,39,23,19,14,-51,1.572520258
16.833227,2,-33,-6,6,29,-1,26,-25,1.572520258
16.853748,25,12,5,-8,1,17,-53,34,1.572520258
16.853773,-26,-1,-11,-14,-37,-38,36,-8,1.572520258
16.856507,19,23,10,-6,-84,-4,-14,21,1.572520258
16.856519,-9,7,-1,32,107,73,4,-33,1.572520258
16.867766,18,-5,0,-6,-42,-81,-37,-11,1.572520258
16.867810,74,43,1,-36,-81,2,-1,30,1.572520258
16.876277,-9,-53,-10,48,90,48,19,8,1.572520258
16.876301,20,88,6,-8,-23,40,13,-46,1.572520258
16.891563,-18,-118,-4,-7,2,-34,-88,16,1.582137536
16.891594,-3,83,1,-2,-27,-1,45,0,1.582137536
16.892937,20,-8,-5,-15,-19,-13,-45,-10,1.582137536
16.894478,14,49,14,11,15,-22,20,95,1.582137536
16.913916,22,19,-9,-26,-52,-2,57,21,1.582137536
16.913941,-74,-13,10,32,69,32,-76,-52,1.582137536
16.916429,15,-29,-3,0,-36,9,9,20,1.582137536
16.916437,30,-6,-11,-15,34,-41,-10,-55,1.582137536
16.927729,14,-23,-2,-11,-71,9,26,45,1.582137536
16.927761,-3,37,7,4,25,6,-21,17,1.582137536
16.937694,-53,-21,-4,-4,-15,37,29,-22,1.582137536
16.937707,39,57,2,-35,-128,-70,-29,-60,1.582137536
16.951649,-70,-53,-5,60,127,98,50,-1,1.582137536
16.951669,5,4,-6,-9,-9,-4,-34,-22,1.582137536
16.952956,3,35,-7,-8,-17,35,-8,20,1.582137536
16.952975,-45,-81,-11,-6,3,-98,12,-18,1.582137536
16.973509,36,44,7,4,1,17,-8,7,1.582137536
16.973527,-5,-30,-3,-2,-15,-2,31,2,1.582137536
16.979990,-1,18,10,15,18,-10,5,33,1.582137536
16.980015,-37,5,-1,9,4,9,-18,72,1.582137536
16.987534,25,15,-9,-20,-17,-30,-42,-75,1.582137536
16.987552,-73,-124,-12,0,31,22,1,-20,1.582137536
16.997069,12,70,2,-13,-46,-56,-19,-8,1.582137536
16.997081,38,66,-4,-6,-69,57,16,-5,1.582137536
17.013806,-3,-24,3,22,37,-3,-12,0,1.582137536
17.013817,-22,35,-10,-7,20,-32,39,27,1.582137536
17.013821,-19,-26,-2,-31,2,33,19,-65,1.582137536
17.013823,-3,-8,13,41,74,-68,-79,-49,1.582137536
17.033758,4,57,5,-9,63,97,38,0,1.582137536
17.033821,24,-11,0,-2,-11,6,-40,-1,1.582137536
17.036604,-18,-74,-11,-21,-30,-28,20,17,1.582137536
17.036617,-7,-22,-9,-1,-14,-4,30,-13,1.582137536
17.047418,31,-52,3,-1,-39,-36,-40,29,1.582137536
17.047442,-51,42,2,9,11,-28,0,-24,1.582137536
17.057517,77,23,6,-2,-3,25,-11,7,1.582137536
17.057527,-34,-9,-14,-14,-30,-22,-9,21,1.582137536
17.071541,3,-77,-7,5,6,-10,19,48,1.582137536
17.071560,7,48,-1,6,17,15,-3,-13,1.582137536
17.073236,24,-35,3,1,-74,-17,-12,-50,1.582137536
17.073248,-36,-52,-9,-42,-19,100,35,-38,1.582137536
17.093902,-3,27,3,31,-71,2,2,5,1.582137536
17.093929,-8,-6,0,22,-13,32,34,-2,1.582137536
17.095394,-4,31,8,8,44,-1,-30,14,1.582137536
17.095421,19,22,0,8,14,36,32,3,1.582137536
17.107369,-67,5,-5,-26,3,-53,-44,-20,1.582137536
17.107389,41,-31,-5,-20,-19,-6,5,5,1.582137536
17.117034,35,30,2,3,-11,-40,-10,18,1.582137536
17.117050,-21,-54,-4,4,-15,15,5,-61,1.582137536
17.131329,-14,43,2,-13,-27,52,-10,6,1.582137536
17.131353,4,47,5,8,-29,-102,-14,69,1.582137536
17.132843,-41,-61,-1,4,62,58,-9,-11,1.582137536
17.132861,43,33,7,-9,-1,2,6,21,1.582137536
17.153841,2,40,-6,-8,-75,-24,31,-19,1.579830111
17.153866,48,26,-1,7,24,75,57,65,1.579830111
17.155353,-36,5,6,19,70,-39,-20,1,1.579830111
17.155381,7,-40,5,-7,36,96,-40,14,1.579830111
17.169519,59,60,1,-5,-31,-17,32,33,1.579830111
17.169535,-51,-57,-8,-19,-71,-34,-33,-27,1.579830111
17.176575,6,0,-9,9,10,11,36,19,1.579830111
17.176585,2,27,7,-7,2,-15,-17,-8,1.579830111
17.191358,-11,-22,-6,-8,51,-43,33,58,1.579830111
17.192492,31,91,8,2,-25,12,-6,-33,1.579830111
17.192718,9,-114,-13,-1,27,11,12,105,1.579830111
17.192741,8,-5,-3,-2,13,-43,-22,-9,1.579830111
17.214167,17,83,15,4,-6,1,12,-30,1.579830111
17.214210,-43,-8,-7,-5,18,26,-23,-23,1.579830111
17.216531,-5,43,-12,-40,-61,-35,0,-20,1.579830111
17.216545,-23,38,9,51,13,-21,-17,13,1.579830111
17.227375,33,-28,4,-20,23,15,35,26,1.579830111
17.230162,7,24,1,2,20,34,10,12,1.579830111
17.237857,5,46,8,22,12,-9,-31,-28,1.579830111
17.237871,9,-93,-16,-22,35,35,24,3,1.579830111
17.251893,-12,-37,-8,7,-22,-32,-6,-36,1.579830111
17.251926,-13,19,1,-16,-37,3,-48,-44,1.579830111
17.252993,22,24,7,7,34,-57,57,29,1.579830111
17.253016,6,24,0,-9,-43,7,2,14,1.579830111
17.273807,-66,18,3,18,63,2,-16,-30,1.579830111
17.273827,-12,-122,-23,-18,-6,-23,-17,-15,1.579830111
17.276061,1,6,-1,-4,6,24,7,-2,1.579830111
17.276074,-59,55,1,8,-42,-32,4,-21,1.579830111
17.296386,18,-25,0,-19,-12,48,-1,7,1.579830111
17.296411,2,33,4,15,86,-68,-4,0,1.579830111
17.299020,-19,12,5,-10,-18,-37,-64,-18,1.579830111
17.299032,15,-47,-19,-12,75,-11,-9,-40,1.579830111
17.311777,15,80,11,29,11,-2,33,-3,1.579830111
17.311800,6,-12,7,46,60,82,-11,38,1.579830111
17.313060,-36,-96,-11,-2,-13,8,-5,-14,1.579830111
17.313086,22,-10,-3,-8,-16,52,-7,8,1.579830111
17.333001,-17,8,-7,-27,-40,-117,-49,-61,1.579830111
17.333033,2,90,-3,-6,5,26,51,-3,1.579830111
17.341545,-3,81,2,3,7,1,-29,-53,1.579830111
17.341562,0,-36,2,5,-9,-18,-11,28,1.579830111
17.356480,-13,-52,-8,-6,0,78,-1,-21,1.579830111
17.356492,33,41,8,-8,-97,-53,39,6,1.579830111
17.357676,-24,-54,-16,-9,45,84,-50,-41,1.579830111
17.357687,-8,-7,15,40,83,-19,13,8,1.579830111
17.371745,2,76,2,-13,37,-52,-17,10,1.579830111
17.371761,-29,-60,-14,16,-39,4,-37,-20,1.579830111
17.372864,14,23,1,0,-28,22,43,25,1.579830111
17.372887,20,9,3,-12,-17,-21,-16,-30,1.579830111
17.394071,-14,-60,-4,-5,17,94,-35,13,1.579830111
17.394097,9,63,9,-13,-24,-54,15,-10,1.579830111
17.396540,31,-81,-6,-4,-7,-41,-11,44,1.579830111
17.396552,-22,12,-11,-7,-37,14,-10,5,1.579830111
17.416678,19,42,8,12,6,-16,-4,-14,1.578577249
17.416710,2,-62,-9,-31,-40,-15,-5,-85,1.578577249
17.419805,10,45,8,6,-7,28,21,19,1.578577249
17.419820,-10,43,5,5,15,8,17,34,1.578577249
17.430988,-10,-4,-14,-23,-78,14,0,-6,1.578577249
17.431020,40,-60,2,13,71,17,-3,5,1.578577249
17.437467,-7,9,-3,44,93,10,42,-28,1.578577249
17.437485,8,-19,-2,-16,-58,-25,-1,-3,1.578577249
17.453849,39,52,0,-11,-33,-22,-7,-4,1.578577249
17.453867,-16,17,5,14,45,30,4,39,1.578577249
17.455252,-28,-12,1,-18,-63,-7,26,8,1.578577249
17.455269,48,11,0,4,-8,22,11,7,1.578577249
17.476924,-50,-2,-7,2,65,-25,59,-13,1.578577249
17.476956,-3,-118,-13,-25,-31,-13,-83,18,1.578577249
17.478699,-36,22,9,13,-11,-45,-9,33,1.578577249
17.478710,49,74,0,-15,-74,35,29,-14,1.578577249
17.490696,1,-3,9,13,66,9,-6,2,1.578577249
17.490713,10,31,8,25,87,70,48,42,1.578577249
17.497802,60,29,-5,-11,18,-74,-69,-16,1.578577249
17.497834,-88,-65,-5,-2,-3,-42,6,22,1.578577249
17.513817,18,-4,1,12,5,5,-5,-1,1.578577249
17.513862,-36,-113,-10,-23,-25,20,20,-32,1.578577249
17.515335,25,17,-2,-4,-5,34,-5,-10,1.578577249
17.515343,87,94,12,3,-9,2,3,13,1.578577249
17.536506,-74,-80,-10,-19,-58,19,39,-12,1.578577249
17.536572,-2,30,-3,8,74,-56,-6,-29,1.578577249
17.539061,-19,35,6,-11,-70,104,-13,0,1.578577249
17.539073,44,-64,-7,0,17,-94,-33,9,1.578577249
17.551223,-15,-5,1,10,-18,2,-11,18,1.578577249
17.551256,-18,36,-4,-14,-69,-11,3,-37,1.578577249
17.557548,-12,-7,11,-32,-56,-32,71,-39,1.578577249
17.557566,-78,-65,-7,68,95,73,-78,25,1.578577249
17.573728,36,22,-7,-3,-49,-43,39,0,1.578577249
17.573741,1,15,-5,-2,-41,-1,15,16,1.578577249
17.575146,10,49,-1,-21,-89,-41,1,-27,1.578577249
17.575156,-30,21,3,-10,36,41,7,-10,1.578577249
17.596411,15,-40,1,7,33,2,-20,-1,1.578577249
17.596442,-7,7,3,-9,-11,-11,-18,15,1.578577249
17.599077,-26,34,3,19,-80,-28,2,-32,1.578577249
17.599087,24,94,15,22,79,55,68,27,1.578577249
17.610284,-58,-103,-27,-16,-47,39,-22,-14,1.578577249
17.611716,-39,37,-4,-24,-21,-8,28,-25,1.578577249
17.620292,20,-18,-7,12,-7,20,-23,-5,1.578577249
17.620308,11,24,-3,-23,-65,-36,1,-14,1.578577249
17.636330,12,8,7,9,-7,-66,-8,26,1.578577249
17.636343,11,35,11,13,5,38,-28,8,1.578577249
17.636346,6,-29,-5,-8,12,15,23,35,1.578577249
17.636348,-13,60,-9,-42,-102,-1,6,-4,1.578577249
17.656377,8,14,13,43,49,38,-39,5,1.574521228
17.657979,-5,-4,-3,-20,-67,-43,-31,21,1.574521228
17.657991,44,-54,-12,5,24,31,-13,29,1.574521228
17.657993,-48,5,-11,-17,-39,-72,36,-99,1.574521228
17.670741,10,18,7,-11,19,14,-7,-5,1.574521228
17.670759,8,9,8,7,76,21,13,7,1.574521228
17.677329,-30,18,1,2,-10,-19,2,43,1.574521228
17.677353,7,21,-2,-12,-20,-8,-42,-22,1.574521228
17.693913,25,-23,3,18,13,23,3,4,1.574521228
17.693930,-18,-54,-11,1,71,1,-19,15,1.574521228
17.696194,28,18,11,2,-11,13,26,-6,1.574521228
17.696205,-15,-41,-11,-4,12,-7,-31,3,1.574521228
17.716937,23,50,6,5,47,-20,-21,26,1.574521228
17.716970,21,41,5,-2,-60,16,33,-15,1.574521228
17.719313,-13,55,1,14,2,-63,-30,-16,1.574521228
17.719329,-10,-93,4,4,28,83,24,22,1.574521228
17.730752,18,18,-5,1,-57,-43,-4,-82,1.574521228
17.730767,68,45,5,0,-58,-16,31,48,1.574521228
17.737690,-83,-15,-19,1,41,-14,13,-76,1.574521228
17.737708,5,-54,-2,-5,-39,-6,-11,1,1.574521228
17.753916,-29,-54,-12,-14,-74,17,28,34,1.574521228
17.753937,17,3,2,1,34,-2,-2,-5,1.574521228
17.756171,6,-7,7,14,39,36,-8,7,1.574521228
17.756184,22,26,-4,-1,4,-6,15,-3,1.574521228
17.776248,-9,-4,1,-27,-12,4,-10,-11,1.574521228
17.776293,-55,41,1,-25,-118,-54,15,-5,1.574521228
17.777762,26,-47,7,86,79,107,-73,25,1.574521228
17.777780,21,68,16,4,-37,-10,-32,-26,1.574521228
17.791007,-25,-24,-18,-18,-44,-25,-6,20,1.574521228
17.791019,-13,13,-5,-8,-5,46,-23,-52,1.574521228
17.799521,-2,-1,-3,-22,18,-67,22,-41,1.574521228
17.799529,-5,10,0,-2,25,20,19,0,1.574521228
17.814180,-31,-5,9,16,10,1,-21,2,1.574521228
17.816178,4,30,6,5,27,-6,-1,3,1.574521228
17.816189,24,48,-1,-26,-103,-10,5,-4,1.574521228
17.816192,25,13,5,29,94,-2,8,56,1.574521228
17.838082,-43,-44,-16,-42,-95,-43,-11,11,1.574521228
17.838095,43,-33,-8,21,58,30,20,9,1.574521228
17.838099,-49,-10,0,-18,-22,-28,-22,4,1.574521228
17.838101,1,-38,-6,-10,-24,-21,9,-1,1.574521228
17.849894,34,46,9,4,36,17,11,9,1.574521228
17.849911,-13,-20,-2,-9,-20,-39,-20,-23,1.574521228
17.860894,-10,-32,0,26,-21,53,-15,-12,1.574521228
17.860912,-7,72,15,-2,-94,-78,37,21,1.574521228
17.873828,55,-22,-9,44,58,24,-72,-41,1.574521228
17.873852,8,49,1,-12,4,30,8,-14,1.574521228
17.876225,-63,-21,-6,-24,33,-11,20,6,1.574521228
17.876238,-41,-7,-11,-27,-89,-9,4,-20,1.574521228
17.897149,13,4,5,-5,32,-4,-16,9,1.574521228
17.897181,7,-3,1,15,-44,-1,32,5,1.574521228
17.899538,11,-11,2,-13,9,0,-34,3,1.574521228
17.899549,-29,-77,-11,-6,17,14,20,7,1.574521228
17.910391,4,49,3,-15,-7,-15,20,10,1.574521228
17.910424,13,-22,0,9,14,-4,-12,86,1.574521228
17.921132,2,-2,-1,-5,68,-13,27,36,1.577711969
17.921146,17,25,14,5,-73,22,-21,19,1.577711969
17.933862,30,10,-7,-23,-5,92,37,32,1.577711969
17.933873,-62,-99,-6,-12,75,-97,-43,-62,1.577711969
17.935596,46,-43,-4,16,20,2,-18,19,1.577711969
17.935628,29,-18,-7,-9,-10,-45,-3,-8,1.577711969
17.956416,28,79,8,-8,52,53,13,-32,1.577711969
17.956434,-48,27,4,16,55,47,16,-13,1.577711969
17.958688,11,11,-7,-15,-28,26,-49,-23,1.577711969
17.958700,-34,-41,-7,-1,62,6,19,-25,1.577711969
17.970222,0,14,-1,-4,-63,3,-5,-11,1.577711969
17.970241,0,12,-1,24,73,11,0,-5,1.577711969
17.979650,37,-18,-4,-5,-9,-41,-3,8,1.577711969
17.979661,28,4,-1,8,17,21,2,-4,1.577711969
17.995253,-3,38,5,1,8,-15,9,2,1.577711969
17.995264,13,-35,-4,-13,-66,-7,-8,18,1.577711969
17.995267,11,26,2,-7,4,11,48,-16,1.577711969
17.995270,101,18,2,5,-9,88,-13,90,1.577711969
18.016669,-46,-41,-8,7,14,-49,27,-38,1.577711969
18.016697,-5,-2,7,4,-25,66,-46,-37,1.577711969
18.019797,4,18,4,-10,23,41,47,24,1.577711969
18.019811,-44,35,-3,16,11,3,-11,-42,1.577711969
18.030331,-23,-74,-7,-2,20,-6,-17,-2,1.577711969
18.030454,30,3,2,-12,-91,-27,52,38,1.577711969
18.038875,10,69,26,74,96,18,-40,2,1.577711969
18.038919,-10,-81,-28,-22,-8,-51,0,-25,1.577711969
18.054237,0,16,2,-3,7,51,22,3,1.577711969
18.056120,-12,9,-17,-37,-49,-67,-68,-42,1.577711969
18.056133,-42,17,-5,-26,-45,22,12,23,1.577711969
18.056136,14,-21,2,8,32,26,-6,-40,1.577711969
18.076239,14,22,5,8,-20,-48,-13,16,1.577711969
18.076257,9,-73,-7,-6,-20,36,20,-7,1.577711969
18.077777,7,8,-9,-14,-22,-23,12,-2,1.577711969
18.077793,-28,76,20,10,-9,-56,-10,-20,1.577711969
18.089926,31,-101,-20,-27,70,-48,-38,-9,1.577711969
18.089940,5,36,11,32,15,114,47,-26,1.577711969
18.099838,-59,-6,-4,13,52,-78,16,-35,1.577711969
18.099846,-4,-28,-3,12,47,72,47,66,1.577711969
18.114072,-22,0,6,7,2,-39,-35,10,1.577711969
18.114104,15,12,-1,2,-4,19,18,18,1.577711969
18.116492,10,-35,-6,-14,-2,-55,-39,-19,1.577711969
18.116509,-13,16,2,-13,-14,-9,-8,-12,1.577711969
18.137713,-5,39,5,10,-16,10,14,-7,1.577711969
18.137731,6,-16,-1,0,21,-11,0,30,1.577711969
18.137856,52,61,1,-22,-71,49,21,43,1.577711969
18.137888,24,-23,4,-3,-12,-79,-59,11,1.577711969
18.150243,-27,-26,-9,4,17,104,70,-1,1.577711969
18.150286,58,13,-6,-17,-26,-91,-87,2,1.577711969
18.160672,-4,-46,-9,19,65,65,17,23,1.577711969
18.160682,-16,-15,1,3,-59,1,-37,-35,1.577711969
18.173959,22,42,13,-9,0,-18,7,67,1.569126719
18.173984,-5,8,4,7,-6,-10,13,7,1.569126719
18.176720,-11,15,-3,-10,-43,-9,28,-13,1.569126719
18.176733,-19,35,-1,-12,13,50,-3,-8,1.569126719
18.196656,59,34,7,10,-62,-72,-13,8,1.569126719
18.196688,-107,-76,-15,-9,23,52,-1,-62,1.569126719
18.198915,26,-30,-10,-20,-24,-79,-40,15,1.569126719
18.198926,-11,-18,-5,-5,-30,37,35,-15,1.569126719
18.209866,7,95,-2,5,89,19,-11,-5,1.569126719
18.209883,19,-22,11,15,-47,-5,2,20,1.569126719
18.220123,12,46,-1,-22,-51,-18,-8,-15,1.569126719
18.220136,-3,-101,-15,3,50,-50,68,-25,1.569126719
18.233700,34,98,13,34,-35,-7,35,-79,1.569126719
18.233729,-47,-57,-13,-4,30,-16,36,33,1.569126719
18.235314,10,26,-11,-19,71,72,-15,-3,1.569126719
18.237677,30,26,-1,-31,-51,-29,-4,11,1.569126719
18.256316,-12,-3,3,15,23,23,-23,-18,1.569126719
18.256334,26,73,-3,-1,40,-15,3,-7,1.569126719
18.258079,-24,-104,-4,-3,-13,-11,40,-12,1.569126719
18.258091,-47,28,5,-11,-12,50,-44,-51,1.569126719
18.278675,-11,-128,-16,-16,-61,36,2,13,1.569126719
18.278695,7,51,7,8,41,-76,-11,5,1.569126719
18.280455,-27,35,4,-2,-35,32,14,-10,1.569126719
18.280531,9,26,-9,-18,11,9,-10,-59,1.569126719
18.293613,-9,-20,11,35,-27,3,5,35,1.569126719
18.293626,27,90,-6,-22,44,61,-6,7,1.569126719
18.295480,-38,4,0,29,35,-20,-14,-65,1.569126719
18.295510,66,14,5,-4,1,-34,6,22,1.569126719
18.316202,-46,-88,-13,-30,-28,-19,11,-48,1.569126719
18.316219,10,9,-5,-8,-50,4,-12,27,1.569126719
18.318095,-27,22,4,7,13,-5,-1,1,1.569126719
18.318115,-3,5,1,-13,-78,1,-4,27,1.569126719
18.339551,-58,45,3,6,116,47,4,-13,1.569126719
18.339563,67,-5,12,30,19,-87,-28,5,1.569126719
18.340207,-1,-2,0,-8,-41,44,2,3,1.569126719
18.340244,-75,-100,-7,-1,-10,-38,1,80,1.569126719
18.354886,85,-43,-12,-30,-28,-10,-8,25,1.569126719
18.354898,-56,34,0,5,38,59,22,-66,1.569126719
18.368004,-30,-17,5,-11,57,-40,22,9,1.569126719
18.368038,18,-30,-3,24,-16,-30,-7,-12,1.569126719
18.376359,-8,78,5,-8,40,-18,-9,7,1.569126719
18.376383,-20,-26,-4,-12,-38,15,-20,3,1.569126719
18.378537,-40,-11,-2,58,95,38,29,-46,1.569126719
18.378548,37,-6,12,3,-6,82,57,55,1.569126719
18.399304,-5,-12,-12,-12,-38,-88,-96,-11,1.569126719
18.399328,33,-17,4,13,-36,41,36,28,1.569126719
18.404968,43,25,2,-23,-111,-17,-16,17,1.569126719
18.404986,-82,65,-4,15,31,-26,-23,-23,1.569126719
18.413623,-42,-69,-4,-11,-14,52,17,-12,1.569126719
18.413665,30,47,0,-15,2,-31,-4,20,1.569126719
18.420089,17,-2,3,-12,-17,45,-4,-1,1.569126719
18.420107,25,-27,-1,8,-1,-40,1,-43,1.569126719
18.436492,-8,44,-4,-13,-62,-11,-25,-11,1.564687626
18.436511,-32,-112,-10,-13,-28,11,-4,-15,1.564687626
18.437933,59,-14,-5,15,-110,11,23,13,1.564687626
18.437965,-33,39,-2,16,113,26,-40,-13,1.564687626
18.458748,47,22,9,21,45,19,69,18,1.564687626
18.458767,-14,18,-1,-1,21,-25,-38,-16,1.564687626
18.460287,11,24,-3,-22,-37,0,11,3,1.564687626
18.460347,29,28,-2,3,10,-15,15,14,1.564687626
18.473145,4,43,-1,10,-23,-23,-57,52,1.564687626
18.473170,-59,6,5,-5,16,30,3,4,1.564687626
18.480414,11,-34,-9,-22,-18,-54,18,6,1.564687626
18.480430,-6,45,5,4,12,30,-34,-11,1.564687626
18.496202,-7,26,-7,-19,9,3,43,-2,1.564687626
18.496241,19,-40,5,11,-26,21,14,-59,1.564687626
18.497772,-35,4,-4,-5,30,-29,-42,11,1.564687626
18.497856,-5,-31,5,-9,27,8,13,-7,1.564687626
18.518886,28,21,-2,-18,-69,-56,10,-19,1.564687626
18.518911,20,30,7,22,26,-16,-33,-2,1.564687626
18.521175,3,21,-10,6,39,70,7,-4,1.564687626
18.521188,-18,7,-7,-9,48,-73,-22,17,1.564687626
18.533408,-8,-86,0,2,-32,82,40,-1,1.564687626
18.533483,-8,33,-5,-17,-71,-11,5,24,1.564687626
18.540353,17,-80,-1,2,8,2,-18,12,1.564687626
18.540385,28,32,-1,-14,-36,-40,8,14,1.564687626
18.558324,4,87,7,-3,-7,26,9,-13,1.564687626
18.558337,-9,-84,-12,-2,10,-39,-39,10,1.564687626
18.558342,6,-13,-7,-4,-10,9,13,7,1.564687626
18.558347,-45,-38,-8,8,-3,23,10,-43,1.564687626
18.578636,-6,-16,5,-4,30,-7,-20,-95,1.564687626
18.578654,24,-40,1,14,61,41,34,-3,1.564687626
18.580331,15,4,5,-6,-89,-36,-46,0,1.564687626
18.580356,-64,12,2,11,68,22,23,-5,1.564687626
18.592965,-54,8,-9,8,38,63,-19,-18,1.564687626
18.593018,-18,-37,-15,-22,-48,-50,49,-22,1.564687626
18.599895,7,50,5,9,52,-10,10,34,1.564687626
18.599918,16,5,-1,-15,-33,62,4,9,1.564687626
18.616380,1,-82,-5,-1,-59,-22,-8,4,1.564687626
18.616411,-10,47,1,1,60,47,12,3,1.564687626
18.619561,51,43,-6,-33,-44,-45,15,11,1.564687626
18.619576,31,34,12,18,46,0,-1,20,1.564687626
18.638745,-36,21,-7,-9,0,8,8,22,1.564687626
18.638762,25,-5,-2,2,-15,-19,-8,12,1.564687626
18.640138,-24,-1,11,30,25,33,29,-10,1.564687626
18.640152,47,-41,-6,-18,33,-39,-31,0,1.564687626
18.653970,-9,-19,3,25,5,20,18,-66,1.564687626
18.653984,21,111,8,18,81,-61,-17,90,1.564687626
18.659896,-59,-62,-4,4,-21,5,-22,-18,1.564687626
18.659914,15,-10,-11,-16,2,106,7,-43,1.564687626
18.676160,8,13,0,-18,9,-80,-14,34,1.564687626
18.676178,10,49,2,13,45,10,-37,-17,1.564687626
18.677697,-48,3,-1,8,68,53,18,-11,1.564687626
18.677716,7,-36,-7,0,-70,20,-3,10,1.564687626
18.699440,-5,-67,-3,-9,-36,-28,-35,13,1.555164990
18.699451,51,5,7,8,-7,30,38,-12,1.555164990
18.700127,9,30,4,-1,6,0,-22,11,1.555164990
18.700135,-34,-94,-4,-5,-12,-27,-22,6,1.555164990
18.713553,53,51,8,18,14,18,6,36,1.555164990
18.713564,-25,13,-2,-17,-56,-35,-12,-6,1.555164990
18.719914,63,34,5,6,27,28,28,-12,1.555164990
18.719935,-8,37,2,6,-33,-29,4,-4,1.555164990
18.736244,-1,-8,-8,-16,20,5,3,-4,1.555164990
18.736271,36,41,7,7,-3,28,-8,22,1.555164990
18.738736,20,-2,-8,-25,-17,23,-40,-15,1.555164990
18.738751,-27,-11,-7,10,-54,-77,59,-53,1.555164990
18.759066,-10,12,11,15,101,19,1,44,1.555164990
18.759181,-50,-76,-17,-13,-50,17,16,-30,1.555164990
18.761587,-6,64,5,9,51,14,-17,13,1.555164990
18.761598,44,-22,3,-11,-21,13,13,7,1.555164990
18.772419,-80,10,6,21,7,25,4,-5,1.555164990
18.772446,24,-37,-6,-12,-96,4,-38,2,1.555164990
18.782937,-26,7,2,11,62,-26,13,-4,1.555164990
18.782943,6,13,-4,-8,3,-1,-19,16,1.555164990
18.796877,-63,63,0,-6,-13,-12,35,-21,1.555164990
18.796910,15,-46,10,11,-14,54,5,58,1.555164990
18.798861,-56,-35,-7,-18,-37,-40,-27,-52,1.555164990
18.798869,24,62,0,8,42,46,-5,3,1.555164990
18.818880,35,1,1,-13,-14,-19,68,-5,1.555164990
18.818903,-65,-29,-7,-21,-34,-41,-39,-11,1.555164990
18.821169,-32,-84,-3,0,46,17,-1,-78,1.555164990
18.821182,29,35,-4,-24,-101,14,19,20,1.555164990
18.832760,37,30,-2,9,-48,-39,8,-2,1.555164990
18.832791,-37,39,5,22,107,77,32,-22,1.555164990
18.843120,37,-74,-6,-11,-78,-6,2,22,1.555164990
18.843130,-6,20,-3,-13,-30,-60,-42,-1,1.555164990
18.856356,13,5,-5,-13,34,-1,-9,19,1.555164990
18.856371,18,36,2,-9,-22,59,-15,-17,1.555164990
18.857904,27,-13,-11,9,9,-92,81,-1,1.555164990
18.857913,-77,24,6,1,-28,19,-46,-31,1.555164990
18.879154,29,-83,-11,-13,-61,-5,-15,-30,1.555164990
18.879186,3,101,8,-10,53,2,22,-7,1.555164990
18.881953,72,73,6,-3,9,28,9,77,1.555164990
18.881964,-12,-107,-9,4,16,-31,-40,5,1.555164990
18.892762,20,37,1,29,8,-1,-10,15,1.555164990
18.892794,-18,-42,-7,11,-28,-10,44,-3,1.555164990
18.902385,-34,27,0,-28,-55,-1,-42,-9,1.555164990
18.902399,81,32,-2,7,59,-14,23,22,1.555164990
18.915580,-14,3,1,7,49,44,-53,28,1.555164990
18.915617,-3,-88,-4,-5,-56,-37,63,-34,1.555164990
18.925086,-27,-8,-14,-9,6,-15,-80,-63,1.555164990
18.925098,-12,34,14,20,17,53,48,-7,1.555164990
18.938938,22,26,-2,-18,-58,61,16,1,1.563511381
18.939003,0,-13,-10,-6,44,-73,30,-24,1.563511381
18.941813,22,9,8,4,64,17,-3,18,1.563511381
18.941831,-50,48,2,-11,-53,-8,-15,8,1.563511381
18.952441,-6,16,4,-10,-1,23,-26,4,1.563511381
18.952467,25,-26,-7,12,19,-24,19,-8,1.563511381
18.962588,12,9,-5,-7,-79,7,-77,18,1.563511381
18.962605,29,-36,-5,-9,-56,6,21,4,1.563511381
18.976703,2,-48,-11,14,18,15,22,-22,1.563511381
18.976729,-25,19,2,-3,71,17,-45,11,1.563511381
18.979000,-11,21,-5,-9,-32,-60,-7,-23,1.563511381
18.979011,-2,4,13,7,15,60,17,23,1.563511381
19.014802,-36,-41,-9,-6,-49,-39,-36,-11,1.563511381
19.014825,1,-63,-6,-7,-29,41,-8,33,1.563511381
19.016385,-10,13,3,14,11,-8,20,51,1.563511381
19.016401,17,49,8,16,63,53,2,11,1.563511381
19.021415,74,67,11,4,19,-9,-22,22,1.563511381
19.021477,-49,-18,-16,-20,-20,-24,-15,-5,1.563511381
19.022724,3,-10,-2,-9,4,59,29,71,1.563511381
19.022733,-17,40,1,21,-53,-56,28,-3,1.563511381
19.036440,-22,-67,-6,-15,46,-28,-31,6,1.563511381
19.036525,30,48,-5,-6,44,18,-24,6,1.563511381
19.038861,2,-32,10,24,-86,-30,14,-14,1.563511381
19.038873,-40,-40,-14,-16,21,40,0,-4,1.563511381
19.058671,-4,21,-3,-4,4,-38,21,8,1.563511381
19.058715,42,37,7,15,-63,17,-19,-24,1.563511381
19.060181,-29,42,15,30,104,-34,22,27,1.563511381
19.060192,-12,-34,-6,-4,-11,-21,8,22,1.563511381
19.074369,55,32,2,-6,-42,-2,-29,41,1.563511381
19.074383,7,38,-2,-18,-48,22,17,15,1.563511381
19.082515,-16,45,5,2,34,0,18,-22,1.563511381
19.082522,30,21,6,18,-14,45,-39,-24,1.563511381
19.096795,-35,-10,-11,-16,41,-84,4,-82,1.563511381
19.096827,28,48,11,23,-16,10,-13,8,1.563511381
19.099325,-5,-81,-12,-20,-17,7,0,-23,1.563511381
19.099336,-34,-10,-7,-10,57,37,27,-27,1.563511381
19.118735,-10,-16,4,21,27,-23,-18,-13,1.563511381
19.118760,2,58,14,17,19,-8,21,30,1.563511381
19.120928,16,-68,-7,2,-75,37,24,-20,1.563511381
19.120941,-2,-20,-6,-26,20,-42,-22,8,1.563511381
19.132706,-13,4,-4,20,49,-49,23,1,1.563511381
19.132723,32,-44,-1,-12,-24,9,43,0,1.563511381
19.143930,-49,-29,-9,-10,-22,-15,-33,77,1.563511381
19.143941,6,26,7,-5,-71,-4,51,-24,1.563511381
19.156709,10,-11,1,-4,75,-19,-59,9,1.563511381
19.156727,-25,16,-9,-10,-23,1,15,-8,1.563511381
19.157642,6,-2,-3,-15,12,39,35,-58,1.563511381
19.157661,14,-2,4,1,-84,-50,-17,-4,1.563511381
19.178798,-63,-31,9,13,-29,48,42,-1,1.563511381
19.178830,11,2,2,-5,-5,-15,-26,24,1.563511381
19.180481,35,18,-7,4,-3,11,3,-25,1.563511381
19.180494,12,35,1,-8,3,17,29,16,1.563511381
19.201299,-4,-25,4,-7,-10,32,-38,20,1.583322797
19.201319,-14,-29,2,0,-71,-5,-18,-17,1.583322797
19.202923,-11,78,4,9,78,-37,-80,5,1.583322797
19.202943,8,39,-12,-28,-21,-3,-23,12,1.583322797
19.216234,38,6,-9,-16,1,38,51,-1,1.583322797
19.216252,-41,47,8,7,-71,-56,-16,-3,1.583322797
19.217819,24,-7,-2,-9,19,34,4,19,1.583322797
19.217844,7,38,15,38,67,57,-9,16,1.583322797
19.238778,0,15,-1,7,-13,-10,21,4,1.583322797
19.238796,-16,-23,-12,-42,-12,18,-13,31,1.583322797
19.240599,3,0,0,6,-41,-91,63,-6,1.583322797
19.240613,21,-22,0,14,84,-32,-108,-33,1.583322797
19.262577,-65,-63,-1,-3,-40,51,17,7,1.583322797
19.262590,16,24,4,4,39,-24,10,-41,1.583322797
19.262762,15,11,-4,-4,-9,14,-28,18,1.583322797
19.262807,13,5,-3,-42,-87,-27,33,-32,1.583322797
19.277148,-36,-54,-12,42,78,38,20,-21,1.583322797
19.277162,-10,-17,3,22,63,8,-7,-5,1.583322797
19.277768,-38,-62,-6,-4,4,15,-9,-43,1.583322797
19.277796,10,15,-9,-15,-53,23,14,22,1.583322797
19.298723,66,82,6,-5,-57,-34,-26,4,1.583322797
19.298747,-4,-7,5,2,24,26,20,61,1.583322797
19.300839,-41,-37,-6,3,27,38,12,-21,1.583322797
19.300868,10,15,0,7,22,-26,2,10,1.583322797
19.321391,26,-21,-3,-18,-37,49,33,-3,1.583322797
19.321408,-43,-39,-2,7,29,-18,-41,-53,1.583322797
19.323823,44,65,12,-3,-36,-38,7,11,1.583322797
19.323838,-24,7,-12,4,8,20,-8,5,1.583322797
19.335721,-12,-74,-16,-15,-87,-21,31,-13,1.583322797
19.335760,6,26,5,-7,56,79,19,-1,1.583322797
19.342713,-26,52,2,-15,-23,-45,-11,-18,1.583322797
19.342734,-35,-35,-11,27,45,48,-29,-13,1.583322797
19.358671,2,-36,-4,-12,39,-71,24,-8,1.583322797
19.358730,74,75,6,-13,-39,67,-15,19,1.583322797
19.360237,-16,22,-6,8,-32,55,75,-17,1.583322797
19.360260,-25,-49,-8,-7,-15,-27,-90,14,1.583322797
19.381563,1,72,10,-10,-88,-8,-4,15,1.583322797
19.381595,11,-5,-10,-2,12,-8,17,1,1.583322797
19.383130,14,27,8,-9,14,18,3,-7,1.583322797
19.383139,-17,-23,1,1,11,-26,-22,19,1.583322797
19.395902,23,71,3,21,73,6,-4,12,1.583322797
19.395926,-27,-102,-5,1,-42,-48,-38,-24,1.583322797
19.403969,19,-7,3,-1,2,42,-15,21,1.583322797
19.403984,1,-4,-4,-3,60,-89,19,-28,1.583322797
19.421061,5,38,16,0,23,20,-16,6,1.583322797
19.421075,4,-55,-18,-35,-26,13,25,-1,1.583322797
19.421078,-19,-17,7,30,28,-94,-25,-2,1.583322797
19.421080,93,38,11,28,86,29,17,39,1.583322797
19.441583,-12,-10,-11,-13,-39,7,-10,14,1.583322797
19.441750,-6,-5,-5,17,24,-55,11,-83,1.583322797
19.444310,10,19,6,3,-60,-1,26,6,1.583322797
19.444330,18,66,2,-3,43,37,7,20,1.583322797
19.455557,6,-80,-14,-25,-89,-13,-3,20,1.608866724
19.455575,-3,31,6,10,22,-5,8,85,1.608866724
19.462544,4,-81,1,0,47,17,-27,-5,1.608866724
19.462566,-67,-96,-3,0,-20,-23,11,-4,1.608866724
19.479115,14,77,11,-16,-42,-13,-16,-11,1.608866724
19.479140,-2,-86,-17,25,103,70,25,-11,1.608866724
19.481331,33,76,3,-1,-20,-15,-43,6,1.608866724
19.481342,-62,37,6,-36,-128,11,49,44,1.608866724
19.509230,2,-31,0,49,115,8,-17,-20,1.608866724
19.509262,-31,40,9,13,-12,-24,-44,-29,1.608866724
19.511226,40,59,-5,-12,-33,-5,-10,70,1.608866724
19.511237,-1,-38,-4,6,6,15,7,-58,1.608866724
19.515908,23,11,-8,-16,-14,45,4,4,1.608866724
19.515933,-50,17,4,-4,-39,-44,-20,-31,1.608866724
19.522627,8,-86,-23,-4,-47,20,17,-23,1.608866724
19.522644,23,9,-3,-11,-28,-13,-30,-28,1.608866724
19.538741,4,19,10,2,62,6,4,26,1.608866724
19.538798,33,24,2,1,5,-4,8,-12,1.608866724
19.540821,-8,-23,2,-14,-18,17,8,7,1.608866724
19.540833,-37,20,-14,-26,9,-30,-31,-94,1.608866724
19.561714,17,22,15,58,73,96,85,-4,1.608866724
19.561763,-6,-22,-8,-27,-77,6,-79,-22,1.608866724
19.563343,-84,2,-4,8,10,-37,2,17,1.608866724
19.563358,34,18,-5,5,85,-17,32,16,1.608866724
19.575591,-16,-57,-12,-39,-73,45,-32,-30,1.608866724
19.575613,8,37,1,5,9,-24,23,-5,1.608866724
19.582570,17,23,0,-17,-26,17,26,4,1.608866724
19.582588,2,-4,8,35,9,-15,-24,25,1.608866724
19.599137,8,2,0,-12,-11,-23,-26,-6,1.608866724
19.599169,26,27,-2,-7,-49,-39,13,38,1.608866724
19.601736,3,19,3,-4,15,-4,-42,-24,1.608866724
19.601756,2,-57,-7,5,-21,-18,67,45,1.608866724
19.622115,8,8,2,-7,-65,-60,-47,-19,1.608866724
19.622127,59,69,12,-2,27,68,23,15,1.608866724
19.622740,5,-35,-16,-2,56,-90,-53,11,1.608866724
19.622777,79,64,4,37,57,78,11,-2,1.608866724
19.635756,-95,-25,-1,-5,9,-59,6,-20,1.608866724
19.635791,23,68,-4,-17,-24,-55,4,-5,1.608866724
19.642315,-27,-2,2,-1,-28,18,-71,-27,1.608866724
19.642338,-23,-67,1,-8,-2,45,36,5,1.608866724
19.658734,1,-11,-11,-15,-71,-37,-26,-19,1.608866724
19.658754,-2,20,2,8,19,10,20,64,1.608866724
19.660240,15,-34,-2,3,2,53,41,-3,1.608866724
19.660272,13,-43,1,0,-28,-67,-48,4,1.608866724
19.681667,-28,30,2,12,23,32,56,-3,1.608866724
19.681699,-9,-41,-7,-17,-61,-28,-28,0,1.608866724
19.684048,19,22,-2,14,26,28,20,-17,1.608866724
19.684057,-19,33,22,10,1,25,78,22,1.608866724
19.695404,3,-36,-8,-8,68,63,-35,12,1.608866724
19.695440,-50,15,-4,16,41,-50,42,-11,1.608866724
19.705831,52,-38,-3,-10,-6,14,12,-14,1.584994781
19.705844,10,48,10,8,-25,-22,29,-12,1.584994781
19.718837,9,-15,1,-3,-19,2,-31,6,1.584994781
19.718863,4,-8,-5,-4,20,47,44,-77,1.584994781
19.720375,33,24,-1,-5,-36,-29,-25,1,1.584994781
19.720403,-7,51,1,-22,-13,19,-7,-11,1.584994781
19.741509,-2,58,-13,-23,-50,-7,-6,8,1.584994781
19.741541,2,-112,3,15,80,2,-49,-8,1.584994781
19.744288,-33,36,3,7,-6,-5,29,4,1.584994781
19.744299,45,1,-7,-1,41,-9,-32,7,1.584994781
19.754890,5,45,0,4,37,-21,-3,6,1.584994781
19.754908,-64,20,-5,-32,-50,42,-5,7,1.584994781
19.765001,22,13,17,32,11,25,26,14,1.584994781
19.765010,-79,-75,-15,-15,49,-54,-57,-9,1.584994781
19.778673,8,-49,8,18,4,-1,21,1,1.584994781
19.778718,50,-7,-5,-15,-35,-8,5,-11,1.584994781
19.780273,4,31,6,-4,20,29,-18,37,1.584994781
19.780353,-5,22,-15,-10,-11,12,2,29,1.584994781
19.801362,17,32,2,-15,-44,-27,-8,18,1.584994781
19.801387,-15,1,4,28,12,0,-6,-5,1.584994781
19.803809,12,-15,-4,-5,30,13,7,-13,1.584994781
19.803823,37,113,1,6,-94,-28,12,-3,1.584994781
19.814926,-29,17,-8,-16,72,39,57,4,1.584994781
19.814950,-7,-58,-3,15,-14,-24,-35,6,1.584994781
19.824829,-9,33,-5,-14,-33,8,19,-2,1.584994781
19.824841,-5,51,0,-8,-40,17,-15,-15,1.584994781
19.840367,-5,-25,-4,-2,-49,45,14,-12,1.584994781
19.840379,-22,13,2,-3,-23,-99,-1,-4,1.584994781
19.840382,-34,-44,-6,6,58,-67,-27,-22,1.584994781
19.840384,11,-37,3,-12,9,-28,-47,-37,1.584994781
19.861525,61,111,2,-5,-81,-35,-32,3,1.584994781
19.861556,-19,-106,-15,8,60,71,6,-15,1.584994781
19.863709,30,27,-5,7,31,7,-11,-8,1.584994781
19.863719,-32,-38,-2,-4,-62,-7,19,5,1.584994781
19.875196,38,31,22,21,80,21,-5,53,1.584994781
19.875228,3,76,5,-8,-45,15,-8,2,1.584994781
19.886679,-16,-54,0,-25,-76,-64,14,-2,1.584994781
19.886693,43,15,4,1,54,74,-10,-73,1.584994781
19.898877,-27,-38,23,79,48,-11,-21,78,1.584994781
19.901219,21,-81,-16,8,-11,-22,8,7,1.584994781
19.901232,-29,-1,-8,-2,25,57,16,-6,1.584994781
19.901235,6,-14,-8,1,24,-124,11,7,1.584994781
19.921361,30,52,-8,-32,-34,-5,-50,-2,1.584994781
19.921378,-12,-21,0,5,24,45,18,-2,1.584994781
19.922888,-7,42,12,10,19,2,-9,0,1.584994781
19.922905,-22,-55,-7,-13,-15,38,-16,-1,1.584994781
19.934853,-24,4,-9,-14,-4,-24,31,-36,1.584994781
19.934871,-3,39,2,-6,23,-14,-34,26,1.584994781
19.945532,55,40,7,0,12,26,23,1,1.584994781
19.945542,-16,49,1,3,81,51,33,-12,1.584994781
19.959228,-17,-47,-20,-53,-86,-78,-18,-25,1.584994781
19.959260,5,-14,14,71,98,97,55,-42,1.584994781
19.961543,-8,37,25,18,-37,-15,72,13,1.580479077
19.961554,13,-27,-8,10,-43,-75,-50,6,1.580479077
19.981231,7,-12,-10,11,3,10,17,-10,1.580479077
19.981275,6,26,-1,-40,-94,-32,-7,-3,1.580479077
19.982778,-12,-13,-7,-6,15,19,-10,39,1.580479077
19.982860,-18,7,10,13,-24,25,8,-3,1.580479077
19.995377,-17,10,-1,-7,30,8,18,-38,1.580479077
19.995396,-39,-9,-7,-22,-26,-26,3,-7,1.580479077
20.004985,-22,-37,-10,5,29,10,1,-11,1.580479077
20.004997,42,46,8,-20,-44,-1,3,40,1.580479077
20.018724,-6,-57,-10,-5,-40,1,-8,2,1.580479077
20.018749,51,105,4,3,62,-5,4,-14,1.580479077
