timestamp,emg1,emg2,emg3,emg4,emg5,emg6,emg7,emg8,label
10.012647,-9,-12,-2,-2,1,2,-2,2,0.167604186
10.012765,-23,4,-3,0,-4,-5,-3,-12,0.167604186
10.025508,16,11,1,-5,-10,0,0,3,0.167604186
10.025536,5,4,3,-1,-1,0,1,1,0.167604186
10.028275,-24,-7,-2,-2,-5,-7,0,-4,0.167604186
10.028291,16,16,2,2,3,8,-1,0,0.167604186
10.047693,24,-12,-2,-5,2,-1,-3,8,0.167604186
10.047711,-34,-56,2,0,-11,-4,-3,-4,0.167604186
10.049208,14,21,-1,0,6,4,-2,2,0.167658262
10.049228,-4,7,1,2,-4,-3,0,1,0.167658262
10.062225,12,21,-1,1,-1,2,2,3,0.167658262
10.062238,-12,4,-1,3,11,0,1,-2,0.167658262
10.070252,28,20,1,-10,-6,1,-1,-1,0.167658262
10.070303,2,-19,-3,1,-7,-3,-1,0,0.167658262
10.085049,-1,-15,-2,-2,-5,0,-1,-1,0.167658262
10.085066,13,-2,-8,-3,3,-3,-1,5,0.167658262
10.086651,-13,26,5,3,-2,0,-3,2,0.167658262
10.086662,14,-4,-5,-9,6,-2,-1,1,0.167658262
10.109604,-26,-35,-3,-1,-1,-1,-3,-11,0.167658262
10.109619,18,28,1,0,-1,-3,-2,5,0.167658262
10.109623,-2,15,-2,10,0,-3,-1,-1,0.167658262
10.109625,11,-43,-1,-1,-16,-5,-1,3,0.167658262
10.121414,-24,4,0,-1,25,5,3,-4,0.167658262
10.121446,27,34,-3,0,-3,0,-2,-4,0.167658262
10.130823,-4,-8,4,-2,-1,-1,0,1,0.167658262
10.130836,-22,-4,-1,7,-2,-5,-2,-1,0.167658262
10.145178,32,-1,-1,-5,-6,4,0,4,0.167658262
10.145200,-6,15,3,-1,-2,-2,-1,-8,0.167658262
10.146691,14,-2,-1,1,-2,-4,-1,-1,0.167658262
10.146717,-7,4,1,-4,5,-1,1,-5,0.167658262
10.167865,-10,9,-2,-2,1,-1,-2,0,0.167658262
10.167896,-2,8,0,-1,-1,-1,-2,2,0.167658262
10.170517,-16,-43,-9,-9,-11,-2,-1,-5,0.167658262
10.170526,5,39,3,9,4,0,-1,3,0.167658262
10.181290,-18,-56,-2,3,-5,0,-4,-15,0.167658262
10.181308,-3,-13,3,-3,-7,0,-2,-4,0.167658262
10.191147,-11,9,-2,0,-5,-1,-1,-3,0.167658262
10.191163,18,16,-3,-1,12,4,-1,-1,0.167658262
10.205026,-20,11,0,-3,-6,-3,-1,2,0.167658262
10.205036,12,-15,3,1,0,1,-1,-2,0.167658262
10.206625,7,13,1,2,-2,0,0,0,0.167658262
10.206646,-3,-9,-1,-3,4,4,0,4,0.167658262
10.226817,3,11,0,3,-13,-7,-2,-5,0.167658262
10.226846,-17,16,3,6,15,0,-1,-2,0.167658262
10.237205,1,-31,-1,4,7,3,0,2,0.167658262
10.237217,5,10,-1,-1,-8,-3,-1,-5,0.167658262
10.241503,-16,-34,-7,-5,3,-1,1,8,0.167658262
10.241529,2,0,1,-1,-11,-1,-2,3,0.167658262
10.251346,-7,3,-1,-3,-2,-6,-2,-11,0.167658262
10.251358,3,-3,-1,3,5,3,1,0,0.167658262
10.265050,15,20,-1,0,-11,0,0,13,0.167658262
10.265068,4,1,-4,-4,-9,-4,0,-1,0.167658262
10.267628,10,1,2,-2,-2,2,-1,3,0.167658262
10.267640,-12,-8,0,-7,8,-3,-2,-6,0.167658262
10.287954,24,29,1,4,3,2,-1,1,0.167658262
10.287980,-31,-28,-4,-2,-2,-1,-1,-4,0.167658262
10.290016,15,23,2,-1,-17,-4,-2,-2,0.167658262
10.290029,-25,-32,1,6,0,2,2,-2,0.167658262
10.301222,-3,16,-3,-4,-7,-9,-4,-7,0.167658262
10.301251,3,-11,-5,0,16,5,2,5,0.167658262
10.318051,-2,4,-4,-4,13,3,-1,-12,0.164773982
10.318088,5,4,0,-2,-16,-5,-2,3,0.164773982
10.325536,5,0,2,0,-4,0,-2,0,0.164773982
10.325563,-4,-21,-3,-1,-6,-4,-3,-7,0.164773982
10.328814,-4,24,-2,-2,-1,1,-1,4,0.164773982
10.328833,-17,27,-2,-3,-2,-7,1,-3,0.164773982
10.347719,5,-49,-4,-2,8,4,1,1,0.164773982
10.347742,-1,15,-2,-12,-8,-4,-4,-2,0.164773982
10.349355,18,2,1,4,9,2,0,7,0.164773982
10.349379,-13,-30,-1,-2,-14,-4,-3,-2,0.164773982
10.370366,1,20,4,4,9,-2,-1,3,0.164773982
10.370395,10,18,1,0,-4,1,3,-2,0.164773982
10.371752,-30,-17,-8,-6,-2,-4,-4,-1,0.164773982
10.371767,7,7,0,5,2,3,1,2,0.164773982
10.385014,-1,16,-3,-6,16,1,-4,-7,0.164773982
10.385032,-6,-18,-6,-5,-2,-3,-3,0,0.164773982
10.386933,3,1,-1,6,-13,-3,0,7,0.164773982
10.386957,6,5,1,-4,-3,-2,-2,-5,0.164773982
10.407718,-14,14,-2,4,15,4,0,-9,0.164773982
10.407728,-7,-15,-1,-2,-5,-1,-2,-1,0.164773982
10.409085,5,-10,-3,-7,-18,-3,-1,-1,0.164773982
10.409102,-31,2,-1,-5,2,1,-2,-5,0.164773982
10.430405,-12,-57,-3,-1,-3,-2,-1,-5,0.164773982
10.430431,0,-5,-3,-2,6,-3,0,-1,0.164773982
10.431822,2,12,3,0,-8,-6,0,-1,0.164773982
10.431832,7,0,-5,-4,1,6,-2,-1,0.164773982
10.445383,-11,41,3,4,7,-5,-1,1,0.164773982
10.445407,-7,-25,-1,1,2,6,0,0,0.164773982
10.447427,-33,-7,1,-2,-21,-6,-1,-10,0.164773982
10.447439,4,-14,-5,-2,28,5,-2,15,0.164773982
10.468159,-2,1,-2,-10,-9,-1,1,0,0.164773982
10.471304,13,7,-1,5,-5,-3,-1,-4,0.164773982
10.471315,4,9,6,6,8,1,-3,6,0.164773982
10.471318,0,-8,2,-3,-6,-1,0,-6,0.164773982
10.490450,-2,22,1,-5,2,-5,-2,-2,0.164773982
10.490889,3,6,-2,1,-10,5,0,5,0.164773982
10.493274,-14,-68,-6,0,-5,-6,-3,-13,0.164773982
10.493287,-20,6,-2,3,-4,-3,-5,-2,0.164773982
10.504795,15,-2,1,3,-3,2,4,7,0.164773982
10.504825,-1,35,5,4,-2,-1,0,-3,0.164773982
10.511410,8,19,2,0,10,2,1,4,0.164773982
10.511518,20,0,-1,-6,-4,-3,-2,1,0.164773982
10.528209,-6,-14,1,9,-11,0,-1,-5,0.164773982
10.528246,-13,-2,-1,0,2,-4,-2,-4,0.164773982
10.530460,-4,-1,-3,-6,4,2,0,5,0.164773982
10.530475,23,33,0,-1,2,-4,-1,-4,0.164773982
10.550108,-35,-24,-3,-6,-14,1,-1,-1,0.164773982
10.550119,10,-3,-2,-4,4,-4,-1,0,0.164773982
10.551729,22,-6,-4,-2,7,1,0,2,0.164773982
10.551751,0,12,0,-1,-6,-3,-2,-3,0.164773982
10.564659,0,11,0,0,-6,-8,-2,0,0.180240947
10.564673,-28,-34,-5,-5,-6,0,-2,-8,0.180240947
10.571595,19,19,-1,11,37,12,-1,5,0.180240947
10.571627,-1,0,-1,-3,-8,-3,-1,8,0.180240947
10.596804,7,-16,-3,-3,-7,-1,-2,0,0.180240947
10.596822,-8,-20,2,0,-11,-4,-1,-4,0.180240947
10.596825,0,17,0,-3,-1,-2,0,-2,0.180240947
10.596828,-11,-17,-2,1,4,0,-3,-5,0.180240947
10.609743,23,24,3,11,15,4,-1,-3,0.180240947
10.609773,-26,19,2,-3,-3,-6,2,-3,0.180240947
10.618056,40,13,0,-3,-4,-3,0,8,0.180240947
10.618107,-20,-8,-2,6,14,1,-1,-3,0.180240947
10.624864,25,1,-5,-11,-11,-2,-1,-1,0.180240947
10.624892,7,-12,-2,2,8,1,-2,-1,0.180240947
10.631496,-7,1,0,-3,-7,4,-1,-4,0.180240947
10.631515,2,22,7,1,-7,-3,1,-1,0.180240947
10.647893,-4,-1,-5,-5,-1,-1,-2,2,0.180240947
10.647918,4,-7,2,-1,-8,-4,-4,-4,0.180240947
10.649213,-12,32,-6,-4,7,3,0,-5,0.180240947
10.649236,10,-36,-6,-3,-6,-5,-1,-2,0.180240947
10.670055,1,9,3,3,4,7,1,2,0.180240947
10.670073,6,11,1,0,-4,-3,-3,2,0.180240947
10.672269,-20,-18,-2,-3,-25,-8,-4,2,0.180240947
10.672286,30,8,-2,-3,8,4,-2,-3,0.180240947
10.684931,-43,-42,-3,1,-2,-3,-2,-6,0.180240947
10.684957,30,46,5,11,16,1,0,8,0.180240947
10.691552,3,-48,2,5,13,-4,-1,-6,0.180240947
10.691578,-1,17,-3,-1,-16,-2,-1,1,0.180240947
10.715122,7,-3,-5,0,3,-2,-3,3,0.180240947
10.715144,0,19,-1,-4,5,7,4,-7,0.180240947
10.716810,-32,-11,-3,-2,1,-3,-5,-4,0.180240947
10.716829,2,-3,-3,0,-6,-2,0,-2,0.180240947
10.730269,-4,3,2,-7,5,-3,-1,-4,0.180240947
10.730294,9,22,1,-1,-4,-4,-3,0,0.180240947
10.732348,4,-52,-4,-4,-4,-1,0,4,0.180240947
10.732355,2,-3,-2,-3,0,-1,-2,-11,0.180240947
10.744440,-5,14,-1,-1,-10,-5,-1,0,0.180240947
10.744460,9,9,-1,0,1,-1,0,2,0.180240947
10.751789,-4,14,3,-4,-6,-4,-2,-1,0.180240947
10.751814,-13,21,-3,-5,-10,2,-1,-10,0.180240947
10.767543,8,-14,0,5,10,3,2,-2,0.180240947
10.767553,-3,-23,-2,2,-10,-5,-6,5,0.180240947
10.769040,19,48,3,-1,-11,-3,-1,-4,0.180240947
10.769047,-21,-45,-1,4,30,9,1,4,0.180240947
10.790039,4,23,-1,-3,5,-5,-2,0,0.180240947
10.790056,6,-10,-3,-7,-13,-2,-1,0,0.180240947
10.791631,2,3,-1,-6,-9,1,-2,-5,0.180240947
10.791644,-13,8,3,2,-5,-6,-1,-7,0.180240947
10.804814,8,26,4,-5,-5,-5,-1,12,0.180240947
10.804838,-4,-60,-12,-6,9,2,-2,-6,0.180240947
10.811323,-3,-4,-3,-2,-1,0,1,3,0.180240947
10.811345,1,-2,-1,0,-9,-2,-2,-1,0.180240947
10.827990,-19,3,-1,-2,5,1,-1,-4,0.172647170
10.828013,-3,13,1,2,-4,0,2,3,0.172647170
10.830511,0,5,1,0,-6,-3,-1,-12,0.172647170
10.830522,9,12,-1,-1,7,0,1,9,0.172647170
10.850613,-50,-43,2,3,-4,3,-3,-5,0.172647170
10.850644,46,-6,-8,-6,0,-2,-1,3,0.172647170
10.853566,-17,-3,0,6,2,0,0,-5,0.172647170
10.853582,7,43,-3,-2,-8,-4,-1,-4,0.172647170
10.863831,13,-70,-1,-3,-8,-4,-2,1,0.172647170
10.863849,-36,-23,-5,1,17,2,-2,-7,0.172647170
10.874988,-7,8,3,1,-9,-3,0,2,0.172647170
10.875000,6,-7,-3,-6,13,-2,-1,-2,0.172647170
10.888409,0,28,-3,-2,2,3,-1,-3,0.172647170
10.888441,-5,10,3,-3,-16,-3,-3,-1,0.172647170
10.890923,8,-17,-1,3,12,-1,-1,3,0.172647170
10.890940,-21,-20,-2,0,-7,-2,-3,1,0.172647170
10.910249,12,3,2,-4,-5,-4,-5,-2,0.172647170
10.910272,-3,6,3,4,-8,-3,-1,3,0.172647170
10.911822,-26,-5,0,-1,10,-1,-1,-4,0.172647170
10.911848,24,-7,0,0,-4,3,0,3,0.172647170
10.923687,-4,1,-6,-1,-3,-1,1,1,0.172647170
10.923699,2,24,2,-1,-1,-1,-1,-19,0.172647170
10.933355,4,-30,-4,-7,-7,-2,1,16,0.172647170
10.933365,7,-5,1,1,-4,-4,0,0,0.172647170
10.947677,1,5,-2,4,6,6,0,0,0.172647170
10.947695,-3,-3,3,3,-5,-3,-1,1,0.172647170
10.950600,10,20,-1,0,1,-1,-1,-6,0.172647170
10.950608,-27,-49,-2,-6,-5,-3,-3,-10,0.172647170
10.970084,12,22,-3,-2,-6,0,0,-4,0.172647170
10.970182,-22,-2,5,-1,-11,-7,-1,1,0.172647170
10.971563,2,13,-2,-2,19,12,0,-2,0.172647170
10.971580,3,15,0,5,-22,-3,-1,3,0.172647170
10.984672,1,-8,-1,-2,2,-6,-5,-5,0.172647170
10.984684,4,-6,-4,-2,7,3,1,4,0.172647170
10.994216,1,9,-2,-3,-10,-5,-2,-2,0.172647170
10.994234,8,6,0,1,6,-2,1,2,0.172647170
11.007836,12,12,1,2,-1,-2,-1,-2,0.172647170
11.007868,-25,-2,2,3,4,0,-1,-1,0.172647170
11.010481,28,-13,-6,-7,-19,-8,-2,1,0.172647170
11.010535,10,9,-1,-8,20,1,-1,-3,0.172647170
11.031448,-23,6,-4,11,-2,-1,1,2,0.172647170
11.031463,27,12,-2,-1,15,1,-1,-1,0.172647170
11.031741,-22,-7,-4,3,-6,-5,-5,-6,0.172647170
11.031750,2,-35,1,-3,-9,-2,-3,7,0.172647170
11.043917,11,5,5,2,1,0,-1,-2,0.172647170
11.043945,2,6,-5,-6,-4,3,0,2,0.172647170
11.052814,17,15,-2,3,11,1,0,-5,0.172647170
11.052821,-16,-10,-4,-4,-8,-2,-1,1,0.172647170
11.068111,2,25,-1,-4,1,-3,-1,-3,0.172647170
11.068132,-1,-39,-2,-2,-5,-4,-1,0,0.172647170
11.069750,-4,12,3,-2,3,-2,-1,-4,0.172647170
11.069765,-44,-38,-5,0,-11,5,-1,-4,0.172647170
11.090219,9,18,2,-4,6,0,-1,-2,0.175400763
11.090253,6,-5,-3,-2,-3,-3,-2,-5,0.175400763
11.093051,-5,3,-5,-5,3,-1,0,-2,0.175400763
11.093062,-13,32,4,8,12,0,-2,-2,0.175400763
11.103843,-16,-88,-13,-9,-7,-2,-3,-6,0.175400763
11.103862,20,19,5,6,4,1,0,2,0.175400763
11.114028,-2,-4,4,-4,0,-2,1,6,0.175400763
11.114040,0,30,2,-1,-8,-4,-1,-2,0.175400763
11.128014,-11,9,0,-6,1,1,0,3,0.175400763
11.128029,-8,4,-1,0,1,-1,0,-5,0.175400763
11.129374,4,-14,-3,-1,-18,-1,-2,1,0.175400763
11.129401,22,7,-1,-1,13,-1,2,2,0.175400763
11.150223,4,11,-1,-3,-5,2,-3,-3,0.175400763
11.150242,-15,7,1,-5,1,-5,-2,0,0.175400763
11.151657,-22,-41,-7,-1,-7,2,-1,-4,0.175400763
11.151697,16,-3,-2,-1,-6,-3,-2,-3,0.175400763
11.163864,-4,6,1,0,-2,-1,-1,-6,0.175400763
11.163882,-1,12,3,3,-4,-2,0,3,0.175400763
11.175996,14,37,6,-1,-5,0,-3,-4,0.175400763
11.176005,-32,-55,-10,3,18,-1,0,2,0.175400763
11.187874,14,11,2,-1,-15,-6,-1,-5,0.175400763
11.187906,-7,-5,-3,-10,-3,0,-1,4,0.175400763
11.190638,-8,-15,-1,4,-4,0,-1,0,0.175400763
11.190647,19,32,4,2,-2,-1,0,-1,0.175400763
11.210640,-5,-21,-3,-1,3,1,1,1,0.175400763
11.210662,5,0,-4,3,-1,-2,-3,-5,0.175400763
11.216664,-25,-8,5,-2,7,-2,-2,-3,0.175400763
11.216695,24,36,2,1,-3,7,-2,2,0.175400763
11.223938,-2,0,-2,0,-1,-3,0,-1,0.175400763
11.223964,-3,-8,-6,-7,-5,0,0,-4,0.175400763
11.234462,-2,5,0,-2,4,2,-1,1,0.175400763
11.234478,-14,-12,0,-2,-1,-6,-2,-1,0.175400763
11.247621,11,1,-3,-1,-9,-7,-2,0,0.175400763
11.247639,-7,-9,-2,-5,5,7,-2,3,0.175400763
11.250357,23,35,1,1,13,-1,0,1,0.175400763
11.250369,-33,-50,-4,-2,-10,-4,-2,-9,0.175400763
11.271200,15,-12,-2,-2,1,0,-1,13,0.175400763
11.271213,-6,31,-1,2,4,-3,-3,-10,0.175400763
11.271663,16,-26,-3,-7,-13,-4,0,9,0.175400763
11.271716,4,9,2,2,25,6,1,-2,0.175400763
11.292956,-16,16,4,2,-5,-3,-1,-2,0.175400763
11.292984,17,4,-3,2,-4,-1,1,1,0.175400763
11.294429,-5,-6,-1,2,5,-1,-1,-3,0.175400763
11.294445,-1,-4,-4,-5,-13,-3,1,-2,0.175400763
11.307675,15,13,4,0,1,-1,-1,6,0.175400763
11.307693,-6,-11,1,-1,-2,-1,-2,4,0.175400763
11.309353,-1,-7,-8,-8,-10,-5,-5,-4,0.175400763
11.309368,11,20,0,4,-11,-3,-2,-4,0.175400763
11.330230,-2,-20,-4,1,15,3,1,-1,0.163728428
11.330249,29,5,1,-1,-4,-2,0,10,0.163728428
11.333002,-53,-34,-5,1,5,1,-3,-11,0.163728428
11.333025,19,15,1,-4,-7,-5,-2,2,0.163728428
11.352542,-19,9,-2,-1,-6,-4,-3,-10,0.163728428
11.352557,-1,-15,-6,-5,6,4,0,0,0.163728428
11.354130,5,9,5,-2,-5,-6,1,1,0.163728428
11.354146,-11,13,-1,0,-2,0,-2,-3,0.163728428
11.367521,9,3,-1,0,0,8,1,1,0.163728428
11.367534,-24,-24,-4,1,3,-4,-1,1,0.163728428
11.369025,21,31,-5,-7,2,-1,0,1,0.163728428
11.369040,-13,31,2,1,-12,-5,-1,0,0.163728428
11.405394,-6,-74,-3,-3,7,-3,-1,-1,0.163728428
11.405413,7,4,0,0,-12,-2,-1,-6,0.163728428
11.407577,-18,28,4,5,5,3,-3,-3,0.163728428
11.407591,3,-33,-7,-8,-1,-3,-3,1,0.163728428
11.412699,1,23,-1,-2,-13,-4,-2,-1,0.163728428
11.412726,8,14,0,-3,12,5,0,5,0.163728428
11.414775,-2,-26,-7,-2,-7,-2,-1,-9,0.163728428
11.414786,6,18,1,1,3,-1,0,0,0.163728428
11.427754,-33,7,4,-6,1,-1,-1,-5,0.163728428
11.427797,11,2,1,2,5,-3,0,2,0.163728428
11.434267,-12,-11,-6,-4,-12,-2,-2,-8,0.163728428
11.434294,10,-12,-1,4,0,-1,2,3,0.163728428
11.450352,6,22,-3,-1,14,-7,-4,-3,0.163728428
11.450378,0,-3,2,-1,1,7,2,-5,0.163728428
11.451880,-2,7,3,1,9,1,-1,3,0.163728428
11.451908,-10,-8,1,-1,-2,-2,-1,-2,0.163728428
11.473080,5,0,-2,-7,-16,-8,-1,0,0.163728428
11.473112,-15,13,4,1,7,-2,-3,-6,0.163728428
11.476284,20,27,0,3,-6,-3,0,4,0.163728428
11.476294,3,-77,-8,-6,12,2,-3,-4,0.163728428
11.487651,-3,13,-3,1,0,4,0,-2,0.163728428
11.487813,-10,-6,-1,-4,-6,-3,-2,-11,0.163728428
11.493821,9,2,4,4,4,2,1,11,0.163728428
11.493837,7,6,-1,-2,-2,-5,-1,2,0.163728428
11.510201,-12,-2,0,2,-3,0,-1,-1,0.163728428
11.510222,-2,-1,0,-2,-1,-2,-3,-2,0.163728428
11.511776,6,-2,2,1,2,-3,3,2,0.163728428
11.511863,-32,10,4,1,-5,0,0,-3,0.163728428
11.532684,13,-6,-3,1,2,1,-5,5,0.163728428
11.532703,-4,-11,-2,-2,-14,-7,-1,2,0.163728428
11.534229,-12,-9,-4,-5,-3,2,2,-3,0.163728428
11.534247,11,5,-2,-2,8,2,-1,2,0.163728428
11.547146,9,12,2,-3,-3,-3,1,0,0.163728428
11.547167,-9,5,7,9,-5,0,0,0,0.163728428
11.554101,22,40,-2,-3,-10,-2,-1,0,0.163728428
11.554115,-11,-85,-5,-2,18,4,-1,2,0.163728428
11.570612,4,14,-4,-3,-9,2,-1,-10,0.163728428
11.570620,6,4,-3,-7,-17,-7,-1,4,0.163728428
11.571604,-6,-11,1,1,19,5,-1,-1,0.163728428
11.571619,7,34,-1,-2,-8,0,-1,-3,0.163728428
11.592944,-8,-10,-1,-5,-5,-3,-1,-3,0.162588234
11.592968,-12,-16,-1,2,8,-2,-1,0,0.162588234
11.594800,-8,-18,-4,-5,-3,-4,-4,-7,0.162588234
11.594814,18,9,-4,2,-15,-2,-3,0,0.162588234
11.606893,-23,-2,3,2,6,3,1,2,0.162588234
11.606911,7,10,0,-1,-2,1,-1,-3,0.162588234
11.613926,-24,-7,-1,1,0,-2,-2,-7,0.162588234
11.613951,3,-45,-2,-2,-2,-3,0,-2,0.162588234
11.630101,6,-3,-6,-1,-5,1,-1,1,0.162588234
11.630125,-5,11,-1,-2,5,0,1,-4,0.162588234
11.632580,22,10,2,5,5,-5,-1,8,0.162588234
11.632590,10,40,1,-4,-1,0,0,3,0.162588234
11.652691,-21,-45,-2,3,-6,-2,1,-1,0.162588234
11.652744,-5,-7,-5,-9,9,4,-4,-8,0.162588234
11.654013,8,-14,4,1,-6,-4,0,-2,0.162588234
11.654020,-6,23,1,1,-15,1,-3,-1,0.162588234
11.675354,15,6,-5,0,31,6,-2,-2,0.162588234
11.675379,-1,6,-3,-3,-11,-1,0,0,0.162588234
11.677855,-4,-36,-1,-1,-3,-4,-2,-2,0.162588234
11.677869,8,25,2,-2,-2,0,-1,-2,0.162588234
11.690521,-7,-3,1,6,-7,-6,-2,-4,0.162588234
11.690553,-2,-16,-4,-1,1,-1,-1,-3,0.162588234
11.693814,15,34,3,2,4,3,2,2,0.162588234
11.693827,-3,1,-1,5,-3,-7,-1,-3,0.162588234
11.712748,-3,-6,-6,-1,0,0,-1,-6,0.162588234
11.712763,11,25,2,1,-3,-4,-1,2,0.162588234
11.714129,-25,-55,-6,-3,-18,-5,0,1,0.162588234
11.714146,13,15,5,-1,24,5,-2,-9,0.162588234
11.726824,-10,26,4,1,-6,-3,-2,-5,0.162588234
11.726873,10,-37,-5,-1,-9,-1,-2,5,0.162588234
11.734294,-1,34,-1,-1,5,5,-1,-4,0.162588234
11.734322,-16,-16,-4,-2,-7,-3,1,1,0.162588234
11.749521,1,21,0,-2,-1,0,0,0,0.162588234
11.749549,1,2,-3,-5,-1,-4,-1,-3,0.162588234
11.750531,7,14,-2,-5,1,1,-1,-1,0.162588234
11.750613,-21,1,-1,-7,4,-9,-2,2,0.162588234
11.772546,39,3,2,7,-19,1,-1,-2,0.162588234
11.772579,-31,3,-1,-3,10,-2,-3,-1,0.162588234
11.776122,14,-22,-6,0,24,7,1,2,0.162588234
11.776130,30,70,-2,-4,8,-2,-2,2,0.162588234
11.786178,-41,-76,-6,-3,-1,-4,0,4,0.162588234
11.786195,-2,-1,-1,3,-18,-3,-4,-5,0.162588234
11.794002,-2,9,-2,-3,-1,1,-1,-2,0.162588234
11.794030,-12,18,1,-2,-3,-1,1,-4,0.162588234
11.809525,33,12,5,0,5,2,2,9,0.162588234
11.809551,-3,-8,-3,2,3,-1,-2,-1,0.162588234
11.811090,-8,-3,-3,-3,-3,-4,-2,0,0.162588234
11.811106,-3,-21,-1,1,-9,-3,-2,-5,0.162588234
11.831936,0,8,1,-2,0,-1,-1,0,0.162588234
11.831960,-5,-14,-3,-7,5,1,0,-1,0.162588234
11.833787,5,12,6,7,5,-7,-3,0,0.162588234
11.833797,-7,-11,-2,1,-5,8,-1,3,0.162588234
11.846283,-23,-11,3,5,-4,-4,-1,-6,0.165111983
11.846301,1,2,-6,-9,6,0,0,2,0.165111983
11.853697,-1,-15,-6,-6,-15,-5,-5,-11,0.165111983
11.853712,-9,-21,0,0,4,-2,0,0,0.165111983
11.869340,-15,-36,-5,-8,-1,-1,-2,-2,0.165111983
11.869358,19,13,2,3,-16,-2,-1,4,0.165111983
11.871604,-12,2,3,3,8,2,-1,1,0.165111983
11.871620,-2,26,1,-1,1,-5,-3,-2,0.165111983
11.891911,11,9,2,0,12,5,1,6,0.165111983
11.891943,11,-9,-1,1,-12,-3,-3,-9,0.165111983
11.894830,-22,-12,-8,-2,-4,-6,0,4,0.165111983
11.894854,1,-16,0,-2,-2,-5,-1,-1,0.165111983
11.906329,10,18,-2,0,2,0,-2,-9,0.165111983
11.906346,4,5,0,0,10,2,2,5,0.165111983
11.913813,-3,36,6,-5,-12,1,1,1,0.165111983
11.913838,6,-62,-6,3,-9,-2,-2,-2,0.165111983
11.929498,-11,11,-2,-1,-2,-3,-2,-4,0.165111983
11.929523,-21,7,2,2,-4,1,0,0,0.165111983
11.930170,11,2,-3,-3,-4,-2,-5,-2,0.165111983
11.930183,-5,-18,2,-2,-4,0,2,1,0.165111983
11.952388,24,13,-3,-2,-18,-4,0,-4,0.165111983
11.952420,4,-16,-1,1,23,5,-1,10,0.165111983
11.955435,-13,-10,2,3,-14,-4,1,-5,0.165111983
11.955443,-2,2,-4,-4,7,4,-3,2,0.165111983
11.966744,17,15,2,-2,-1,0,1,5,0.165111983
11.966778,-14,1,-2,0,-12,-7,-2,-9,0.165111983
11.982068,7,-6,1,0,4,0,1,5,0.165111983
11.982100,-5,20,1,1,0,-3,-2,-9,0.165111983
11.990065,21,8,-1,-4,-7,-3,0,8,0.165111983
11.990320,3,6,-3,-4,2,-1,0,-4,0.165111983
11.990760,-2,-3,3,0,3,4,-2,-4,0.165111983
11.990782,11,19,2,3,-6,-2,0,1,0.165111983
12.012132,-15,2,0,-7,12,0,-3,2,0.165111983
12.012151,-18,0,3,3,-11,-1,-2,-4,0.165111983
12.012659,22,-13,-8,-3,13,2,3,-1,0.165111983
12.012686,8,17,1,0,-12,1,-1,3,0.165111983
12.034559,-4,13,0,-3,-12,-5,1,1,0.165111983
12.034576,-23,-91,-8,-9,-11,-2,-5,-4,0.165111983
12.037162,2,23,3,0,6,0,0,1,0.165111983
12.037181,-4,-6,-3,-4,-4,-5,-5,-10,0.165111983
12.049718,-3,-7,-2,-3,5,3,-3,-3,0.165111983
12.049742,-5,32,3,2,-14,-10,-1,-3,0.165111983
12.052477,-12,-21,-2,3,-1,1,-1,-3,0.165111983
12.052490,-2,-16,-6,-4,1,3,0,6,0.165111983
12.072015,-4,6,1,1,-6,-4,-1,-9,0.165111983
12.072033,21,5,-3,-4,7,0,2,4,0.165111983
12.072552,-1,2,-3,-2,-1,-2,-1,1,0.165111983
12.072585,-3,-8,0,-9,-2,-1,0,0,0.165111983
12.086492,-6,-6,6,6,3,1,-2,-1,0.165111983
12.086510,-6,20,3,5,6,1,0,0,0.165111983
12.094194,-3,-18,-4,-2,5,-4,-2,-4,0.165111983
12.094215,13,21,-3,1,-8,2,-1,4,0.165111983
12.109576,-28,-17,-5,-4,4,-1,1,2,0.173994673
12.109588,-10,-24,-2,3,20,-1,-3,-8,0.173994673
12.111711,14,20,4,0,-34,-8,2,2,0.173994673
12.111737,3,6,-6,-6,-5,5,-1,0,0.173994673
12.133600,-10,-26,-1,-4,11,5,1,-1,0.173994673
12.133608,-4,19,-1,2,1,-1,-2,-5,0.173994673
12.133611,7,-17,-6,-4,-2,-2,-1,0,0.173994673
12.133613,-15,-1,1,3,1,-4,2,-4,0.173994673
12.155088,8,34,5,1,-10,-4,-3,5,0.173994673
12.155107,19,-46,-6,-3,0,3,-1,-1,0.173994673
12.157071,-13,-2,3,1,1,1,-3,-1,0.173994673
12.157077,5,8,-1,5,1,-4,0,1,0.173994673
12.179452,-15,-5,-4,-7,6,-1,-2,0,0.173994673
12.179469,-11,14,6,0,-12,-2,-2,-4,0.173994673
12.179472,-2,-6,2,6,11,0,-2,-7,0.173994673
12.179475,-3,0,2,4,2,-2,-2,7,0.173994673
12.192139,20,-1,1,0,-9,-5,-3,-2,0.173994673
12.192171,-12,-10,-4,1,12,0,1,-1,0.173994673
12.199472,4,32,1,1,-13,2,1,-4,0.173994673
12.199496,-38,-7,-5,-6,2,1,-7,-8,0.173994673
12.214609,18,-74,-12,-2,6,-8,-2,-4,0.173994673
12.214673,19,39,3,-1,-13,1,1,3,0.173994673
12.215815,-11,-12,-2,3,4,-1,2,2,0.173994673
12.215827,1,15,2,1,0,-1,-1,4,0.173994673
12.229518,-17,3,-1,0,-4,1,0,-3,0.173994673
12.229543,18,15,-1,-3,2,-1,2,5,0.173994673
12.230939,-12,-17,-4,1,-3,-1,-1,-5,0.173994673
12.230945,6,1,2,1,3,-1,2,-3,0.173994673
12.261113,-37,-4,-5,-2,-14,-4,-6,-3,0.173994673
12.261155,47,-2,-6,-5,6,0,-3,-3,0.173994673
12.261163,-25,-30,-1,-3,3,0,-2,0,0.173994673
12.261171,3,-22,-1,0,3,-5,1,1,0.173994673
12.274508,19,38,4,1,-8,2,1,1,0.173994673
12.274525,-18,13,-3,-2,-1,-4,-2,1,0.173994673
12.275166,18,9,-1,-3,-2,0,-1,1,0.173994673
12.275251,14,0,4,0,3,1,-1,-3,0.173994673
12.289692,-14,6,-4,1,9,5,0,-2,0.173994673
12.291916,-14,-9,-4,-1,-16,-4,1,3,0.173994673
12.291923,27,12,0,-6,2,3,-2,-1,0.173994673
12.291925,-21,-30,-4,-4,-10,-4,-1,-6,0.173994673
12.311971,22,37,-4,1,-12,-3,0,1,0.173994673
12.312000,-6,-32,1,2,17,5,-1,-2,0.173994673
12.313741,-10,9,0,2,-3,-3,1,2,0.173994673
12.313752,-9,15,0,-1,-8,-1,0,-2,0.173994673
12.334577,-8,-5,0,-3,6,-1,-3,-4,0.173994673
12.334584,8,22,-4,-4,20,-1,-5,1,0.173994673
12.335079,-15,-22,-2,-2,-19,-3,1,-3,0.173994673
12.335086,14,2,-4,-3,-2,0,-2,3,0.173994673
12.349436,-30,-10,-2,3,10,-4,0,-7,0.173994673
12.349460,-6,-6,2,-4,-13,-2,-1,2,0.173994673
12.350541,4,7,1,3,13,2,-2,-1,0.173994673
12.350550,1,14,1,3,-2,-1,0,-1,0.173994673
12.372553,1,9,0,-6,-21,-2,-2,-1,0.170479452
12.372585,15,-41,-5,0,4,2,0,1,0.170479452
12.375280,-11,-5,-1,-3,-5,-3,-2,-1,0.170479452
12.375286,-18,-11,-5,-3,3,-4,1,5,0.170479452
12.396707,22,21,4,2,-4,1,0,-7,0.170479452
12.396726,-1,16,8,1,-5,-5,-1,-1,0.170479452
12.396731,-16,-19,-2,-4,5,2,-1,-9,0.170479452
12.396734,15,-8,-2,-1,-4,-3,-2,6,0.170479452
12.409726,7,-18,-1,1,1,-1,1,11,0.170479452
12.409760,-1,24,1,1,-1,-1,-1,-8,0.170479452
12.412462,5,-2,-3,-5,-9,-1,-2,-1,0.170479452
12.412474,8,10,1,-1,-5,-1,-3,-3,0.170479452
12.431979,5,-9,-5,-3,17,5,1,0,0.170479452
12.432010,2,3,2,0,-15,-3,0,-1,0.170479452
12.432951,-9,22,1,5,4,-5,-2,-2,0.170479452
12.432973,0,-7,-4,-6,8,3,-1,-4,0.170479452
12.454829,-3,-10,2,4,-2,-1,-1,-1,0.170479452
12.454861,-16,-2,-2,-2,-3,-1,1,0,0.170479452
12.457894,11,9,3,-5,2,-5,-2,1,0.170479452
12.457904,-6,12,5,3,9,1,-3,-6,0.170479452
12.469484,2,-2,2,1,-9,-9,0,1,0.170479452
12.469501,17,17,-7,-6,5,4,-1,2,0.170479452
12.470703,-4,12,-3,0,20,2,-3,-5,0.170479452
12.470717,4,-1,-2,2,2,3,-1,2,0.170479452
12.491924,-26,-61,-7,-5,0,4,-1,-4,0.170479452
12.492019,-3,-4,0,0,-5,-2,1,4,0.170479452
12.492641,-5,4,0,-3,-6,0,1,1,0.170479452
12.492742,2,17,0,0,6,-2,-2,-1,0.170479452
12.514422,10,-20,0,0,3,-1,-1,1,0.170479452
12.514446,-19,-2,-2,-3,-9,-3,-2,-8,0.170479452
12.516816,13,-17,-4,4,-8,3,1,3,0.170479452
12.516853,-22,9,0,-6,-1,-7,1,-7,0.170479452
12.529285,6,28,4,1,23,5,1,5,0.170479452
12.529306,-15,-18,-1,6,1,-2,-2,-6,0.170479452
12.537730,13,12,-2,-7,-7,-4,-4,-4,0.170479452
12.537740,-16,-46,-7,-4,-15,-1,-1,3,0.170479452
12.553536,0,10,-1,-4,-2,0,-1,-3,0.170479452
12.553545,6,40,2,2,2,-1,0,2,0.170479452
12.559449,2,-43,-3,-1,1,1,1,0,0.170479452
12.559473,-16,-16,-2,0,-4,0,-2,-4,0.170479452
12.575005,3,7,-1,-1,-1,-2,-2,0,0.170479452
12.575034,2,19,4,-3,-6,-7,-3,0,0.170479452
12.578377,16,27,1,2,-3,3,-1,-11,0.170479452
12.578396,-8,-22,-5,-4,-9,-3,-1,6,0.170479452
12.589602,4,7,0,1,8,4,-4,-3,0.170479452
12.589626,-10,-14,-1,2,-4,-7,1,0,0.170479452
12.592168,22,19,-3,-7,-1,-2,-2,2,0.170479452
12.592187,-21,-16,-1,0,6,2,0,0,0.170479452
12.612149,-10,20,6,7,-6,-1,1,-3,0.173544005
12.612175,9,-23,-4,0,-2,5,-2,2,0.173544005
12.614547,-8,-17,-3,-7,-8,-5,-3,-1,0.173544005
12.614559,19,27,1,6,6,0,-2,-3,0.173544005
12.634519,2,3,-5,-8,-9,-3,-3,-2,0.173544005
12.634537,12,39,11,4,7,2,2,2,0.173544005
12.635277,-25,-7,-3,-1,-5,-2,-1,1,0.173544005
12.635355,41,-5,-2,-5,-13,-5,-1,-1,0.173544005
12.649818,-54,-29,-3,-2,9,1,0,-1,0.173544005
12.649844,10,4,-2,-4,-12,-4,-2,-3,0.173544005
12.650177,-10,4,-1,8,29,4,-2,0,0.173544005
12.650207,15,38,5,-5,-19,-2,0,-5,0.173544005
12.672769,10,-56,-3,7,-2,-5,0,-1,0.173544005
12.672801,-6,-5,-3,-5,-3,1,-4,0,0.173544005
12.675805,-10,-10,3,2,-5,-2,-2,1,0.173544005
12.675821,0,0,-4,-2,2,-2,1,-2,0.173544005
12.695021,26,23,0,-5,-3,-1,-2,5,0.173544005
12.695035,-29,3,2,-2,0,-1,1,-4,0.173544005
12.695188,3,-34,-5,-1,-4,1,1,3,0.173544005
12.695196,18,1,3,-4,-1,1,-1,2,0.173544005
12.709472,-5,-1,-4,-3,3,-1,-2,-9,0.173544005
12.709480,-5,-14,-5,-1,8,2,-2,-4,0.173544005
12.716909,-4,16,-2,-4,-14,-5,2,1,0.173544005
12.716926,2,-12,-2,-3,-2,1,-1,-3,0.173544005
12.731908,0,9,3,3,-3,1,-4,1,0.173544005
12.731932,4,-6,-4,-4,-9,-4,2,0,0.173544005
12.734133,-2,10,3,4,0,-1,-2,-1,0.173544005
12.734141,-14,-7,-1,-3,1,0,-1,1,0.173544005
12.754987,-33,7,1,-3,8,1,0,2,0.173544005
12.754999,2,-76,-10,-1,-12,-2,-5,-5,0.173544005
12.755223,-9,-8,-1,-3,24,4,-1,-1,0.173544005
12.755259,9,8,-3,-1,-10,-5,-4,-4,0.173544005
12.770941,8,30,-1,-3,-11,-5,-1,4,0.173544005
12.770953,-5,17,4,0,4,1,0,0,0.173544005
12.770955,0,-6,-2,-1,-12,-4,-2,3,0.173544005
12.770958,-7,-7,-2,0,8,-4,-1,-2,0.173544005
12.792322,9,12,-3,0,4,7,0,-5,0.173544005
12.792347,-9,-20,0,1,-3,0,2,2,0.173544005
12.795250,21,5,-1,-5,-9,-5,0,4,0.173544005
12.795265,-2,13,4,3,5,0,-1,-7,0.173544005
12.814362,17,-7,-2,-4,-19,-8,-3,-1,0.173544005
12.814388,-19,-30,0,5,19,6,0,-1,0.173544005
12.817095,-12,3,1,-1,-7,-2,-1,-3,0.173544005
12.817107,-11,-5,1,6,15,0,0,2,0.173544005
12.828876,13,16,-2,-7,-10,-1,-3,-5,0.173544005
12.828900,11,17,3,4,-4,0,-1,-5,0.173544005
12.837318,-9,-9,1,-1,4,-2,0,3,0.173544005
12.837343,8,21,-1,-2,-21,-6,-1,2,0.173544005
12.851910,11,9,-1,0,18,3,0,-4,0.173544005
12.851934,-1,-35,-7,-7,-3,3,-2,1,0.173544005
12.852534,0,-7,-5,1,-4,-2,1,-3,0.173544005
12.852549,-13,-5,1,-2,1,1,-1,1,0.173544005
12.874666,13,1,-2,2,-5,-1,3,3,0.171543030
12.874691,-14,29,3,0,-3,-2,0,1,0.171543030
12.877234,24,21,2,2,12,0,-4,-3,0.171543030
12.877250,-15,-38,-7,-2,-14,2,-4,-4,0.171543030
12.889064,-2,-1,1,-3,1,-1,2,-1,0.171543030
12.889088,23,31,-2,0,6,-2,1,4,0.171543030
12.896961,-26,-36,2,2,1,-3,1,-2,0.171543030
12.896979,-1,2,1,4,4,-1,0,-4,0.171543030
12.911933,-5,9,3,-4,-15,-2,-4,-2,0.171543030
12.911952,-14,1,-6,-2,-3,-3,-1,2,0.171543030
12.912729,-12,-40,-6,3,-4,1,0,-4,0.171543030
12.912739,1,5,2,8,-3,-2,0,5,0.171543030
12.934654,-9,-7,0,4,-5,1,-1,-4,0.171543030
12.934684,18,35,-1,-5,4,0,-2,-1,0.171543030
12.936417,-3,22,1,-5,-6,-3,-2,5,0.171543030
12.936426,0,-20,0,-3,1,2,-1,-1,0.171543030
12.948840,2,5,-3,1,15,-2,-1,0,0.171543030
12.948873,-4,7,5,2,3,-1,-2,-1,0.171543030
12.957173,-1,-4,-6,-6,-16,-8,0,-8,0.171543030
12.957190,9,-2,-4,-2,18,9,2,8,0.171543030
12.972021,-3,-7,-1,-3,-4,-4,-1,-1,0.171543030
12.975285,-6,-39,-1,3,-9,-3,-1,-5,0.171543030
12.975292,18,16,2,-1,0,3,-1,-2,0.171543030
12.975295,-10,15,-1,-7,-1,-2,-1,-3,0.171543030
12.994537,-10,-4,-3,1,0,-3,-2,0,0.171543030
12.994717,3,8,-1,-4,6,-1,-1,3,0.171543030
12.996214,7,10,2,0,0,-2,-1,4,0.171543030
12.996225,9,16,-1,-4,0,-1,-2,-10,0.171543030
13.008878,-18,-46,-2,3,-16,-1,-1,-4,0.171543030
13.008907,-2,-4,-7,-4,3,-5,-4,2,0.171543030
13.017837,2,-4,-6,-4,-1,3,-4,-5,0.171543030
13.017957,-11,9,1,-7,-14,-7,-1,-1,0.171543030
13.032049,-12,-12,1,1,16,4,0,2,0.171543030
13.032082,3,-13,-2,-2,-4,-2,-1,-4,0.171543030
13.034675,-6,1,-2,-4,0,3,0,-3,0.171543030
13.034685,6,6,1,5,-3,-3,1,3,0.171543030
13.054604,1,-3,-3,-1,16,4,-1,-3,0.171543030
13.054612,-9,15,6,2,-8,-1,-2,-5,0.171543030
13.055183,-11,-36,-7,-7,1,0,0,3,0.171543030
13.055262,-21,-10,1,4,1,-1,-1,-14,0.171543030
13.069119,3,25,-1,-2,3,-3,-1,4,0.171543030
13.069143,19,-9,-4,-3,0,6,-1,3,0.171543030
13.077241,0,36,4,1,6,-4,0,-8,0.171543030
13.077270,-3,-8,-2,-2,-2,-1,-1,-1,0.171543030
13.092549,3,-12,-1,-1,-10,-3,-1,-2,0.171543030
13.092565,-8,14,2,0,-1,-1,0,-3,0.171543030
13.095522,4,15,2,4,-6,-1,-1,3,0.171543030
13.095539,-14,-9,-1,4,4,3,-2,-3,0.171543030
13.114918,-8,-13,-2,-1,-4,-8,-3,-4,0.171543030
13.114928,-14,-3,-1,-3,2,2,-2,1,0.171543030
13.115067,28,2,1,0,0,0,-1,-1,0.171543030
13.115074,-20,5,-2,-10,-4,-2,-5,-10,0.171543030
13.128808,25,25,3,-4,-14,-4,0,4,0.178848378
13.128835,-27,-51,-6,-2,3,0,0,-9,0.178848378
13.136990,11,17,-2,0,-12,-4,-3,9,0.178848378
13.137016,18,-3,0,-1,20,3,0,4,0.178848378
13.152175,1,3,2,-1,-6,-4,-3,0,0.178848378
13.152206,10,13,4,0,-3,-2,-2,2,0.178848378
13.154666,-10,1,-1,-3,1,-1,-4,-7,0.178848378
13.154673,17,49,0,0,-2,-2,0,2,0.178848378
13.174941,-53,-99,-13,-5,-7,-2,-4,-10,0.178848378
13.174981,-4,32,-2,-5,-1,-4,-2,4,0.178848378
13.178121,-4,-2,3,8,2,-2,-2,0,0.178848378
13.178136,22,-2,-2,-6,-9,-1,1,0,0.178848378
13.197470,11,30,1,-1,-4,0,0,3,0.178848378
13.197525,-8,-7,0,4,8,0,-2,-4,0.178848378
13.198165,-14,-6,-5,-10,-4,-1,1,0,0.178848378
13.198217,10,-10,6,11,-1,-4,-2,2,0.178848378
13.211921,4,-8,0,4,17,6,2,-1,0.178848378
13.211947,6,11,-4,-3,-25,-5,1,-3,0.178848378
13.213997,3,-16,-3,-2,16,1,0,4,0.178848378
13.214011,3,5,-3,-3,-14,-2,0,-3,0.178848378
13.234656,4,6,1,-2,-5,0,-1,4,0.178848378
13.234673,4,24,1,1,2,0,0,2,0.178848378
13.237642,-5,-2,2,3,4,1,0,-4,0.178848378
13.237653,-15,-17,-3,-2,1,0,-2,0,0.178848378
13.257647,32,33,4,2,1,-1,0,-2,0.178848378
13.257655,-16,-31,-6,-4,-13,-6,-2,-5,0.178848378
13.258414,18,-5,-2,-3,9,0,0,5,0.178848378
13.258446,-27,-26,-7,-1,6,4,-5,-10,0.178848378
13.280029,12,18,2,-2,-15,-2,1,3,0.178848378
13.280048,-1,0,0,2,3,1,0,5,0.178848378
13.281732,-9,0,0,-2,-3,-1,-2,-5,0.178848378
13.281747,0,-6,-3,-1,-3,-1,1,8,0.178848378
13.302967,-5,12,0,-1,-2,-1,-1,-4,0.178848378
13.302976,12,1,0,-1,-6,-4,-2,-3,0.178848378
13.303200,-10,-1,0,-2,-6,0,-1,4,0.178848378
13.303207,2,-2,-3,-3,3,-2,1,0,0.178848378
13.317528,-1,9,-1,-1,-2,-3,-2,-1,0.178848378
13.317544,3,-18,0,-2,5,0,-1,0,0.178848378
13.318235,-9,33,5,1,-9,-5,-1,-6,0.178848378
13.318292,25,-29,-8,-3,9,1,-1,3,0.178848378
13.333405,-9,-10,-4,-2,8,1,-2,-2,0.178848378
13.333420,20,18,0,3,1,0,-1,0,0.178848378
13.333423,-1,-26,0,1,2,-1,0,-1,0.178848378
13.333426,9,1,2,0,-15,0,1,1,0.178848378
13.354836,-9,5,-3,-5,-2,0,0,-2,0.178848378
13.356936,0,25,0,0,4,0,-2,-6,0.178848378
13.356945,-3,35,3,4,-22,-5,0,1,0.178848378
13.356948,-13,-38,-4,-3,33,3,-5,-8,0.178848378
13.377946,-5,-3,-4,3,-11,5,0,-9,0.178848378
13.377969,-19,-13,1,-5,-11,-5,1,-1,0.178848378
13.380006,1,-18,-5,-3,2,2,0,-5,0.178848378
13.380018,3,43,4,2,-8,-7,1,7,0.178848378
13.392258,9,-54,-5,-4,4,-4,-1,3,0.175252040
13.392281,4,-6,0,0,11,0,-2,-2,0.175252040
13.394692,-6,-2,0,2,-7,-2,0,-1,0.175252040
13.394716,-3,29,4,0,-6,-1,2,1,0.175252040
13.414364,-19,-3,-4,-2,9,3,-2,-3,0.175252040
13.414378,-7,11,0,0,-5,-4,-3,0,0.175252040
13.415108,-9,-44,-7,-5,2,-2,-2,3,0.175252040
13.415115,-6,11,-1,-1,3,1,-2,-4,0.175252040
13.438025,-16,-4,2,-1,-6,-5,-2,-2,0.175252040
13.438058,-2,-17,0,4,1,-1,1,3,0.175252040
13.440610,9,59,7,3,-2,2,-5,-3,0.175252040
13.440618,-8,-73,-6,-12,4,0,-3,-12,0.175252040
13.451827,13,16,4,12,-13,-6,-1,9,0.175252040
13.451843,-7,4,-2,-6,33,6,-1,-2,0.175252040
13.452628,-2,12,1,1,2,1,-4,-1,0.175252040
13.452691,5,11,-2,-8,-12,-10,2,9,0.175252040
13.474927,-23,-8,-2,-3,7,2,-1,-5,0.175252040
13.474936,12,-2,4,1,-18,-4,1,1,0.175252040
13.474981,-5,6,-4,-4,4,-2,-3,0,0.175252040
13.475003,-16,-18,1,5,3,-3,0,-2,0.175252040
13.497672,-7,-8,-4,-4,0,3,1,-2,0.175252040
13.497757,16,1,-2,-1,3,1,-1,11,0.175252040
13.500358,-15,26,-3,-4,-4,-3,0,-12,0.175252040
13.500366,14,-43,1,5,-3,0,-2,8,0.175252040
13.512038,6,22,-2,-3,-4,-2,-1,3,0.175252040
13.512065,-22,-29,-1,-1,-9,-1,0,-5,0.175252040
13.513854,0,-7,-3,0,-1,0,1,2,0.175252040
13.513895,7,17,1,3,-2,-1,-2,-5,0.175252040
13.537535,13,12,1,0,-2,0,0,1,0.175252040
13.537549,4,24,0,-5,-1,0,-1,-3,0.175252040
13.537555,-32,-50,-6,-1,2,0,-2,-6,0.175252040
13.537561,-9,4,-1,-1,1,-1,0,6,0.175252040
13.557618,24,3,0,-9,-23,-10,-5,-3,0.175252040
13.557638,-10,15,-4,-2,2,3,-2,-7,0.175252040
13.560170,28,3,-6,-12,3,2,1,5,0.175252040
13.560185,-3,12,-1,9,1,-1,-1,-1,0.175252040
13.571959,-4,18,-1,-4,-12,-4,1,2,0.175252040
13.571983,-15,-31,-1,0,8,-1,-2,3,0.175252040
13.572608,22,11,-1,-1,-6,0,-1,-15,0.175252040
13.572627,-54,19,-1,-6,-16,-2,0,1,0.175252040
13.594509,34,-42,-7,-4,16,0,-3,-1,0.175252040
13.594542,-12,10,1,6,2,-1,0,2,0.175252040
13.595795,7,10,1,2,5,-1,-1,1,0.175252040
13.595806,-12,-33,-5,-4,-1,1,-4,-8,0.175252040
13.617554,1,14,0,2,3,-2,0,-2,0.175252040
13.617572,3,12,1,-1,-7,1,1,-3,0.175252040
13.618210,-4,-17,-3,-2,-3,-1,-2,11,0.175252040
13.618220,19,14,-4,-3,-6,-4,0,0,0.175252040
13.631860,-4,4,3,-1,4,0,0,-1,0.175252040
13.631877,8,-10,-5,-7,-14,-5,-3,-5,0.175252040
13.632519,-10,-12,2,3,2,3,3,4,0.175252040
13.632531,24,4,-6,0,-7,-5,-3,-9,0.175252040
13.654744,-13,-3,-1,4,26,11,-2,-2,0.177694668
13.654770,3,17,2,-7,-13,-3,2,-2,0.177694668
13.656961,15,21,5,1,2,-3,-3,1,0.177694668
13.656980,-26,-63,-1,2,5,2,1,0,0.177694668
13.679588,-1,-8,-4,-1,-7,-7,-3,-9,0.177694668
13.679601,15,6,1,2,-1,-2,-4,4,0.177694668
13.679604,-20,0,-3,-9,-2,1,0,2,0.177694668
13.679607,14,36,3,4,5,1,-1,-5,0.177694668
13.692222,-30,-10,1,4,7,1,0,-4,0.177694668
13.692246,4,-11,-6,-3,1,0,-2,-5,0.177694668
13.694361,13,-5,0,-1,-6,-1,2,7,0.177694668
13.694378,13,21,2,-1,-7,-2,-3,-14,0.177694668
13.714530,3,3,-1,-3,-3,-2,-1,8,0.177694668
13.714551,-5,2,-1,-1,2,1,-2,-4,0.177694668
13.716023,-26,-43,-3,0,11,-8,-1,0,0.177694668
13.716035,20,30,-1,-2,-5,6,0,2,0.177694668
13.737939,-9,-20,0,-1,-12,-2,-2,-1,0.177694668
13.737971,7,-9,1,4,-1,-3,-3,-3,0.177694668
13.739560,8,23,1,3,9,4,1,-3,0.177694668
13.739566,5,-16,3,-3,4,0,-1,9,0.177694668
13.752041,4,23,3,-4,0,-5,-1,-3,0.177694668
13.752073,-6,1,1,3,-5,-2,1,3,0.177694668
13.753828,-25,-10,-2,-1,-18,-7,-2,-6,0.177694668
13.753841,29,13,0,-1,19,4,-1,4,0.177694668
13.774495,17,16,-7,6,9,-1,-3,-3,0.177694668
13.774507,-13,-17,-1,-2,5,-2,-3,-2,0.177694668
13.775162,-6,-5,3,7,-1,0,1,-1,0.177694668
13.775284,-9,2,0,-1,-8,-1,1,1,0.177694668
13.797598,8,18,1,-1,-3,-1,-1,-4,0.177694668
13.799362,-26,-30,-3,-5,1,-1,-2,-10,0.177694668
13.799375,6,-13,-5,-3,0,-5,-3,-3,0.177694668
13.799378,-9,47,2,-2,-5,5,-1,0,0.177694668
13.811348,-2,-74,-4,-1,1,0,-1,0,0.177694668
13.811379,2,3,-4,-2,0,-1,-1,0,0.177694668
13.820855,15,33,3,0,-13,-1,-5,-2,0.177694668
13.820870,-38,-44,-3,-1,-5,-4,1,-4,0.177694668
13.835418,6,16,3,1,12,2,3,4,0.177694668
13.835435,6,12,-1,-3,-10,-4,-1,4,0.177694668
13.835441,17,-7,1,6,24,3,2,-1,0.177694668
13.835447,-5,8,-2,-5,-21,-6,-3,0,0.177694668
13.858211,-13,14,3,3,7,-2,-1,-2,0.177694668
13.858242,-9,-28,-9,-5,-6,-2,-2,-1,0.177694668
13.860795,-19,1,1,2,-2,3,0,-1,0.177694668
13.860811,22,9,1,-8,6,0,0,1,0.177694668
13.871566,-23,11,6,-2,-16,-2,-3,-7,0.177694668
13.871590,22,26,4,2,7,-2,0,6,0.177694668
13.879527,-12,-36,-9,-3,-8,0,-4,-10,0.177694668
13.879553,0,-11,0,-4,7,1,0,4,0.177694668
13.894710,20,47,1,-2,-7,-2,2,4,0.177694668
13.894736,-24,-36,1,2,3,0,0,4,0.177694668
13.896983,-6,15,-1,-5,-6,-4,-1,-8,0.177636082
13.896996,9,-6,-4,4,2,-2,-2,-1,0.177636082
13.917874,2,0,2,-1,4,5,-1,-2,0.177636082
13.917901,8,38,0,1,0,0,3,0,0.177636082
13.920014,-4,-44,-4,-6,1,-1,-2,5,0.177636082
13.920027,-12,-7,0,4,-6,-3,0,-2,0.177636082
13.931269,4,23,-2,-1,-5,-6,-2,0,0.177636082
13.931282,2,-17,0,1,-7,0,-2,2,0.177636082
13.941204,10,6,-2,-4,12,3,-2,5,0.177636082
13.941226,-15,-3,0,-3,-4,-2,-1,-6,0.177636082
13.954797,11,10,0,-1,4,-3,1,5,0.177636082
13.954828,6,-2,0,-2,-12,1,-3,-2,0.177636082
13.957701,-17,-11,-5,0,-1,1,-1,-4,0.177636082
13.957713,-17,-7,-2,-8,10,1,2,4,0.177636082
13.977658,1,3,3,8,1,2,-2,0,0.177636082
13.977681,8,26,0,8,6,-6,0,-1,0.177636082
13.978521,-22,-33,3,2,-3,0,-3,-3,0.177636082
13.978539,41,13,-4,-2,-2,-3,0,7,0.177636082
13.991517,-10,-26,-7,-7,-13,-5,-1,0,0.177636082
13.991573,7,32,1,-7,0,0,-1,4,0.177636082
13.999982,16,-28,-3,0,-10,-4,-2,2,0.177636082
14.000017,-9,-8,-3,2,5,2,-2,-10,0.177636082
14.014313,-29,-17,-2,-3,-8,0,0,-1,0.177636082
14.014330,6,5,1,-1,4,-2,0,-6,0.177636082
14.022211,13,39,5,-1,-1,-1,0,1,0.177636082
14.022260,-8,-8,-2,0,-4,-3,-2,-2,0.177636082
14.037771,2,-1,-7,-3,-2,-3,-2,-1,0.177636082
14.037799,-12,-17,0,-5,-22,-2,1,-1,0.177636082
14.038402,14,8,-4,-4,19,2,0,-3,0.177636082
14.038424,4,4,3,8,7,1,-4,-1,0.177636082
14.051247,-2,8,-1,-4,-1,3,0,0,0.177636082
14.051260,-1,-52,-5,-1,14,0,-2,-8,0.177636082
14.059672,-1,11,4,0,-15,-4,0,2,0.177636082
14.059694,9,1,-3,1,-9,-9,-4,-1,0.177636082
14.074692,19,3,-1,-2,11,6,1,-1,0.177636082
14.074734,-27,7,1,-2,1,3,0,1,0.177636082
14.077401,35,11,-7,-5,-7,-5,-2,-12,0.177636082
14.077418,-5,-6,3,9,3,0,-2,3,0.177636082
14.098415,-4,0,1,1,-8,-4,-2,2,0.177636082
14.098427,10,10,-2,0,10,0,-1,-2,0.177636082
14.098429,-24,-12,-4,0,1,1,-1,1,0.177636082
14.098432,-4,18,3,-1,-6,0,-1,-3,0.177636082
14.120042,-14,-18,-3,-5,-7,-7,-2,-8,0.177636082
14.120059,0,25,1,-1,9,4,1,-1,0.177636082
14.121706,9,-10,0,-1,2,-2,1,3,0.177636082
14.121724,-18,-2,-1,-4,-12,-4,-2,0,0.177636082
14.134425,1,2,-1,-4,-1,2,0,1,0.177636082
14.134444,-12,5,-4,3,40,2,-1,-3,0.177636082
14.135284,-18,-8,2,3,-16,-1,0,3,0.177636082
14.135292,-6,-23,-4,-5,9,2,-1,-1,0.177636082
14.158332,13,1,-1,0,-8,-5,1,0,0.175071772
14.158362,4,12,2,-2,-22,-3,-2,3,0.175071772
14.161649,3,18,2,0,4,-2,-1,-2,0.175071772
14.161677,3,-7,-3,2,0,1,1,0,0.175071772
14.180089,2,16,1,-1,3,-2,-1,-1,0.175071772
14.180116,2,-49,-2,4,-2,2,0,1,0.175071772
14.180774,-5,-3,-2,-8,0,-4,-2,0,0.175071772
14.180788,28,28,3,7,-11,0,1,2,0.175071772
14.202760,-28,-8,0,0,9,1,-2,-2,0.175071772
14.202792,-11,25,-3,-1,-18,-4,-3,-8,0.175071772
14.205629,0,-12,1,0,-1,1,0,8,0.175071772
14.205639,-19,-6,-2,-4,7,4,0,5,0.175071772
14.218807,1,-6,-5,1,-3,0,-2,-10,0.175071772
14.218830,-3,3,0,-5,-6,-2,0,-4,0.175071772
14.218837,-5,17,0,-5,-6,-4,-1,-2,0.175071772
14.221539,27,49,1,1,-3,1,-1,-2,0.175071772
14.239995,-46,-52,-7,-3,-12,-9,-1,-1,0.175071772
14.240006,3,-40,-5,-3,13,8,-3,0,0.175071772
14.240761,10,5,-3,-2,16,-1,0,-1,0.175071772
14.240777,7,-3,-3,-4,-2,2,0,1,0.175071772
14.254349,15,30,3,3,9,-1,0,5,0.175071772
14.254376,-4,10,-2,-4,-21,-9,-4,-12,0.175071772
14.254963,-3,14,2,2,-1,0,-1,1,0.175071772
14.254985,-23,-21,3,-3,0,-3,0,-7,0.175071772
14.278202,8,-10,-6,-6,1,3,-1,1,0.175071772
14.278248,-1,-10,-4,3,4,-7,-2,-1,0.175071772
14.280650,2,-3,1,6,-2,6,1,2,0.175071772
14.280673,19,18,4,-3,6,1,-1,-1,0.175071772
14.300324,-28,-20,1,1,1,-7,-3,-1,0.175071772
14.300336,21,23,2,8,15,6,0,1,0.175071772
14.300725,-2,12,-1,-1,-9,-4,-3,-9,0.175071772
14.300732,-46,-52,-6,1,2,-2,-1,-2,0.175071772
14.315163,19,7,1,0,-30,-7,-3,-1,0.175071772
14.315178,-24,3,-2,-3,36,8,0,-2,0.175071772
14.315233,2,14,0,-5,-10,1,-1,2,0.175071772
14.315307,0,-3,0,-5,-3,-5,0,-1,0.175071772
14.337714,12,9,2,0,-3,-1,-1,-1,0.175071772
14.337747,5,-6,2,-2,-20,-6,2,6,0.175071772
14.339197,14,8,-6,0,6,-3,0,-6,0.175071772
14.339207,-2,5,0,0,-7,-2,-2,-4,0.175071772
14.362573,5,-22,-1,-2,3,2,0,0,0.175071772
14.362596,16,5,-3,-4,-11,-2,-1,2,0.175071772
14.362602,-16,-2,0,0,14,2,-1,-4,0.175071772
14.362608,9,2,-6,-1,-14,-3,-1,-3,0.175071772
14.374915,-5,-10,8,9,10,1,-1,-4,0.175071772
14.374939,18,7,0,-3,-6,-3,-1,7,0.175071772
14.378062,14,24,5,1,-9,-2,0,0,0.175071772
14.378075,-40,-45,-7,-2,-1,-2,-1,-5,0.175071772
14.397633,1,10,-2,-11,7,6,-1,1,0.175071772
14.397655,-8,-12,-1,3,-5,-5,-1,-5,0.175071772
14.398237,2,17,3,3,-3,-6,-2,2,0.175071772
14.398252,-13,-17,-5,-13,-4,-1,-4,-3,0.175071772
14.420825,13,17,-3,-1,-1,-4,-2,1,0.177275545
14.420857,-9,-62,-5,-3,-2,3,-1,-1,0.177275545
14.424131,6,-4,-3,-2,0,-3,1,1,0.177275545
14.424148,1,19,3,-1,-3,-4,-3,2,0.177275545
14.434737,-11,-6,-5,-2,4,-1,-2,-2,0.177275545
14.434754,10,32,4,0,-5,-3,-1,0,0.177275545
14.437077,-24,-24,-4,-1,-15,-2,1,-2,0.177275545
14.437088,26,8,-3,-1,23,8,0,0,0.177275545
14.457662,-18,-10,-4,0,-1,0,-2,-2,0.177275545
14.457685,-11,25,0,-4,-2,-4,-2,0,0.177275545
14.458530,-5,-34,-3,-4,2,3,-1,0,0.177275545
14.458553,15,22,2,-1,-3,-4,-1,-5,0.177275545
14.480674,2,16,-1,7,-2,-3,-1,-1,0.177275545
14.480700,-6,-19,0,-4,4,2,-1,-3,0.177275545
14.482213,-5,-3,-2,-3,-2,2,-1,1,0.177275545
14.482235,1,-1,0,-1,-4,-5,0,0,0.177275545
14.494547,14,46,2,-3,5,5,3,-1,0.177275545
14.494642,-32,-73,-8,3,-15,-9,-3,-3,0.177275545
14.496142,-2,11,-5,-3,-10,4,1,-7,0.177275545
14.496165,3,-7,5,10,19,3,2,11,0.177275545
14.517921,7,10,1,-1,-1,-3,-2,-2,0.177275545
14.517945,4,26,0,-4,3,4,3,0,0.177275545
14.519648,-13,-5,0,3,-1,-3,-2,-3,0.177275545
14.519718,4,11,-2,1,-2,-2,-1,1,0.177275545
14.540339,-3,-20,-3,-5,-6,-1,0,2,0.177275545
14.540408,4,13,1,-1,-3,-1,-1,2,0.177275545
14.541055,1,-2,2,-2,3,0,-2,-4,0.177275545
14.542514,21,35,3,-1,-4,-2,-3,-2,0.177275545
14.553689,-5,-66,-11,-3,5,-1,-2,-3,0.177275545
14.553725,-9,42,4,-11,5,-3,-3,-3,0.177275545
14.561961,19,-59,-3,6,6,5,0,-8,0.177275545
14.561979,-22,-1,1,-2,2,1,1,9,0.177275545
14.577675,-1,10,0,0,-1,-1,0,-9,0.177275545
14.577701,4,12,0,4,0,2,0,3,0.177275545
14.580011,-4,25,2,2,3,-3,-1,2,0.177275545
14.580024,3,-9,-2,-1,-5,-4,0,-4,0.177275545
14.600166,6,-7,0,-5,3,-1,-2,0,0.177275545
14.600178,-11,-1,-4,-4,-6,-5,0,-5,0.177275545
14.600937,-3,22,2,0,-11,-5,-1,5,0.177275545
14.600944,13,5,1,-3,15,13,-1,-6,0.177275545
14.614712,-12,-20,-6,9,-5,0,1,5,0.177275545
14.614728,21,-10,0,4,4,0,-1,-2,0.177275545
14.615197,-2,-15,-1,-3,-5,-7,-2,2,0.177275545
14.615213,5,4,-3,-3,-14,-6,-2,-6,0.177275545
14.637926,-5,0,4,-5,0,0,-2,-4,0.177275545
14.637950,10,7,0,1,-5,-3,0,2,0.177275545
14.639664,-3,5,-4,0,1,0,-2,-2,0.177275545
14.639680,-13,-12,-3,-2,-1,-2,-1,-1,0.177275545
14.662592,10,24,4,2,-1,1,0,1,0.177275545
14.662614,24,29,1,0,-10,-3,-1,2,0.177275545
14.662617,-61,-44,-1,-5,7,-2,-1,0,0.177275545
14.662620,2,-30,-12,0,-5,-4,-3,-4,0.177275545
14.674017,-2,0,-1,-2,-2,-3,0,6,0.175206974
14.674043,0,2,-2,-1,-5,-1,-5,-3,0.175206974
14.684269,9,31,2,-1,3,-3,2,-1,0.175206974
14.684281,0,1,-1,2,-12,-3,1,3,0.175206974
14.697664,-2,-3,0,-5,-10,-6,-3,-2,0.175206974
14.697682,-6,8,0,3,34,10,-1,-3,0.175206974
14.699145,-7,-1,0,-8,-17,3,0,2,0.175206974
14.699166,6,-9,4,-1,-6,-7,-2,11,0.175206974
14.720449,7,1,-8,-6,-4,1,-2,-5,0.175206974
14.720474,-1,-18,-3,-5,-10,-4,0,2,0.175206974
14.722589,-1,8,0,1,6,-1,-2,-6,0.175206974
14.722601,3,19,2,-3,2,1,0,-2,0.175206974
14.743148,-6,-3,-1,-1,-1,0,2,-1,0.175206974
14.743168,6,-4,-1,-1,1,-2,-2,5,0.175206974
14.744288,-12,2,-2,0,3,-1,-2,-11,0.175206974
14.744342,2,-3,-2,-4,-3,1,0,-1,0.175206974
14.757869,-4,7,5,4,6,3,-1,0,0.175206974
14.757913,-8,-16,-6,0,-6,-1,0,-5,0.175206974
14.759090,27,11,0,1,0,0,-1,4,0.175206974
14.759105,-7,0,-3,-2,2,1,-1,-4,0.175206974
14.780698,-3,-17,0,-1,-3,-4,-1,2,0.175206974
14.780722,-2,-1,1,3,-3,3,1,1,0.175206974
14.783354,12,17,0,-1,2,2,0,2,0.175206974
14.783368,-5,-2,2,0,-5,-4,-3,-7,0.175206974
14.793862,14,5,-2,5,31,5,1,9,0.175206974
14.793885,-7,-9,-4,-10,-20,-6,0,-5,0.175206974
14.804886,14,40,0,5,-1,-2,-1,6,0.175206974
14.804893,-16,-53,-3,-3,-2,1,1,-4,0.175206974
14.820000,11,14,-1,-4,-8,1,-1,1,0.175206974
14.820011,4,3,-4,-1,-9,-7,0,-2,0.175206974
14.820014,5,-13,-4,-4,19,4,-2,-6,0.175206974
14.820017,-1,12,0,-2,-18,-9,-2,-2,0.175206974
14.840201,-16,3,-1,1,5,10,-1,-5,0.175206974
14.840225,2,-3,0,1,1,1,1,5,0.175206974
14.842251,3,-7,-1,2,-3,-2,-3,0,0.175206974
14.842264,8,8,-2,0,3,-2,-1,-5,0.175206974
14.853933,-9,-8,1,-1,-5,-4,-2,-3,0.175206974
14.853958,2,23,5,1,1,-1,-1,-4,0.175206974
14.863603,-4,-46,-8,-3,-7,-5,-1,5,0.175206974
14.863615,1,-13,4,3,4,1,-2,-3,0.175206974
14.877607,-35,-6,-6,-1,-1,1,-4,-6,0.175206974
14.877634,1,-39,-4,-2,12,1,-3,-4,0.175206974
14.879993,11,13,2,-4,-9,-3,1,4,0.175206974
14.880005,-20,13,-4,-3,5,-1,-1,-6,0.175206974
14.900350,27,21,0,0,-4,-2,2,2,0.175206974
14.900376,-8,2,-1,-4,-3,-1,-2,-1,0.175206974
14.901777,-9,-2,0,1,1,4,-1,-1,0.175206974
14.901864,6,8,3,8,-20,-6,-3,2,0.175206974
14.914195,-20,10,4,-1,5,7,1,-10,0.175206974
14.914214,-2,-14,-8,-5,7,-1,-1,8,0.175206974
14.923926,2,-22,-9,-4,-4,-3,-2,-5,0.175234015
14.923939,-7,12,-2,-5,4,2,0,0,0.175234015
14.937604,7,28,-1,-4,-9,-5,-2,-7,0.175234015
14.937630,-4,-72,2,2,-2,0,-1,-1,0.175234015
14.943886,-5,22,3,-2,-5,-4,0,-6,0.175234015
14.943910,4,-4,-8,-1,4,3,-1,3,0.175234015
14.960108,-6,-6,2,2,2,-5,-1,0,0.175234015
14.960134,12,38,2,-1,-3,0,0,1,0.175234015
14.961913,-5,1,1,0,-1,0,-2,-4,0.175234015
14.961934,-12,-11,-3,-2,-2,2,-1,-3,0.175234015
14.973964,22,4,-2,-1,-15,-9,-1,2,0.175234015
14.973982,-9,19,1,4,3,6,2,0,0.175234015
14.983671,-5,-55,-3,2,8,0,-2,-10,0.175234015
14.983684,-9,-3,-4,-1,12,1,-1,2,0.175234015
14.997691,-3,-14,-1,-3,-7,-2,-2,-2,0.175234015
14.997792,-10,13,2,3,-18,-4,-3,-1,0.175234015
14.999888,15,29,1,-1,10,3,0,7,0.175234015
14.999901,-3,-21,-1,-1,1,-1,1,-1,0.175234015
15.022532,6,-11,-1,0,6,-1,-1,0,0.175234015
15.022543,-15,10,-2,-3,2,-2,-2,-13,0.175234015
15.022547,3,33,6,-4,-22,-5,0,4,0.175234015
15.022580,-16,-70,-7,1,28,0,-6,2,0.175234015
15.033869,15,2,-3,-3,-7,1,-1,-3,0.175234015
15.033894,-13,-7,-2,-3,6,0,-3,-4,0.175234015
15.044358,-4,3,0,-2,-2,-5,-1,-1,0.175234015
15.044374,-3,25,2,-1,-6,-2,1,-3,0.175234015
15.057637,-2,-6,-2,-1,-2,-3,-1,1,0.175234015
15.057656,5,0,-2,-1,5,0,0,0,0.175234015
15.059137,-7,1,-2,2,5,-2,-2,-3,0.175234015
15.059175,16,45,3,-2,1,-2,0,4,0.175234015
15.080206,0,-60,-6,1,-19,0,-2,-8,0.175234015
15.080224,0,2,-1,-1,15,-1,-4,7,0.175234015
15.082327,-9,-6,0,-3,0,-1,1,-4,0.175234015
15.082338,4,20,1,1,-4,-1,0,2,0.175234015
15.103264,-9,19,3,-3,-2,-2,-1,2,0.175234015
15.103276,24,-2,-5,1,0,-1,-1,3,0.175234015
15.104017,7,9,-2,-2,-11,-1,-1,-1,0.175234015
15.104030,0,4,1,-4,-2,2,1,-3,0.175234015
15.117652,13,-28,-3,-4,8,0,0,-1,0.175234015
15.117666,-15,-31,-9,-1,2,-5,-3,-4,0.175234015
15.118982,4,16,2,2,-6,1,-2,-2,0.175234015
15.119006,0,-16,-4,-7,1,3,0,-2,0.175234015
15.140128,5,17,3,8,4,-1,1,3,0.175234015
15.140146,-7,9,2,-3,-10,-1,1,-4,0.175234015
15.141976,-11,21,-1,-1,0,-3,-3,5,0.175234015
15.141989,4,-2,-3,-4,3,2,1,-3,0.175234015
15.162668,-15,0,0,0,-3,0,-1,0,0.175234015
15.162685,-4,10,1,4,2,-2,-1,-5,0.175234015
15.164153,-10,-22,-4,-5,-14,-3,-1,-2,0.175234015
15.164166,11,4,2,2,-11,-4,-3,-1,0.175234015
15.177717,-6,26,-2,4,22,2,1,-2,0.176644609
15.177739,-29,-20,2,2,-11,-7,-3,-6,0.176644609
15.180294,-14,-74,-9,1,20,10,-1,-3,0.176644609
15.180306,-9,3,2,0,-4,-5,-3,3,0.176644609
15.200250,16,27,-1,-2,-2,0,0,4,0.176644609
15.200275,3,-8,1,-3,1,0,-2,0,0.176644609
15.201554,-3,8,-1,-2,-2,-3,0,1,0.176644609
15.201576,3,27,1,-2,2,-4,-2,-5,0.176644609
15.222703,-19,-68,-3,-7,-11,0,-4,2,0.176644609
15.222720,11,13,-1,0,9,1,0,-7,0.176644609
15.224932,12,-4,-1,-2,3,0,0,7,0.176644609
15.224951,6,6,-2,0,-10,-4,0,-1,0.176644609
15.237063,-11,33,4,0,6,-3,-2,-3,0.176644609
15.237087,-1,-33,-2,-4,2,0,-2,2,0.176644609
15.243866,20,9,1,4,1,3,0,-9,0.176644609
15.243903,6,2,0,5,-4,-2,0,2,0.176644609
15.260136,-7,6,-3,0,8,-4,-1,-3,0.176644609
15.260158,1,-4,0,-2,-7,-1,-1,2,0.176644609
15.261981,2,14,1,-5,-7,-2,-2,3,0.176644609
15.261999,-8,-21,0,-1,0,0,-2,-7,0.176644609
15.282647,3,2,-7,-5,-2,-1,-3,-1,0.176644609
15.282671,20,35,2,3,-14,-7,-1,0,0.176644609
15.284252,-10,-9,-4,-3,0,-1,-1,-1,0.176644609
15.284271,2,-3,1,9,4,2,0,2,0.176644609
15.297038,-9,-2,0,-6,-1,-3,-1,-2,0.176644609
15.297059,4,6,-3,0,-9,6,0,-2,0.176644609
15.311324,1,10,1,4,5,-2,-1,-5,0.176644609
15.311347,4,-2,0,-2,0,1,1,7,0.176644609
15.320192,6,20,1,1,-3,-4,-3,-4,0.176644609
15.320210,-19,-34,-5,-4,-4,5,2,2,0.176644609
15.321606,22,5,-4,-5,3,-5,-4,-5,0.176644609
15.321631,-4,3,3,3,-6,-2,-2,-1,0.176644609
15.342668,-6,3,0,-3,-13,0,-1,1,0.176644609
15.342689,-7,1,-3,-2,12,0,1,-3,0.176644609
15.344354,9,34,0,-3,-4,-4,-1,4,0.176644609
15.344374,-13,-32,-5,-6,5,-2,-2,-9,0.176644609
15.357218,11,2,2,2,2,1,1,0,0.176644609
15.357237,-4,2,-3,-3,-15,-5,0,3,0.176644609
15.363940,1,2,0,4,22,9,0,1,0.176644609
15.363960,-43,-5,-3,-4,-11,-4,-2,-8,0.176644609
15.380168,-6,-12,1,-4,-6,-2,-2,4,0.176644609
15.380983,11,1,-1,3,13,2,-2,2,0.176644609
15.381874,-3,6,3,5,-2,-2,-1,-1,0.176644609
15.381891,-6,-6,-2,-10,-14,2,1,2,0.176644609
15.402693,4,-11,-5,-1,9,-6,1,-3,0.176644609
15.402712,3,12,5,0,2,1,-3,-2,0.176644609
15.404262,-26,-12,-2,-7,-7,-3,1,1,0.176644609
15.404309,-1,5,0,5,1,-1,-1,-8,0.176644609
15.417009,5,1,-1,-3,-1,-2,-2,0,0.176644609
15.417029,15,16,2,0,-7,-3,0,-5,0.176644609
15.423750,12,-6,-3,3,4,-1,-1,7,0.176644609
15.423771,4,2,-3,-10,-7,0,-3,-6,0.176644609
15.440087,-9,0,0,2,11,1,-1,-2,0.182025598
15.440107,-9,-8,-3,-3,-10,1,-5,-7,0.182025598
15.441727,-30,3,-2,-7,-2,-3,0,-1,0.182025598
15.441747,5,18,3,1,-8,-2,-1,3,0.182025598
15.463039,-2,-22,1,2,-8,-2,-3,1,0.182025598
15.463054,7,2,-8,-4,-1,-5,-1,-6,0.182025598
15.464590,-11,-19,-4,-3,2,0,-2,-3,0.182025598
15.464607,13,26,-1,-2,-1,-6,-1,2,0.182025598
15.477086,-13,-9,-2,0,11,4,0,-3,0.182025598
15.477117,-3,-2,2,-1,-8,-4,0,0,0.182025598
15.483676,1,5,2,3,7,0,-4,0,0.182025598
15.483696,1,-13,-5,-1,9,-3,-3,1,0.182025598
15.500046,1,5,-1,-10,-8,-2,-1,-1,0.182025598
15.500067,-2,12,1,5,5,0,-2,-6,0.182025598
15.501682,4,-11,-2,-3,-14,-4,1,-8,0.182025598
15.501728,-14,-26,2,18,25,7,-3,7,0.182025598
15.522621,10,18,-2,-8,-20,0,-1,-4,0.182025598
15.522642,-10,-10,-3,-7,1,-3,-1,5,0.182025598
15.524299,-15,3,1,-1,-6,-2,1,-4,0.182025598
15.524358,-3,-5,-1,-1,7,-1,0,-5,0.182025598
15.536921,26,8,-2,0,-1,-1,-1,4,0.182025598
15.536943,-1,1,1,0,0,0,0,-1,0.182025598
15.543855,5,-5,1,0,-5,-1,-1,3,0.182025598
15.543876,2,0,0,-4,-3,-2,1,1,0.182025598
15.560229,2,-5,-3,2,-8,-1,-4,-4,0.182025598
15.560252,-15,5,1,-1,-4,-8,-1,1,0.182025598
15.561783,27,18,0,-5,2,5,-3,3,0.182025598
15.561805,-20,7,-1,-3,20,7,0,-4,0.182025598
15.581831,-29,-27,-7,-2,6,-4,-4,-14,0.182025598
15.581848,6,-78,-10,-8,-8,-6,-3,-4,0.182025598
15.591323,10,5,2,3,-13,-1,-2,2,0.182025598
15.591333,10,7,-1,-4,-13,-4,-1,1,0.182025598
15.596366,-4,31,3,4,0,1,1,4,0.182025598
15.596383,-6,17,4,0,7,3,1,-3,0.182025598
15.605099,-5,-19,-3,1,1,-3,-5,2,0.182025598
15.605110,-8,0,-3,-4,-5,-2,0,-6,0.182025598
15.620018,-1,-4,0,1,-8,-3,1,-1,0.182025598
15.620030,14,11,-3,-9,2,3,0,4,0.182025598
15.621485,-10,3,-3,1,28,-2,-4,-8,0.182025598
15.621514,-10,-21,4,-1,-21,-1,0,-6,0.182025598
15.642974,13,-6,-8,-3,-6,-6,-1,10,0.182025598
15.643002,-20,5,2,-5,13,7,-2,1,0.182025598
15.645111,-20,-28,-5,5,-4,-5,1,-2,0.182025598
15.645139,16,16,-3,-2,10,0,-2,0,0.182025598
15.656222,-16,-30,3,-2,10,2,1,-3,0.182025598
15.656243,0,13,2,9,5,-2,-1,3,0.182025598
15.666682,9,-1,-3,-8,-16,0,-3,1,0.182025598
15.666695,24,12,0,0,-11,-6,2,7,0.182025598
15.681419,-12,15,-2,-2,-6,0,-2,-8,0.182025598
15.681435,22,-30,-4,2,-2,-1,-1,1,0.182025598
15.686380,-40,-34,-2,-2,-5,-1,-1,-8,0.182025598
15.686409,17,-8,-3,-1,-7,-8,-3,2,0.182025598
15.702616,-1,23,-2,1,11,5,2,0,0.176329139
15.702635,-5,10,-1,2,0,1,1,-5,0.176329139
15.704245,-1,4,0,-4,-3,-2,0,-2,0.176329139
15.704268,-6,-8,-1,-4,5,-5,0,3,0.176329139
15.716452,13,18,3,0,-2,-3,-2,-6,0.176329139
15.716478,2,6,0,-5,-1,1,-1,0,0.176329139
15.726951,-13,-13,0,6,-11,-2,0,-6,0.176329139
15.726966,0,5,-2,-2,18,5,0,2,0.176329139
15.740506,50,29,1,5,-5,-2,-4,12,0.176329139
15.740538,-29,-29,-3,-2,0,-1,0,-3,0.176329139
15.743626,11,9,-1,-3,-7,-3,-2,1,0.176329139
15.743642,-2,-14,-3,0,-1,2,-2,-4,0.176329139
15.762639,-7,-10,-1,0,2,-2,0,-2,0.176329139
15.762661,10,7,2,1,-1,-2,0,1,0.176329139
15.764068,10,24,1,3,1,-1,-1,3,0.176329139
15.764086,-13,17,-4,-8,-10,1,-4,-6,0.176329139
15.776246,-15,-46,-3,-4,1,-5,-1,0,0.176329139
15.776257,21,27,1,1,-8,5,-3,-4,0.176329139
15.785159,1,-12,-2,-1,6,0,-2,-1,0.176329139
15.785165,-6,-6,-2,-2,-10,-4,-2,-9,0.176329139
15.800759,-9,-2,2,-1,-1,-2,-1,-2,0.176329139
15.800805,3,13,0,1,0,-5,-2,-3,0.176329139
15.804106,-9,0,-4,-6,-7,2,-2,-3,0.176329139
15.804117,-13,-3,1,6,3,-1,3,2,0.176329139
15.822548,11,8,4,5,10,2,0,1,0.176329139
15.822559,-13,-42,-2,-2,-10,-5,-3,-3,0.176329139
15.824068,20,20,2,-2,4,-2,2,0,0.176329139
15.824076,-2,-8,-3,-4,-15,0,-3,-5,0.176329139
15.836159,-10,-1,-5,-5,5,2,1,1,0.176329139
15.836187,-6,25,1,1,8,-1,-1,3,0.176329139
15.847111,4,-1,-2,-8,-8,0,0,-3,0.176329139
15.847124,0,3,1,18,14,2,-1,3,0.176329139
15.868452,10,6,0,-5,-15,-5,-1,-1,0.176329139
15.868464,11,14,-3,0,2,-1,-2,-3,0.176329139
15.869091,10,3,-5,-3,-2,-5,-2,1,0.176329139
15.869098,-7,-23,-3,-8,4,-3,-3,4,0.176329139
15.883703,1,0,1,-1,-1,4,1,-1,0.176329139
15.883715,4,15,2,9,0,-3,1,6,0.176329139
15.884260,-22,-6,3,1,-5,-2,0,-10,0.176329139
15.884272,4,6,2,-2,-8,2,-2,-2,0.176329139
15.896423,-6,21,2,-1,-5,-5,-2,0,0.176329139
15.898519,-17,-43,-10,-10,6,2,-1,4,0.176329139
15.906641,-1,-20,1,1,-15,-5,0,6,0.176329139
15.906648,18,11,2,0,7,0,0,-6,0.176329139
15.920491,-1,-8,-2,0,8,-1,-1,-2,0.176329139
15.920513,-23,13,-1,0,-11,1,-2,-8,0.176329139
15.922945,2,9,-3,5,8,2,2,0,0.176329139
15.922954,-8,-14,-5,-7,-20,-11,-4,-2,0.176329139
15.943450,-2,-7,-4,-7,9,5,0,0,0.176329139
15.943470,8,22,3,-1,6,-4,0,-2,0.176329139
15.945894,-6,-6,-1,-1,5,4,-2,2,0.172940105
15.945912,11,5,-2,2,5,1,1,5,0.172940105
15.956758,-5,-9,-3,2,-6,-2,-4,-3,0.172940105
15.956802,11,-10,-1,4,-4,-2,0,0,0.172940105
15.967192,-2,-2,0,-1,10,-2,-2,9,0.172940105
15.967200,5,15,-1,-3,2,2,-1,-2,0.172940105
15.980143,-3,-13,2,8,-7,-2,-1,-3,0.172940105
15.980161,-6,9,-2,-2,-3,2,3,2,0.172940105
15.981679,-3,-7,0,2,-2,-5,-2,-9,0.172940105
15.981700,8,14,-1,-3,3,0,-1,3,0.172940105
16.002555,-10,-4,-3,-4,2,-7,-3,-1,0.172940105
16.002619,0,10,4,-3,-13,-1,-2,-3,0.172940105
16.004964,44,2,0,1,6,-3,-3,2,0.172940105
16.004975,-24,-10,-1,-2,2,3,2,2,0.172940105
16.025044,24,19,-1,0,-12,-4,0,-8,0.172940105
16.025077,0,-53,-8,-3,7,-1,-2,0,0.172940105
16.026704,-2,10,-1,-9,-16,-4,-1,0,0.172940105
16.026759,3,-6,0,1,3,-4,1,5,0.172940105
16.039407,-11,12,2,2,-2,0,-1,0,0.172940105
16.039455,-4,14,-1,-5,-4,-6,-1,-4,0.172940105
16.046315,2,1,-7,6,1,1,1,4,0.172940105
16.046334,2,2,5,0,0,-3,-2,-4,0.172940105
16.063111,-10,-5,2,-3,5,2,0,2,0.172940105
16.063135,10,42,8,2,-1,-5,-1,-2,0.172940105
16.065162,-45,-64,-8,-4,8,4,-2,-11,0.172940105
16.065180,-5,-2,-2,-2,-11,0,-4,-5,0.172940105
16.084922,16,-8,-6,-5,-7,-3,-4,-4,0.172940105
16.084954,5,-2,-2,2,3,1,2,4,0.172940105
16.091653,-9,10,1,-3,0,-2,-3,-10,0.172940105
16.091678,9,-3,-4,-2,-6,-2,1,-3,0.172940105
16.099293,-7,4,1,1,-10,-5,-1,3,0.172940105
16.099311,-3,0,0,-1,11,2,-4,-3,0.172940105
16.108768,-3,37,5,0,-4,0,2,-1,0.172940105
16.108775,-8,-55,-7,-7,-5,0,-2,-1,0.172940105
16.122951,7,10,2,5,5,0,0,-7,0.172940105
16.122978,-17,-20,-7,-7,-7,-3,-5,0,0.172940105
16.125208,7,14,6,10,10,1,-1,2,0.172940105
16.125214,8,24,-1,4,10,0,-3,10,0.172940105
16.145261,-7,17,-3,-5,-17,-4,2,0,0.172940105
16.145288,-41,-78,-5,-1,-2,2,-2,-5,0.172940105
16.147114,15,4,-2,-3,-7,2,-2,2,0.172940105
16.147142,-11,-3,2,2,-2,-2,1,0,0.172940105
16.159566,-9,-7,-4,-6,5,1,-3,-6,0.172940105
16.159589,2,21,2,2,5,0,-1,1,0.172940105
16.166342,13,-2,-1,-4,-9,-4,0,0,0.172940105
16.166359,-1,0,-1,-2,-2,1,-1,0,0.172940105
16.183114,11,-17,-3,2,-6,1,-4,-1,0.172940105
16.183151,9,27,2,2,-5,-8,-1,-2,0.172940105
16.184213,-13,-25,-3,-2,-3,-3,2,0,0.172940105
16.184234,7,17,-1,-3,5,0,-2,-7,0.172940105
16.205334,-11,0,2,-3,-11,-4,-2,6,0.177568480
16.205365,11,6,-3,2,10,7,0,1,0.177568480
16.208669,-5,-37,-2,-3,-10,-3,-4,2,0.177568480
16.208679,-7,-2,0,3,13,1,-1,-1,0.177568480
16.219814,-10,-26,-3,-10,-9,1,0,3,0.177568480
16.219847,10,37,6,4,-3,-3,-2,-4,0.177568480
16.226618,-6,16,0,-3,3,-1,-1,-6,0.177568480
16.226651,0,-6,-1,6,-2,0,0,-2,0.177568480
16.242670,-6,2,-3,-3,6,-2,-4,-1,0.177568480
16.242685,4,-5,-3,-5,10,-4,-1,-1,0.177568480
16.244276,-14,-7,-3,-4,-8,5,2,1,0.177568480
16.244305,5,15,0,-1,-9,-5,-2,-5,0.177568480
16.265546,-10,-8,2,1,10,4,1,-5,0.177568480
16.265567,11,8,-5,-1,-13,-1,-1,6,0.177568480
16.267252,-15,-21,-1,0,6,1,0,-2,0.177568480
16.267267,-4,-5,-2,-7,2,-1,-2,0,0.177568480
16.295641,22,-19,-8,4,15,3,-2,-5,0.177568480
16.295662,-14,-8,1,-2,-13,-2,1,-3,0.177568480
16.297149,-2,39,-1,2,5,-2,-2,-3,0.177568480
16.297161,7,-36,-3,-3,-11,-3,0,2,0.177568480
16.303634,2,9,0,1,-1,-2,-3,-3,0.177568480
16.303647,4,5,-2,-6,0,-4,-2,-2,0.177568480
16.304153,-3,-4,0,0,0,-3,0,4,0.177568480
16.304160,-11,14,0,-1,-11,-2,-3,-4,0.177568480
16.325484,-6,2,-3,-1,16,-1,1,3,0.177568480
16.325506,8,-3,0,-1,0,-1,-1,2,0.177568480
16.326895,6,14,1,-4,-5,-4,0,-4,0.177568480
16.326911,-9,25,-1,-3,0,-2,-2,-7,0.177568480
16.339763,-8,-54,-7,-4,2,7,0,0,0.177568480
16.339788,12,11,1,2,3,-1,-1,-2,0.177568480
16.346303,-19,-10,2,1,-1,-2,-2,-2,0.177568480
16.346322,-6,12,-1,-4,-2,-1,-2,1,0.177568480
16.362757,31,0,0,0,-12,-5,0,1,0.177568480
16.362785,-30,-17,-3,-3,-20,-3,-2,-10,0.177568480
16.365215,16,24,3,11,29,6,-1,-1,0.177568480
16.365232,7,21,-1,1,10,-3,-2,1,0.177568480
16.385118,-4,-30,3,3,2,-3,-2,3,0.177568480
16.385126,2,0,-3,-3,-5,1,-1,2,0.177568480
16.386488,17,16,0,-6,-6,-2,-1,0,0.177568480
16.386522,-20,-7,2,3,3,1,2,-5,0.177568480
16.399497,-3,7,-1,-3,-10,-4,0,1,0.177568480
16.399513,24,18,1,2,4,-3,-1,-5,0.177568480
16.406537,1,-24,-2,-4,4,1,-1,8,0.177568480
16.408311,-15,-10,-3,-2,10,-1,-1,-4,0.177568480
16.423033,1,10,1,-1,-9,-4,-2,-5,0.177568480
16.423065,-17,-14,-1,1,-4,-1,2,-1,0.177568480
16.425996,13,12,-3,2,0,0,-1,2,0.177568480
16.426002,4,-18,-1,-6,4,-4,-1,-2,0.177568480
16.445797,-8,17,1,-4,-8,1,0,2,0.177568480
16.445819,28,2,1,5,2,1,0,0,0.177568480
16.446614,-13,-19,-5,-3,-14,-4,-1,-3,0.177568480
16.446621,1,-3,0,-1,-25,-7,-3,-7,0.177568480
16.461328,-10,19,3,11,30,3,-2,-12,0.176360684
16.461342,-18,-35,-7,-5,6,3,-1,3,0.176360684
16.466417,-1,10,-2,-5,4,-2,-2,0,0.176360684
16.466441,11,-17,-1,1,-9,0,1,2,0.176360684
16.482841,-9,8,3,-4,-9,-3,-1,0,0.176360684
16.482872,4,6,-2,0,3,4,-1,0,0.176360684
16.485132,-4,-20,1,2,-14,-8,-2,-7,0.176360684
16.485138,3,12,-3,-2,15,1,1,5,0.176360684
16.506711,-9,3,2,0,-13,-3,1,-1,0.176360684
16.506768,6,3,2,-1,6,2,0,2,0.176360684
16.506771,-8,6,0,3,-5,-2,-3,-3,0.176360684
16.506774,3,16,0,-5,-3,-1,-1,0,0.176360684
16.518766,-6,-41,-8,-2,5,1,-1,-1,0.176360684
16.518784,-2,21,2,1,-10,-6,-2,0,0.176360684
16.528941,-20,-29,0,-3,4,0,-1,1,0.176360684
16.529025,9,13,-1,-4,7,0,-4,-3,0.176360684
16.543163,-3,17,1,4,-16,-4,-2,-2,0.176360684
16.543194,-9,-39,1,3,5,-1,0,9,0.176360684
16.545131,-6,21,-2,-11,0,2,-3,-9,0.176360684
16.545145,4,-18,2,5,14,3,0,3,0.176360684
16.565081,1,5,-2,-3,-7,-4,-1,-1,0.176360684
16.565105,-2,13,4,1,-3,0,-1,-2,0.176360684
16.567974,6,-3,-3,-4,-8,-6,-1,1,0.176360684
16.567986,9,-13,-5,-3,3,8,-2,-4,0.176360684
16.579001,-2,5,-4,-2,-7,-4,0,0,0.176360684
16.579028,-1,1,-2,-2,4,-3,-5,5,0.176360684
16.589634,8,2,-1,4,-7,-2,3,1,0.176360684
16.589650,3,7,1,3,4,0,-1,-1,0.176360684
16.602902,-2,1,0,-2,0,0,-2,-3,0.176360684
16.602910,3,20,-1,-5,-2,-1,0,0,0.176360684
16.604214,1,0,-1,4,2,0,0,3,0.176360684
16.604237,-19,-50,-8,-8,-16,-7,-6,-11,0.176360684
16.625597,-11,9,-4,-4,14,1,-1,3,0.176360684
16.625630,10,4,-1,3,-2,-4,0,-4,0.176360684
16.629025,-3,13,3,-6,-2,0,-3,-4,0.176360684
16.629037,7,-1,2,5,3,0,2,7,0.176360684
16.639277,0,8,1,0,-7,-4,-4,-6,0.176360684
16.639306,-11,-8,-2,-4,8,1,0,-6,0.176360684
16.649726,10,24,-3,-2,-7,0,1,0,0.176360684
16.649735,-15,3,0,-1,-14,-2,1,0,0.176360684
16.662607,-1,11,4,2,9,2,-1,1,0.176360684
16.662623,-8,-20,-3,-4,-10,-2,-3,-3,0.176360684
16.664094,4,-19,-8,-11,2,-8,-4,-1,0.176360684
16.664122,5,0,-1,1,-8,0,2,-1,0.176360684
16.685145,-11,-13,-8,-4,14,5,-1,1,0.176360684
16.685163,1,6,2,4,-7,-4,0,-4,0.176360684
16.686829,-1,-6,1,-1,24,5,-1,1,0.176360684
16.686848,-4,5,3,6,2,-2,-2,0,0.176360684
16.698846,6,3,0,4,-10,-8,-2,-3,0.176360684
16.698877,0,-3,-3,-4,3,4,-1,1,0.176360684
16.709325,-7,-3,-2,0,7,-1,-2,-3,0.176360684
16.709334,26,43,2,-6,-12,-2,-1,6,0.176360684
16.725216,12,-48,-5,0,7,-3,-3,-1,0.177068237
16.725223,-23,-3,-2,-3,-13,-3,-1,-3,0.177068237
16.725226,1,-3,-2,-2,-4,3,1,-3,0.177068237
16.725228,-9,7,6,3,5,1,-1,-5,0.177068237
16.745329,12,19,0,-1,-12,-6,1,3,0.177068237
16.745354,8,0,3,1,7,1,-2,3,0.177068237
16.747517,13,-4,-1,0,-1,-1,0,6,0.177068237
16.747529,-33,-3,-5,-10,-17,-6,-1,-9,0.177068237
16.759081,-6,-7,-5,-3,3,3,-2,-3,0.177068237
16.759103,8,4,-2,1,12,2,0,-1,0.177068237
16.770233,1,12,2,5,1,1,-2,-1,0.177068237
16.770244,-1,-16,-1,-2,-3,-2,0,2,0.177068237
16.783081,-11,-12,-1,-4,-19,1,-1,-3,0.177068237
16.783117,8,3,2,-5,-7,-8,-2,1,0.177068237
16.785346,-28,-13,2,3,3,6,-4,-10,0.177068237
16.785353,20,-7,-2,-3,7,-4,-1,-2,0.177068237
16.805668,14,24,5,4,7,4,2,2,0.177068237
16.805691,-27,-31,-4,0,-2,-5,-1,-2,0.177068237
16.808885,4,-3,-4,0,-2,-1,-1,2,0.177068237
16.808895,-14,3,3,3,5,-3,-2,-4,0.177068237
16.818716,-1,-4,0,-3,-14,-3,0,-1,0.177068237
16.818742,4,9,-6,-6,6,3,0,-2,0.177068237
16.828839,15,4,1,5,-4,-3,2,3,0.177068237
16.828858,-24,25,-9,-6,17,3,-4,-3,0.177068237
16.842790,-6,-73,-4,-7,-8,-3,-1,2,0.177068237
16.842808,-4,14,-1,5,-9,0,-1,-3,0.177068237
16.845688,-5,-19,-5,-4,-5,-2,0,4,0.177068237
16.845711,22,35,3,4,-4,2,-2,-3,0.177068237
16.865004,-14,23,1,-8,3,0,-3,0,0.177068237
16.865016,2,-3,0,-1,-1,-1,-1,-3,0.177068237
16.866619,2,16,0,2,-3,-3,-2,2,0.177068237
16.866651,10,-19,-1,0,-9,-8,-1,12,0.177068237
16.879250,4,3,-9,-4,17,9,-1,-7,0.177068237
16.879274,-6,-2,4,0,-9,0,-2,3,0.177068237
16.888109,10,22,2,-1,-6,-5,0,-7,0.177068237
16.888127,-15,-11,-2,-2,5,4,-1,-2,0.177068237
16.902749,3,2,-1,3,0,-3,0,0,0.177068237
16.902765,7,20,-1,-5,2,-3,-1,0,0.177068237
16.904228,-3,-24,2,4,-18,-3,-3,-2,0.177068237
16.904246,-14,-3,-5,-2,11,4,-1,2,0.177068237
16.925763,-2,6,1,5,8,-2,-1,-1,0.177068237
16.925773,-20,-25,-6,-2,-4,0,-1,-4,0.177068237
16.927320,1,-16,-1,-2,-12,-5,-3,-3,0.177068237
16.927343,-1,-10,-3,-4,-8,0,-1,-2,0.177068237
16.938997,5,30,6,1,-6,-4,-2,-2,0.177068237
16.939031,1,-4,-5,-1,-3,0,-3,-3,0.177068237
16.948067,0,5,3,-1,9,2,2,1,0.177068237
16.948078,-1,-7,-3,0,5,0,-1,-1,0.177068237
16.962541,-15,-10,-1,0,5,3,-2,-4,0.177068237
16.962559,7,26,1,-1,-10,-6,0,1,0.177068237
16.964046,5,-27,-2,7,10,1,0,9,0.177068237
16.964719,-9,-23,-3,-2,-9,-2,-1,-9,0.177068237
16.985189,8,10,0,-6,4,-3,-4,-2,0.168320749
16.985221,1,16,4,8,4,1,2,-1,0.168320749
16.987531,4,15,-4,-3,7,2,-1,-2,0.168320749
16.987541,-1,-2,3,2,-11,-8,-1,1,0.168320749
17.008433,-11,7,1,6,1,4,2,-1,0.168320749
17.008465,-7,-31,-8,-8,-14,-4,-2,-7,0.168320749
17.010791,14,0,0,-4,12,1,0,-2,0.168320749
17.010807,13,-5,-3,4,-2,0,-1,6,0.168320749
17.022997,1,3,3,2,-5,-4,-2,-1,0.168320749
17.023018,-4,4,-1,1,2,-2,-2,-3,0.168320749
17.024125,3,-1,-4,-2,-2,2,-1,-5,0.168320749
17.024178,-2,5,2,0,-1,2,0,-2,0.168320749
17.045578,-3,14,-3,-5,-11,-6,-1,3,0.168320749
17.045606,-1,-22,-2,1,9,3,0,2,0.168320749
17.048288,9,18,-1,-1,14,-3,-5,-3,0.168320749
17.048298,-3,-6,2,-5,-10,2,-1,-7,0.168320749
17.067594,10,16,-4,0,2,1,-1,4,0.168320749
17.067604,14,-15,-1,0,-8,-3,-1,2,0.168320749
17.069177,-16,10,0,1,-7,1,0,0,0.168320749
17.069198,-17,2,3,3,13,0,0,-1,0.168320749
17.082714,4,-1,-1,-4,-5,-6,-1,-1,0.168320749
17.082729,-1,23,1,1,7,3,0,-3,0.168320749
17.084188,-13,-8,0,-2,-6,-3,1,-1,0.168320749
17.084201,20,5,2,1,-2,-1,0,-1,0.168320749
17.105226,-3,2,1,-4,-26,-5,-2,5,0.168320749
17.105257,14,3,0,-1,28,10,2,13,0.168320749
17.106829,-46,-31,-11,-3,4,-2,-5,-9,0.168320749
17.106844,22,5,1,0,1,0,0,-2,0.168320749
17.128018,-2,-34,-8,-4,-11,-3,-1,-3,0.168320749
17.128045,16,23,3,0,-10,-3,-1,-3,0.168320749
17.130364,2,-21,1,1,-1,2,0,2,0.168320749
17.130375,-5,7,-2,1,0,-1,-1,0,0.168320749
17.142581,-5,-3,0,2,11,0,0,-2,0.168320749
17.142607,-12,-7,-6,-10,-10,-9,-4,-9,0.168320749
17.148757,18,14,2,4,8,7,2,3,0.168320749
17.148786,-9,-10,-5,-6,3,-1,-5,-4,0.168320749
17.165260,4,-6,1,1,11,0,-1,-1,0.168320749
17.165299,-5,0,-1,-1,0,-3,1,0,0.168320749
17.166545,-1,11,2,-5,1,-3,-2,0,0.168320749
17.166552,-35,-60,-6,5,-4,-7,-4,-1,0.168320749
17.188277,6,0,-3,4,14,3,-1,-11,0.168320749
17.188318,21,5,3,-3,4,1,-1,17,0.168320749
17.191131,4,21,-3,-6,-22,-8,-5,-9,0.168320749
17.191139,2,5,0,5,13,3,3,6,0.168320749
17.202260,9,7,-3,-11,-9,-5,-1,-9,0.168320749
17.202285,-22,-10,-4,3,0,-2,-5,-8,0.168320749
17.208993,19,29,3,-5,-3,0,-2,3,0.168320749
17.209018,1,-57,-7,-5,-12,-3,-1,2,0.168320749
17.225040,-8,-3,-3,-3,-8,0,-3,-7,0.170330734
17.225075,17,13,0,5,3,3,-1,-5,0.170330734
17.226702,-5,-1,0,1,-4,1,0,8,0.170330734
17.226720,21,36,2,-4,-6,-2,-1,-2,0.170330734
17.247515,-33,-18,1,4,8,2,-1,-2,0.170330734
17.247533,9,-16,-3,-6,-5,-4,-1,-9,0.170330734
17.249538,-12,-12,-3,2,9,5,-2,-1,0.170330734
17.249551,4,19,7,0,2,-2,-1,4,0.170330734
17.270170,4,15,3,-1,-3,-2,-2,4,0.170330734
17.270181,-20,-15,-2,-1,-2,-1,-1,-3,0.170330734
17.271542,4,-5,2,-6,-9,-6,-1,-5,0.170330734
17.271575,5,28,0,9,16,3,-2,-1,0.170330734
17.284980,14,9,2,5,-7,-1,1,6,0.170330734
17.284995,-20,-18,0,-5,-7,-4,-1,-8,0.170330734
17.286491,-16,-29,-6,-2,-4,-2,-2,0,0.170330734
17.286498,12,9,-3,-3,-8,-2,-4,-7,0.170330734
17.307894,-2,-3,-3,0,-2,-2,-2,-1,0.170330734
17.307918,-16,13,-1,3,1,0,1,0,0.170330734
17.310173,8,-7,0,-1,3,-3,-1,1,0.170330734
17.310188,-6,3,2,-4,-6,5,4,0,0.170330734
17.322025,-7,-14,-3,0,-1,-2,-3,-2,0.170330734
17.322057,5,3,-1,-2,-5,0,-1,-2,0.170330734
17.336659,-4,4,-1,-2,8,2,-1,-4,0.170330734
17.336683,10,-8,-2,-3,-1,-4,-4,-1,0.170330734
17.345174,-11,-6,1,-2,3,-1,0,-4,0.170330734
17.345198,15,18,1,0,2,-4,1,7,0.170330734
17.347172,-10,-37,-3,-1,-16,-2,1,-5,0.170330734
17.347183,-5,12,-3,-8,14,3,-1,1,0.170330734
17.368192,-6,16,0,6,1,0,-2,-2,0.170330734
17.368230,-28,-15,-1,4,-5,-6,-3,-5,0.170330734
17.371066,-11,-18,-4,-2,10,5,-1,1,0.170330734
17.371074,17,2,2,-4,-8,-5,-1,1,0.170330734
17.381966,-4,9,-1,2,5,1,-1,-1,0.170330734
17.381996,12,2,-2,-4,2,0,-1,1,0.170330734
17.389163,0,11,0,4,-11,-5,-5,-2,0.170330734
17.389184,-13,-15,-5,-1,-17,-1,0,-1,0.170330734
17.405502,2,5,6,-1,3,-5,-2,-2,0.170330734
17.405535,4,-15,-6,-2,23,5,-1,5,0.170330734
17.408004,8,5,-3,-2,-7,-2,1,-4,0.170330734
17.408011,14,42,0,-4,1,2,1,7,0.170330734
17.427613,6,-42,-1,-4,-6,-4,0,3,0.170330734
17.427636,-24,-11,-3,3,-16,1,-1,-7,0.170330734
17.429380,21,17,-1,-6,0,-3,-4,-8,0.170330734
17.429398,-25,-13,-1,-1,-4,-3,-1,-1,0.170330734
17.441977,2,3,-1,-1,-10,-5,-1,1,0.170330734
17.441986,10,14,1,-1,7,6,-1,1,0.170330734
17.448710,-19,-13,3,-1,1,0,-1,-2,0.170330734
17.448738,0,3,-3,3,-1,0,0,2,0.170330734
17.465057,-8,0,-4,-7,-14,-4,-2,0,0.170330734
17.465077,10,-7,1,-1,18,3,-1,-6,0.170330734
17.467976,10,26,0,-1,-12,-6,-2,5,0.170330734
17.467985,2,2,3,5,5,2,2,2,0.170330734
17.489017,-10,-8,-2,4,0,2,-2,-5,0.167996268
17.489025,6,10,1,-3,0,0,-2,-7,0.167996268
17.489073,8,22,3,4,-3,0,-2,6,0.167996268
17.489093,-10,-29,-9,1,23,-6,1,-3,0.167996268
17.501234,-6,17,-1,-4,-27,-2,-3,-3,0.167996268
17.501304,14,18,1,-1,-10,-2,0,3,0.167996268
17.512426,-20,-38,-8,-6,4,-2,-1,-5,0.167996268
17.512448,0,-2,-2,-3,-10,-4,-4,-2,0.167996268
17.535361,7,9,3,0,10,0,2,2,0.167996268
17.535372,0,2,-3,-6,-4,-3,-3,-7,0.167996268
17.535376,-30,-12,0,1,3,2,2,0,0.167996268
17.535406,16,-17,-1,0,-3,0,-3,-6,0.167996268
17.548382,-2,-8,0,-2,12,3,1,-2,0.167996268
17.548392,4,-7,4,3,-19,-7,1,11,0.167996268
17.549278,11,39,4,2,25,7,0,-4,0.167996268
17.549295,-10,4,0,-6,-14,-2,-2,-7,0.167996268
17.561539,-6,-7,-4,-2,17,5,-2,-2,0.167996268
17.561571,10,-1,-2,0,-6,-5,0,5,0.167996268
17.570316,0,13,-2,-3,-13,-4,-1,-1,0.167996268
17.570321,3,-19,-2,-1,14,-2,1,14,0.167996268
17.585137,6,27,4,-6,-1,5,-2,-11,0.167996268
17.585159,-2,-20,-10,-11,-4,-3,-2,1,0.167996268
17.586613,-37,-15,-3,1,4,-3,-1,-5,0.167996268
17.586634,-21,7,-3,-4,-5,-2,-4,-6,0.167996268
17.608248,15,6,-4,3,-9,0,1,6,0.167996268
17.608275,-8,-9,2,5,7,1,-1,-6,0.167996268
17.611534,2,-13,-2,-1,-12,-3,-1,1,0.167996268
17.611548,12,26,0,-3,2,-5,-5,-4,0.167996268
17.621448,-8,-7,-4,2,5,1,1,1,0.167996268
17.621472,-2,9,0,-7,-1,0,0,-1,0.167996268
17.630233,-18,-35,-2,2,-5,-2,1,-2,0.167996268
17.630249,4,3,2,3,-1,-1,-2,-3,0.167996268
17.645220,8,15,-2,-1,1,-5,-4,4,0.167996268
17.645256,-19,-40,-3,0,0,1,1,1,0.167996268
17.646816,21,10,1,2,4,-1,-1,-2,0.167996268
17.646834,-16,-11,0,-1,-4,-1,0,1,0.167996268
17.667587,-2,8,-3,-3,-2,-3,0,1,0.167996268
17.667606,-10,7,5,7,-33,-2,-3,-3,0.167996268
17.669072,18,-27,1,2,30,4,0,-1,0.167996268
17.669092,-15,-7,-2,0,-8,0,-2,-6,0.167996268
17.681494,8,7,2,-7,3,-1,-2,0,0.167996268
17.681512,-11,6,-2,3,-3,-4,-1,-1,0.167996268
17.691630,21,-1,-2,-6,-12,-3,2,3,0.167996268
17.691649,-3,2,2,2,-7,0,0,-2,0.167996268
17.707280,2,22,-3,1,-1,-4,0,2,0.167996268
17.707294,-7,-53,-3,-1,6,-1,-3,-7,0.167996268
17.707297,9,14,-1,-3,-6,-2,-1,4,0.167996268
17.707300,8,21,0,-7,5,-2,-1,-1,0.167996268
17.727835,-24,-24,2,3,-2,-1,-2,-1,0.167996268
17.727856,4,16,-1,1,6,1,0,-1,0.167996268
17.729972,-7,18,-1,-4,2,2,-2,-1,0.167996268
17.729985,3,13,-1,-3,-11,-4,-1,-7,0.167996268
17.741733,-6,-50,0,0,-1,0,2,4,0.169077872
17.741818,5,12,-1,-3,7,-1,-3,-2,0.169077872
17.751900,9,5,1,5,1,-3,2,6,0.169077872
17.751912,23,28,2,2,-3,7,-1,0,0.169077872
17.765279,-20,-18,-1,0,-2,-4,-2,-1,0.169077872
17.766502,-2,2,-5,-4,21,-3,-3,-4,0.169077872
17.766941,4,25,2,-7,-15,-5,-2,-1,0.169077872
17.766956,-19,-26,-12,3,0,2,1,-4,0.169077872
17.787704,16,-7,4,-7,-5,-3,-1,3,0.169077872
17.787729,-16,15,3,13,0,3,1,-3,0.169077872
17.790407,9,-8,-3,-2,-2,-1,-3,-4,0.169077872
17.790419,5,11,2,-7,-12,-6,-2,2,0.169077872
17.801490,0,35,1,-1,-3,-1,2,-5,0.169077872
17.801547,13,-14,-2,-4,-2,0,-2,4,0.169077872
17.811597,-10,7,-2,2,-1,-1,-3,-5,0.169077872
17.811611,-6,-19,0,2,-1,-2,1,-2,0.169077872
17.825288,16,10,-1,1,-2,1,-1,6,0.169077872
17.825306,-5,13,2,-6,1,-3,0,-6,0.169077872
17.827189,-11,8,-2,1,-9,4,-2,7,0.169077872
17.827207,9,-28,-1,0,4,0,-3,3,0.169077872
17.847720,8,-12,-3,1,7,-3,-2,-6,0.169077872
17.847739,-10,5,-2,-2,-35,-8,-3,-2,0.169077872
17.849232,-34,-33,-2,-5,20,14,1,-6,0.169077872
17.849256,14,17,4,-1,-7,-3,1,5,0.169077872
17.861909,14,-19,-7,9,0,-1,-4,-5,0.169077872
17.861926,-5,-4,-1,-3,2,-4,-1,-2,0.169077872
17.876442,17,29,4,-2,-9,-5,0,3,0.169077872
17.876470,-19,-31,-1,6,5,2,-1,-1,0.169077872
17.885124,-7,-3,-3,-3,6,4,-1,-5,0.169077872
17.885884,36,23,3,0,1,-1,-1,2,0.169077872
17.886662,-34,-49,-4,-1,-7,-5,-3,-6,0.169077872
17.886679,3,6,-2,2,9,-1,-2,-1,0.169077872
17.908461,-5,-5,-2,-5,-18,-11,-3,-5,0.169077872
17.908473,-4,7,-6,-5,35,13,0,1,0.169077872
17.909243,19,28,4,3,-3,-3,1,3,0.169077872
17.909256,-7,-24,0,-1,1,0,-3,2,0.169077872
17.930147,-16,-15,-3,-3,-6,0,0,-1,0.169077872
17.930164,-4,4,0,0,-7,-7,0,1,0.169077872
17.931678,11,-1,-2,-3,15,1,-1,-2,0.169077872
17.931689,-6,45,3,-2,-4,0,0,-4,0.169077872
17.945248,-6,-9,-3,-2,2,1,-3,0,0.169077872
17.945271,-26,-48,-4,-4,-10,-2,-2,-3,0.169077872
17.946748,7,9,-1,-3,-3,-7,-1,1,0.169077872
17.946763,10,0,3,5,5,-1,0,-1,0.169077872
17.967869,-3,4,2,-6,-11,2,-2,3,0.169077872
17.969659,15,9,-1,-5,10,-5,-1,-2,0.169077872
17.969672,-21,-6,2,5,-12,-1,-1,-2,0.169077872
17.969675,2,-12,-7,-4,4,-1,-1,-9,0.169077872
17.990415,2,-6,-1,-1,-2,-1,-1,3,0.169077872
17.990432,-4,0,-3,-5,6,2,-2,0,0.169077872
17.991756,30,53,5,-2,7,-5,-1,0,0.169077872
17.991780,-12,-80,-10,1,-9,3,1,6,0.169077872
18.005202,-10,10,0,-1,8,-2,-3,-11,0.177622561
18.005283,-3,11,-2,1,-8,-4,-2,2,0.177622561
18.006881,2,-3,-2,-1,3,-2,-4,-5,0.177622561
18.006895,-5,23,5,-2,-6,6,2,-2,0.177622561
18.027633,19,14,-2,-3,-5,-1,1,3,0.177622561
18.027657,-16,-12,-1,0,-5,-2,-3,-10,0.177622561
18.029220,7,-4,-1,-1,-6,-2,-1,-1,0.177622561
18.029258,4,4,2,-2,0,-4,-2,-1,0.177622561
18.050139,5,7,-2,-3,5,1,-2,0,0.177622561
18.050204,6,2,0,-3,-7,-2,-4,-2,0.177622561
18.051741,-27,-5,-3,2,-16,-7,-2,-3,0.177622561
18.051761,12,-25,-5,-1,4,5,-2,-7,0.177622561
18.064589,-9,8,4,8,13,-4,0,-2,0.177622561
18.064605,4,0,-1,1,-6,2,1,8,0.177622561
18.071138,2,7,-3,-5,-13,-4,-3,-5,0.177622561
18.071169,-7,12,2,0,7,-2,-3,-3,0.177622561
18.087840,-22,-37,-2,-2,0,3,-2,-5,0.177622561
18.088943,14,12,0,-2,-22,-6,0,-2,0.177622561
18.089129,-2,13,3,6,19,4,1,-2,0.177622561
18.089173,-15,-23,-4,-7,-12,-5,-2,1,0.177622561
18.112873,2,-1,-2,-2,6,-2,-4,0,0.177622561
18.112886,-9,-20,2,0,9,4,-1,-4,0.177622561
18.112889,13,-38,-4,-5,-7,-2,-1,4,0.177622561
18.112892,17,20,-4,-4,3,-3,1,2,0.177622561
18.124992,12,9,-5,0,-6,-6,-4,-3,0.177622561
18.125010,-5,12,7,3,13,7,-2,-4,0.177622561
18.131776,7,4,-4,-3,0,1,-2,8,0.177622561
18.131794,5,28,3,-5,-10,-3,-2,-7,0.177622561
18.147798,-8,-21,0,-5,1,0,1,2,0.177622561
18.147823,15,12,-3,-3,-5,-7,-2,1,0.177622561
18.149743,-25,-42,-4,6,13,7,0,-8,0.177622561
18.149750,-5,31,0,2,2,-5,-4,0,0.177622561
18.170150,-3,9,-1,-2,-2,0,2,-4,0.177622561
18.170168,4,-4,-1,-3,-1,-3,-1,8,0.177622561
18.171695,-6,12,-1,-2,4,-3,-3,-6,0.177622561
18.171706,12,-8,1,0,-37,-9,0,8,0.177622561
18.184993,-24,4,-1,0,18,8,-4,-8,0.177622561
18.185018,10,-20,-3,1,16,-3,-1,-6,0.177622561
18.191507,36,26,-4,-2,-6,5,1,3,0.177622561
18.191531,-34,16,3,-2,-6,0,-2,0,0.177622561
18.207778,8,-1,-2,0,-9,-8,-2,1,0.177622561
18.207789,2,19,-1,-2,-6,1,0,-2,0.177622561
18.209117,-7,-11,-4,-2,-8,-4,-2,0,0.177622561
18.209163,7,-5,-1,-2,11,1,-1,2,0.177622561
18.230124,13,35,6,-1,-6,0,-1,5,0.177622561
18.230141,4,-9,-3,-3,1,0,-2,2,0.177622561
18.232031,-6,-12,0,-2,-3,-2,0,-3,0.177622561
18.232051,-11,-8,0,2,5,1,-1,-8,0.177622561
18.244605,9,9,0,4,-3,0,1,1,0.177622561
18.244629,2,-13,-2,-8,-10,-1,-3,7,0.177622561
18.251436,-24,-4,-1,2,2,-3,1,-2,0.198267713
18.251460,9,-9,0,-2,2,-1,1,2,0.198267713
18.267688,-2,-8,-1,-4,-1,0,-4,2,0.198267713
18.267719,6,17,0,-3,-8,0,1,-5,0.198267713
18.269838,-27,-18,-1,-7,-10,-8,-5,-8,0.198267713
18.269849,11,1,-3,0,24,7,-1,-1,0.198267713
18.290276,-7,-14,-1,-2,3,-2,-1,-8,0.198267713
18.290308,10,29,3,-4,-29,-7,-1,8,0.198267713
18.292807,-15,-20,-1,9,15,7,1,3,0.198267713
18.292824,-2,0,-1,-5,5,-5,-2,-3,0.198267713
18.304735,-17,-22,-4,-4,-2,5,-3,-14,0.198267713
18.304812,-1,32,-1,1,6,-3,0,0,0.198267713
18.311342,6,-22,1,-5,-12,3,0,-2,0.198267713
18.311371,6,7,-7,-2,8,-2,-2,-1,0.198267713
18.327966,4,-4,-2,0,-2,-2,1,5,0.198267713
18.328011,-40,-29,-1,9,6,1,0,-12,0.198267713
18.329635,41,18,-2,-6,-12,-7,0,17,0.198267713
18.329649,16,16,0,1,-2,1,-1,-1,0.198267713
18.366534,13,2,2,2,-5,-3,-1,-3,0.198267713
18.366552,-15,-1,-1,3,3,4,-1,-2,0.198267713
18.367936,-9,-5,0,2,5,-2,-2,-5,0.198267713
18.367949,5,0,-1,-2,-4,-2,0,2,0.198267713
18.368789,2,9,-1,-2,1,-6,-5,-2,0.198267713
18.368795,1,-21,-2,-1,6,-2,3,-3,0.198267713
18.372632,4,29,-3,-1,0,0,-1,-5,0.198267713
18.372659,4,-7,4,0,12,4,0,1,0.198267713
18.388167,-17,-45,-3,-2,-1,-3,-3,5,0.198267713
18.388212,-16,4,-1,-6,-2,2,-4,-5,0.198267713
18.390559,-9,1,2,5,5,-6,-2,-1,0.198267713
18.390565,-6,15,-1,-1,-33,-9,0,0,0.198267713
18.410048,8,15,1,-2,12,11,5,3,0.198267713
18.410068,13,4,-4,0,14,4,-1,2,0.198267713
18.411927,-3,-3,-4,-6,-1,-1,-1,-4,0.198267713
18.411947,-18,-12,-2,-1,-15,-5,-5,-5,0.198267713
18.424666,-4,1,1,-1,3,-1,-1,-5,0.198267713
18.424674,20,-3,-5,2,-1,-1,0,10,0.198267713
18.433037,-9,1,0,-2,-2,0,-2,-11,0.198267713
18.433048,-17,11,-2,-2,11,0,-1,-3,0.198267713
18.447603,14,7,-4,-12,-21,-1,-2,-2,0.198267713
18.447621,-1,33,-1,-1,2,0,0,-2,0.198267713
18.449824,-5,-94,-3,2,3,0,-1,-1,0.198267713
18.449830,-5,-2,0,0,2,-1,0,4,0.198267713
18.471668,4,24,1,2,1,-3,0,4,0.198267713
18.471678,0,3,1,0,-1,-2,-2,-6,0.198267713
18.471681,13,25,-2,-6,-14,-5,-1,3,0.198267713
18.471684,-6,-3,0,-3,8,6,0,-4,0.198267713
18.483669,-3,-8,-2,-2,-22,-6,-1,0,0.198267713
18.483687,-11,-25,-3,2,15,-2,-3,-6,0.198267713
18.498949,1,14,1,0,10,5,-1,0,0.198267713
18.498967,1,1,-2,2,2,-1,0,2,0.198267713
18.507986,10,-2,-1,0,8,0,-1,-3,0.195405963
18.508104,-6,-25,0,-2,-8,0,-1,0,0.195405963
18.510970,-9,20,1,-5,-8,-4,0,-2,0.195405963
18.510985,2,-5,-2,-2,-3,-2,0,1,0.195405963
18.530184,-10,20,8,4,4,-1,0,-2,0.195405963
18.530203,-3,-14,-8,-4,-11,-7,-2,-4,0.195405963
18.532539,-8,-37,-9,-7,-1,-2,-2,3,0.195405963
18.532580,18,2,4,-6,-1,-4,-3,6,0.195405963
18.543928,-24,-9,-5,6,2,3,-2,-3,0.195405963
18.543948,8,14,2,-3,-2,1,3,6,0.195405963
18.554600,1,19,2,3,-9,-1,0,-2,0.195405963
18.554610,1,-4,-4,2,4,1,1,-4,0.195405963
18.567639,7,-9,-2,-2,3,-3,0,4,0.195405963
18.567647,-10,-10,0,0,-1,0,-2,-1,0.195405963
18.569067,9,18,-3,-3,2,0,-1,-2,0.195405963
18.569106,-5,-7,0,0,-7,-3,0,-3,0.195405963
18.590492,2,-3,-2,-1,5,-2,1,-1,0.195405963
18.590519,6,32,6,5,-17,-4,-3,1,0.195405963
18.593581,-7,-5,-4,-1,13,0,-3,-3,0.195405963
18.593596,-13,-20,-4,-1,13,6,-5,-12,0.195405963
18.603770,5,-9,1,-4,-3,-6,-1,-1,0.195405963
18.603802,-3,8,-1,-1,-13,-4,0,3,0.195405963
18.613945,15,5,-2,-5,-7,-2,-2,0,0.195405963
18.613953,-7,3,3,2,-6,1,-1,0,0.195405963
18.628880,5,5,-3,2,-3,-3,-1,1,0.195405963
18.628900,-1,-9,3,0,11,4,0,-2,0.195405963
18.629235,7,32,2,0,-4,-3,-3,-9,0.195405963
18.629242,21,-4,-3,-2,-3,-7,-1,4,0.195405963
18.650291,-18,-17,-2,8,1,2,0,4,0.195405963
18.650320,-20,-32,-4,-3,-6,-4,-3,-6,0.195405963
18.651747,6,-4,-3,-5,1,2,-1,2,0.195405963
18.651767,7,16,-3,2,1,-3,-3,-4,0.195405963
18.663712,5,44,3,-6,-2,-2,-2,0,0.195405963
18.663732,-8,-64,-4,-3,2,0,-1,1,0.195405963
18.673447,-2,0,-1,-1,-7,-1,-2,-1,0.195405963
18.673461,-6,5,1,4,-1,-1,0,0,0.195405963
18.687541,-19,-5,-1,3,15,8,0,-1,0.195405963
18.687562,-6,24,1,-5,-17,-7,-1,-7,0.195405963
18.689340,11,2,5,3,19,5,1,1,0.195405963
18.689359,-19,-20,-2,0,-11,-2,-3,-4,0.195405963
18.710427,8,1,-1,3,2,-2,0,0,0.195405963
18.710462,11,9,0,3,4,0,0,1,0.195405963
18.711776,-9,-3,0,1,-1,-2,-1,-2,0.195405963
18.711797,10,10,-3,-6,-7,0,1,4,0.195405963
18.723568,-14,-4,-5,-7,-8,0,0,-6,0.195405963
18.723599,-5,-14,4,5,6,1,-1,1,0.195405963
18.733868,26,31,0,3,3,1,-1,3,0.195405963
18.733876,-28,-41,-6,-6,-10,-8,-2,-2,0.195405963
18.747750,18,-4,-7,-6,5,4,0,0,0.195405963
18.747785,5,24,-4,-9,-6,-3,-2,-5,0.195405963
18.750079,4,-1,4,8,-1,0,1,2,0.195405963
18.750086,-15,-22,-1,-2,4,4,-1,-4,0.195405963
18.770022,3,5,2,-1,-12,-4,-2,0,0.183945447
18.770060,-5,1,-2,4,7,1,-1,-2,0.183945447
18.771464,3,16,2,-10,-2,-1,0,3,0.183945447
18.771471,5,4,2,1,1,-2,-1,-7,0.183945447
18.784098,12,-12,-4,-2,-2,-4,-1,4,0.183945447
18.784109,1,22,3,-5,0,1,1,-3,0.183945447
18.794331,-14,-42,-5,0,-4,-4,-3,-3,0.183945447
18.794346,5,9,1,2,2,0,-1,-4,0.183945447
18.808626,1,-6,2,-1,-6,-5,-2,1,0.183945447
18.808661,0,25,-1,-1,-2,-2,-3,1,0.183945447
18.811628,6,-17,-4,-2,3,6,0,-2,0.183945447
18.811649,6,16,3,1,-3,0,-1,5,0.183945447
18.830028,-8,-24,-4,-2,0,0,-2,-3,0.183945447
18.830046,4,13,-1,-2,0,-2,-2,1,0.183945447
18.832408,-11,9,4,1,-6,-2,0,-1,0.183945447
18.832420,-10,13,-2,4,5,0,0,2,0.183945447
18.843933,-5,-15,-3,2,-8,-6,-3,-11,0.183945447
18.843957,-4,-9,-1,2,0,0,-2,0,0.183945447
18.852785,-9,-18,-5,-7,-1,-2,-2,-6,0.183945447
18.852791,6,4,1,-1,2,-3,-1,0,0.183945447
18.867111,-29,-19,3,0,4,0,-3,-2,0.183945447
18.867136,7,-19,-7,-3,0,1,-1,-1,0.183945447
18.873936,8,44,5,-3,-9,-5,-3,-6,0.183945447
18.873968,-9,-55,-9,-1,7,1,-2,-9,0.183945447
18.890376,0,8,-1,-3,-3,1,-2,-1,0.183945447
18.890409,3,-6,-4,-2,-3,-1,2,-4,0.183945447
18.893866,-6,1,-4,0,7,0,-2,6,0.183945447
18.893880,8,32,0,-10,-6,-3,0,2,0.183945447
18.920011,10,-10,4,11,5,0,0,-2,0.183945447
18.920044,-7,-5,1,-2,-20,-9,-1,-1,0.183945447
18.922100,-16,-13,-3,0,10,5,-1,-5,0.183945447
18.922112,-4,-19,-4,-5,-10,-4,1,1,0.183945447
18.927694,22,14,4,5,18,4,0,3,0.183945447
18.927718,-18,5,1,-1,3,-6,-3,-4,0.183945447
18.929239,3,11,-1,2,-1,-3,-1,5,0.183945447
18.929259,-1,-8,-2,-1,1,8,-1,10,0.183945447
18.950245,7,-4,-3,-8,-12,-6,-1,-11,0.183945447
18.950279,0,-5,3,4,7,1,1,-1,0.183945447
18.952489,0,16,0,-2,1,-3,0,2,0.183945447
18.952497,1,10,-2,-6,0,-1,-2,-3,0.183945447
18.973025,3,0,-4,1,-5,-2,0,3,0.183945447
18.973049,-7,-2,1,2,4,3,-3,-8,0.183945447
18.974350,1,-17,-2,3,-6,-4,-1,-3,0.183945447
18.976955,-9,18,3,2,-2,-3,0,1,0.183945447
18.987547,6,-8,-5,-6,1,-3,-1,2,0.183945447
18.987566,0,3,-2,-2,-2,4,-1,-3,0.183945447
18.989066,-18,-43,-5,-3,-20,-3,-1,0,0.183945447
18.990075,8,4,0,2,7,-2,-2,-6,0.183945447
19.011377,-1,16,3,-8,-21,-10,-2,2,0.183945447
19.011426,12,2,0,2,22,9,0,3,0.183945447
19.014080,13,27,2,-2,-1,-1,-1,0,0.183945447
19.014093,-16,-12,-1,3,-11,0,3,-3,0.183945447
19.032507,4,9,0,-1,8,6,-1,1,0.167631222
19.032545,-2,-6,-2,-1,-2,-1,0,1,0.167631222
19.034367,4,3,1,-2,-2,1,0,-5,0.167631222
19.034450,16,9,-2,5,1,-2,-3,-2,0.167631222
19.055428,-3,3,3,1,4,0,3,3,0.167631222
19.055452,-37,-34,-8,-3,-9,-1,-6,-10,0.167631222
19.056787,1,13,0,2,1,-1,0,7,0.167631222
19.056801,8,10,1,-2,-4,1,-1,-1,0.167631222
19.070365,-6,-7,-5,-9,-3,1,0,-2,0.167631222
19.070396,-10,14,0,4,4,-1,1,3,0.167631222
19.072249,-14,-16,0,-1,3,-2,0,-7,0.167631222
19.072263,-7,-8,-2,-1,3,-3,-3,-1,0.167631222
19.094881,8,9,-2,-1,-5,-1,-2,2,0.167631222
19.094900,7,-6,-2,-4,-7,-4,-2,0,0.167631222
19.094904,-2,1,1,-2,9,3,-2,-1,0.167631222
19.094907,1,2,-1,-1,5,3,0,-3,0.167631222
19.110112,-5,0,-5,-1,0,0,-2,-2,0.167631222
19.110125,6,-1,1,-1,-7,-6,0,1,0.167631222
19.114054,-6,-7,4,3,-3,-1,0,-3,0.167631222
19.114078,16,25,1,2,16,2,-3,1,0.167631222
19.130344,-48,-16,-2,-6,2,-4,-4,-5,0.167631222
19.130362,22,-11,-2,-4,8,6,4,6,0.167631222
19.131651,5,-4,-1,-1,-13,-5,-2,-8,0.167631222
19.131667,-16,0,-4,-1,1,1,-2,0,0.167631222
19.152696,0,12,1,2,2,-2,1,-5,0.167631222
19.152728,-17,16,-1,1,-7,-5,-2,1,0.167631222
19.155293,0,-16,-4,-2,3,-3,1,5,0.167631222
19.155305,15,2,2,1,-2,-1,0,-1,0.167631222
19.167606,9,10,1,0,-1,1,-1,0,0.167631222
19.167649,1,-2,-3,-10,-4,-2,-2,-3,0.167631222
19.174150,-9,-2,-4,7,1,-2,-4,-4,0.167631222
19.174175,-18,-7,-1,-7,-1,-3,-2,-5,0.167631222
19.189283,28,20,5,2,-5,0,0,4,0.167631222
19.189293,3,-32,-6,4,-3,-4,0,2,0.167631222
19.198920,1,-14,-6,-3,6,3,-4,-6,0.167631222
19.198937,-1,3,-3,-3,-1,0,0,-1,0.167631222
19.212711,-8,-12,-1,0,-1,0,-1,0,0.167631222
19.212738,11,19,4,0,5,2,0,-2,0.167631222
19.214946,4,3,-1,-1,-5,-2,-1,1,0.167631222
19.214958,-2,-4,0,0,-6,-5,0,0,0.167631222
19.227232,2,2,-2,-4,0,2,-3,0,0.167631222
19.229189,0,-2,-1,0,3,-4,-2,0,0.167631222
19.234015,-12,-6,0,-2,-7,2,-1,-1,0.167631222
19.234045,6,-10,-2,-3,6,-1,-1,-2,0.167631222
19.250842,-9,-5,-1,2,-11,-3,-4,-3,0.167631222
19.250866,5,2,0,1,19,7,-1,-2,0.167631222
19.251703,-8,-3,-3,-5,-7,2,2,9,0.167631222
19.251724,10,8,-1,1,-3,-2,0,-4,0.167631222
19.273028,-4,-17,-2,-3,-6,-4,-3,12,0.162042924
19.273056,16,7,-1,0,-3,-3,-3,-2,0.162042924
19.275229,-19,-21,-1,-3,-4,-3,-2,-5,0.162042924
19.275237,0,-13,-7,2,-4,0,-3,1,0.162042924
19.287651,21,22,2,-1,7,0,2,-4,0.162042924
19.287695,-11,-18,-2,6,-5,-3,-1,1,0.162042924
19.294035,1,9,0,-5,-2,-1,0,5,0.162042924
19.294058,-7,2,2,0,-7,-4,-1,-4,0.162042924
19.312285,-5,-7,-3,-3,4,2,-3,-5,0.162042924
19.312305,4,13,1,-2,4,-2,-2,-1,0.162042924
19.312312,-1,5,0,3,-3,-2,-1,-5,0.162042924
19.312317,4,-6,2,-2,0,-1,-1,3,0.162042924
19.332659,0,26,3,5,-17,-2,0,-3,0.162042924
19.332694,-18,-31,-6,-12,9,1,-3,-4,0.162042924
19.335170,13,9,-1,-2,-17,-5,-1,-1,0.162042924
19.335179,-17,-10,-1,-1,14,4,-1,-2,0.162042924
19.355158,-3,-3,-3,1,6,0,1,0,0.162042924
19.355191,6,10,3,2,-11,-2,0,0,0.162042924
19.358242,-1,3,-1,2,1,-5,-3,5,0.162042924
19.358249,21,17,4,0,-10,-1,-1,-8,0.162042924
19.369717,-22,-30,-6,-4,7,-1,-1,-4,0.162042924
19.369750,-11,2,5,4,-3,3,0,3,0.162042924
19.378125,27,30,1,-1,5,-1,-1,1,0.162042924
19.378150,-51,-51,-4,0,-20,-3,-3,-3,0.162042924
19.393063,-7,-15,-5,0,1,0,1,-4,0.162042924
19.393092,5,3,-1,-6,-4,-4,1,-1,0.162042924
19.395969,-4,8,1,4,10,-1,-2,-1,0.162042924
19.395981,16,7,0,-1,0,-2,0,1,0.162042924
19.415118,11,2,4,-2,2,-5,-2,-5,0.162042924
19.415150,-9,2,-4,0,-7,6,0,3,0.162042924
19.418561,-6,-28,-5,-4,12,2,-2,-6,0.162042924
19.418572,-5,3,-1,-5,-15,-5,0,-6,0.162042924
19.430424,9,-1,-1,1,19,4,-1,1,0.162042924
19.432718,-5,7,-1,-4,-9,-5,-4,-3,0.162042924
19.432727,16,6,2,2,15,2,-1,-1,0.162042924
19.432730,-1,4,2,-1,-6,-1,0,2,0.162042924
19.452607,-13,0,-3,0,-12,-2,-1,1,0.162042924
19.452619,6,27,2,-2,6,3,-1,-1,0.162042924
19.454049,-7,-55,-5,2,-7,-3,0,0,0.162042924
19.454058,-23,-7,-5,-3,-3,-4,-7,-16,0.162042924
19.475318,23,23,2,0,-3,-1,0,7,0.162042924
19.475349,-10,-15,-4,1,3,-2,-1,-1,0.162042924
19.478074,1,12,-1,-7,-6,-3,-1,1,0.162042924
19.478088,14,5,0,1,13,3,1,7,0.162042924
19.490332,3,4,0,-4,-2,0,0,-4,0.162042924
19.490355,-11,0,0,-4,-14,-2,-2,1,0.162042924
19.492174,-10,10,1,-1,11,1,-1,-9,0.162042924
19.492187,8,-5,-3,-4,-10,0,0,8,0.162042924
19.514523,-19,-4,2,2,2,1,-2,0,0.162042924
19.514530,2,-5,1,5,0,0,1,-5,0.162042924
19.514577,2,3,0,-9,-8,-6,-1,2,0.162042924
19.514579,13,32,2,6,8,-2,-1,5,0.162042924
19.526992,-22,-39,-3,-3,-13,-2,-1,-7,0.162042924
19.527020,5,-11,-5,-6,7,-1,-2,0,0.162042924
19.535357,-12,10,-2,0,-10,0,-2,-10,0.161740979
19.535438,1,4,-1,-3,10,0,-3,4,0.161740979
19.550762,7,-3,-2,2,1,-4,1,0,0.161740979
19.550794,9,7,4,6,-4,-3,-3,-11,0.161740979
19.552652,4,-3,-1,-3,1,0,-1,1,0.161740979
19.552659,-18,-10,3,1,-1,1,0,-2,0.161740979
19.573244,7,-6,-5,-1,-5,-5,-6,-4,0.161740979
19.573270,-28,-9,-2,-4,-13,-3,-3,-5,0.161740979
19.575932,10,26,2,-2,7,3,-1,-1,0.161740979
19.575940,-25,-41,-2,-4,-8,-3,-1,-3,0.161740979
19.586718,-1,1,2,1,-2,0,0,2,0.161740979
19.586750,16,12,-2,4,12,0,1,7,0.161740979
19.595908,-5,-1,1,2,-3,0,-1,-2,0.161740979
19.595917,-3,-7,-5,-6,-3,-1,0,-3,0.161740979
19.610245,0,14,0,-4,-1,0,-1,0,0.161740979
19.610259,11,-11,-2,-2,-2,-4,-1,3,0.161740979
19.611739,-13,6,1,1,-17,1,-2,-5,0.161740979
19.611768,20,8,1,1,12,5,1,7,0.161740979
19.633024,-2,-3,-2,-3,-4,1,-4,-4,0.161740979
19.633056,-7,5,-2,-9,-1,-2,-2,-4,0.161740979
19.635219,-14,-22,1,10,0,-8,-1,0,0.161740979
19.635226,11,7,0,-2,-2,2,0,2,0.161740979
19.654963,8,10,0,-2,2,4,0,-2,0.161740979
19.654972,-1,-14,-2,0,2,-2,-1,-3,0.161740979
19.654975,-30,-9,-5,-12,3,-1,-1,-2,0.161740979
19.655022,5,5,-2,6,-3,-4,-1,-1,0.161740979
19.669354,-1,9,3,6,1,-1,-1,1,0.161740979
19.669370,12,17,1,-4,1,1,-1,-1,0.161740979
19.670140,-8,-34,-6,-2,-8,-2,-1,2,0.161740979
19.670147,9,24,-3,-4,-2,-3,-2,-1,0.161740979
19.692251,-9,-8,1,0,-1,1,1,0,0.161740979
19.692283,15,0,0,0,-15,-7,1,1,0.161740979
19.695268,-13,5,1,-2,15,4,-1,-3,0.161740979
19.695282,-15,-1,0,0,2,2,-2,-6,0.161740979
19.714283,14,9,-3,1,2,0,0,6,0.161740979
19.714300,-2,-11,-4,0,-1,0,0,-2,0.161740979
19.716735,7,17,2,0,-1,-11,-1,-2,0.161740979
19.716746,0,-4,2,-1,-12,4,0,-6,0.161740979
19.729540,-22,5,-2,-5,7,5,0,0,0.161740979
19.729568,17,-1,5,5,-2,-1,1,2,0.161740979
19.731727,19,-7,-3,0,1,1,-1,-1,0.161740979
19.731740,-43,-14,-3,-1,-1,-6,-4,-3,0.161740979
19.751865,-8,-21,0,1,-1,-5,-3,-8,0.161740979
19.751883,2,5,-4,-2,-5,2,1,6,0.161740979
19.752515,18,30,4,-2,4,2,0,3,0.161740979
19.752530,-23,-26,-2,6,-2,-1,4,1,0.161740979
19.782549,4,-10,-3,-4,-7,-4,-1,-2,0.161740979
19.782569,2,-4,-1,-4,-5,-5,-3,1,0.161740979
19.783338,16,9,-1,-1,-1,6,1,0,0.161740979
19.783361,14,15,-3,-5,0,-1,-1,4,0.161740979
19.789458,-11,-6,0,0,5,-5,-1,1,0.162786532
19.789491,-4,13,3,-2,-11,2,0,0,0.162786532
19.790886,-26,-22,-6,-7,19,5,-2,-8,0.162786532
19.790897,32,-3,1,5,-3,-5,0,1,0.162786532
19.811980,-15,3,0,4,12,1,0,-2,0.162786532
19.812001,-7,-20,1,-1,5,2,-3,-6,0.162786532
19.812673,31,1,-2,-3,-6,-8,-4,6,0.162786532
19.812712,-22,-5,-4,-2,1,-1,-1,-3,0.162786532
19.834790,23,19,-1,-1,-4,-1,0,2,0.162786532
19.834822,-15,0,-1,0,4,-5,-2,-3,0.162786532
19.836925,-1,-16,-4,-5,-8,-4,-1,2,0.162786532
19.836938,13,6,3,-3,-2,-3,-2,-2,0.162786532
19.849788,14,8,-2,0,-14,-2,0,2,0.162786532
19.849821,-36,-4,-3,7,11,1,0,-4,0.162786532
19.852978,20,11,4,10,-9,-1,0,2,0.162786532
19.852986,-13,-7,1,-5,16,-2,-1,-2,0.162786532
19.872012,8,-14,-5,-5,-4,5,1,0,0.162786532
19.872022,-37,-22,-6,-5,2,1,-2,-6,0.162786532
19.872632,23,13,-1,3,-8,-3,1,1,0.162786532
19.872711,8,10,-2,1,9,2,0,2,0.162786532
19.894504,-5,2,0,-1,-11,-3,-3,-2,0.162786532
19.894526,-15,-21,-3,-2,2,-1,1,-5,0.162786532
19.896086,-11,3,0,0,-9,-1,-1,6,0.162786532
19.896099,18,-1,-5,0,-7,-3,-3,-1,0.162786532
19.909692,-10,-8,1,2,5,-2,-2,-2,0.162786532
19.911782,20,22,-1,-2,1,-2,-2,0,0.162786532
19.911796,-7,-9,-2,-1,-4,-2,2,-3,0.162786532
19.911799,-1,1,1,-1,-9,1,-1,-4,0.162786532
19.933283,-7,8,1,-2,-26,-10,-1,0,0.162786532
19.933293,22,7,1,5,21,9,-2,3,0.162786532
19.933296,-16,-8,-9,-7,-6,-1,-2,-4,0.162786532
19.933298,2,0,2,0,6,1,-1,-1,0.162786532
19.964712,-2,-2,-1,-1,0,-1,-2,-1,0.162786532
19.964723,28,27,-2,-2,-11,-5,2,4,0.162786532
19.964726,-29,-41,-1,3,6,-1,-3,-7,0.162786532
19.964729,5,10,-1,-1,-2,1,-1,0,0.162786532
19.969635,-17,-8,0,-5,-6,-3,0,-3,0.162786532
19.969659,7,-3,-4,-1,15,4,0,-3,0.162786532
19.971741,-5,27,0,-5,-1,-1,-3,-4,0.162786532
19.971756,-21,-25,-4,1,-10,-6,0,11,0.162786532
19.992543,4,-8,-2,0,9,1,-1,2,0.162786532
19.992570,7,2,-2,-4,-7,-4,-1,-2,0.162786532
19.995010,-7,5,1,4,-1,-1,-1,-4,0.162786532
19.995027,23,8,0,-1,1,-1,-2,-4,0.162786532
20.014441,-16,-5,-2,-2,-5,-9,-2,1,0.162786532
20.014501,19,8,-1,0,-13,7,-4,-2,0.162786532
20.015102,-29,-26,-4,-6,-5,1,1,-1,0.162786532
20.015136,24,11,2,-1,2,0,-1,-1,0.162786532
