timestamp,emg1,emg2,emg3,emg4,emg5,emg6,emg7,emg8,label
10.011688,-52,21,-1,-32,-32,-48,-24,-28,2.773102931
10.011776,22,3,2,-24,9,-104,-36,-47,2.773102931
10.013479,-5,-11,-3,53,39,77,-7,18,2.773102931
10.013488,22,-20,-6,-14,-14,7,52,2,2.773102931
10.034101,-64,15,0,-14,68,-46,-21,-44,2.773102931
10.034124,11,-14,2,25,12,-43,-11,13,2.773102931
10.035641,-12,76,19,-20,-52,-25,3,-16,2.773102931
10.035652,-29,-95,-33,7,91,60,-33,-13,2.773102931
10.048519,55,25,4,-9,-47,26,4,76,2.773102931
10.048543,-35,-47,5,7,-24,-32,1,12,2.773102931
10.056084,38,74,7,18,-48,-24,19,40,2.773102931
10.056116,56,-60,-10,-21,-62,-19,-23,-29,2.773102931
10.071934,-23,21,-4,-13,17,24,8,-84,2.773102931
10.071964,-23,14,0,20,55,7,0,34,2.773102931
10.073976,-7,10,5,-19,-31,12,26,15,2.773102931
10.073983,-3,-12,4,-20,-96,-51,-41,-24,2.773102931
10.094416,-10,-5,5,80,112,21,-2,-20,2.773102931
10.096314,69,-46,-20,-19,-104,55,10,-39,2.773102931
10.096326,-28,-32,-22,-33,-46,17,-18,-38,2.773102931
10.096328,-11,35,9,40,64,44,-17,22,2.773102931
10.108806,-2,-1,-2,-52,-51,-18,23,12,2.773102931
10.108837,-63,-9,5,-24,3,6,3,-40,2.773102931
10.115344,-42,21,7,15,127,-28,9,-30,2.773102931
10.115407,-61,-80,-22,-5,-49,-44,-9,-7,2.773102931
10.131553,25,-5,3,13,15,71,-26,30,2.773102931
10.131569,8,26,7,12,15,-11,2,5,2.773102931
10.133116,-26,38,-3,-25,-17,26,11,-40,2.773102931
10.133138,-15,-7,-7,-9,50,-35,-50,-20,2.773102931
10.154231,-33,-8,4,26,-4,36,42,66,2.773102931
10.154263,-7,-12,-4,-22,-28,-41,-18,-8,2.773102931
10.155580,-48,26,12,43,12,49,-6,-14,2.773102931
10.155587,98,-43,-19,19,52,-63,-49,-19,2.773102931
10.169652,8,-4,6,-32,-121,-102,15,3,2.773102931
10.169676,-18,17,-4,11,106,74,11,-21,2.773102931
10.175256,-3,-19,2,-17,-89,-59,11,43,2.773102931
10.175276,-28,58,10,-38,-122,-61,3,9,2.773102931
10.191662,-16,-54,-12,23,70,17,12,-50,2.773102931
10.191685,-56,-19,3,-4,-83,28,8,-49,2.773102931
10.193262,32,-31,-1,3,-15,18,31,-1,2.773102931
10.193288,12,21,6,-5,-29,20,17,-18,2.773102931
10.214024,-25,85,3,-23,-25,-22,-45,-12,2.773102931
10.214042,-35,-48,-17,6,29,5,-22,4,2.773102931
10.216208,66,-68,-19,-3,26,-6,-19,-18,2.773102931
10.216228,17,34,10,2,-27,17,34,-12,2.773102931
10.228525,-48,14,10,2,-86,42,31,78,2.815781302
10.228542,-17,37,6,64,71,-46,-9,41,2.815781302
10.235539,8,-89,-10,-24,-98,-60,-61,-29,2.815781302
10.235568,-16,50,10,32,127,3,22,5,2.815781302
10.251601,-30,-13,-1,22,119,4,-6,-18,2.815781302
10.253313,57,28,-1,-54,-22,86,-14,24,2.815781302
10.253319,52,-6,-16,-2,-35,-96,18,28,2.815781302
10.253321,-15,27,-2,-13,64,32,-9,36,2.815781302
10.274166,31,36,13,-6,-66,-37,13,24,2.815781302
10.274192,-28,-84,-20,2,-69,-66,-38,-3,2.815781302
10.275910,-25,5,3,-8,38,64,14,13,2.815781302
10.276009,8,-25,-3,-2,-48,4,7,7,2.815781302
10.287675,8,-23,-3,-3,5,-2,14,-29,2.815781302
10.287686,30,52,10,-3,18,-26,12,6,2.815781302
10.297755,-48,20,3,1,-3,-22,-13,-1,2.815781302
10.297767,66,-32,-15,-46,-75,25,18,0,2.815781302
10.311731,-21,-14,-8,28,34,-31,-18,-79,2.815781302
10.311748,17,62,14,31,36,-8,11,62,2.815781302
10.313523,11,-17,4,52,11,71,31,8,2.815781302
10.313534,-79,3,5,-12,108,-104,-25,3,2.815781302
10.334089,-43,47,-15,-73,-104,82,-26,10,2.815781302
10.334103,53,-65,-13,7,20,-13,-4,-16,2.815781302
10.335582,-7,17,1,10,-47,-29,26,-2,2.815781302
10.335598,-3,39,10,13,-98,-55,25,46,2.815781302
10.348219,-77,-64,-4,11,35,-6,-37,-46,2.815781302
10.348228,74,15,1,-9,10,-41,-4,23,2.815781302
10.357772,-20,-8,-3,-10,25,2,-17,-6,2.815781302
10.357779,-12,2,-2,21,-12,40,8,21,2.815781302
10.371761,4,-4,2,-21,28,-5,-1,-55,2.815781302
10.371793,-9,26,9,-3,-127,-33,11,-1,2.815781302
10.373099,4,-13,3,-6,117,56,-8,10,2.815781302
10.373105,-68,29,6,9,67,19,6,-22,2.815781302
10.395244,69,-47,-10,9,-17,64,13,23,2.815781302
10.395256,-12,5,-3,-22,-42,38,-19,-30,2.815781302
10.395737,0,37,5,36,110,-113,6,34,2.815781302
10.395752,27,8,2,-44,12,87,-1,32,2.815781302
10.410968,17,-18,-8,-22,-48,-8,-10,25,2.815781302
10.410984,-27,0,-4,-7,25,54,29,4,2.815781302
10.417373,44,10,-4,-7,18,-32,-34,-76,2.815781302
10.417383,-31,46,6,24,-18,-7,19,-55,2.815781302
10.431581,96,7,0,9,8,-48,29,30,2.815781302
10.431598,30,-23,-13,-23,38,48,-10,-9,2.815781302
10.433161,28,-6,-1,-12,-67,-21,-16,-1,2.815781302
10.433477,13,-9,0,23,-25,13,-6,54,2.815781302
10.454204,8,-1,6,-5,-16,9,17,27,2.815781302
10.456291,-47,33,10,18,-69,-68,11,-14,2.815781302
10.456299,-72,-51,-8,3,75,82,-13,-3,2.815781302
10.456302,101,-3,-15,3,-84,-5,-65,-29,2.815781302
10.467983,-45,-16,7,-7,37,-67,30,69,2.815781302
10.471320,21,-11,7,-19,-84,-3,12,33,2.815781302
10.478796,-74,10,-7,-19,67,93,1,-10,2.815781302
10.478808,42,7,-1,31,108,44,9,-41,2.815781302
10.492045,-3,-2,-11,-16,-32,25,-1,2,2.799958305
10.492072,-8,22,12,27,50,-49,-4,-40,2.799958305
10.493900,10,14,-1,-32,-84,-23,-16,103,2.799958305
10.493913,20,-24,-12,-15,-33,-58,-5,-38,2.799958305
10.514142,1,29,3,11,17,-3,2,0,2.799958305
10.514201,27,6,-3,10,102,2,-11,73,2.799958305
10.515944,79,39,4,-2,-49,-18,-12,-62,2.799958305
10.515956,-97,-65,-6,-15,38,-5,-1,18,2.799958305
10.527852,10,5,3,14,56,11,17,21,2.799958305
10.527871,19,-6,-2,-29,-89,-5,-17,39,2.799958305
10.537728,17,-14,-5,-27,65,-95,-10,-41,2.799958305
10.537734,12,61,12,58,105,63,45,36,2.799958305
10.551637,-7,-14,-4,-40,-70,47,-5,-56,2.799958305
10.551655,-25,12,6,38,18,0,17,-32,2.799958305
10.553064,25,9,18,-2,-95,-76,5,41,2.799958305
10.553081,1,-9,-9,-27,-4,58,-5,-27,2.799958305
10.574509,-72,17,-12,-7,-29,-46,-67,-80,2.799958305
10.574540,29,-26,-15,-16,-14,-18,7,21,2.799958305
10.577118,56,-23,-1,14,-19,3,-25,29,2.799958305
10.577131,10,-10,6,4,-36,-21,44,17,2.799958305
10.587748,-41,7,15,19,13,26,12,17,2.799958305
10.587765,-70,10,-5,-13,-7,-10,3,-29,2.799958305
10.597997,72,-11,-15,27,66,-14,-13,-14,2.799958305
10.598008,28,-13,1,2,5,-51,-42,-57,2.799958305
10.613486,30,-22,4,-14,-74,109,15,64,2.799958305
10.613498,18,34,3,46,127,-86,-27,-40,2.799958305
10.613501,-63,-18,1,-30,74,23,32,11,2.799958305
10.613504,4,-4,-1,-33,-128,51,-17,25,2.799958305
10.634523,55,34,0,58,73,-81,8,3,2.799958305
10.634574,-39,-36,-1,-17,-14,20,-14,-5,2.799958305
10.637096,-66,-19,-11,-11,-107,-32,-20,-27,2.799958305
10.637102,0,-18,1,-11,0,-23,3,23,2.799958305
10.657276,-20,6,2,0,4,-28,17,-37,2.799958305
10.657307,39,24,-2,-13,-8,40,5,102,2.799958305
10.659517,-33,5,4,4,-11,-12,11,-62,2.799958305
10.659530,-33,-24,-6,-9,-25,-7,-36,18,2.799958305
10.672280,27,13,-7,-7,72,-21,11,-100,2.799958305
10.672312,-51,30,5,2,-80,-12,-27,-6,2.799958305
10.674089,24,-34,-2,27,20,-50,27,9,2.799958305
10.674101,-11,3,-4,-14,42,-17,24,2,2.799958305
10.694335,5,-11,-1,25,-34,-24,-18,53,2.799958305
10.694353,3,46,9,-36,14,-55,-2,-39,2.799958305
10.695794,-61,-50,-17,15,37,126,-46,28,2.799958305
10.695811,37,16,2,-5,-83,-81,24,-10,2.799958305
10.716672,7,-1,-6,-10,-20,-60,-25,22,2.799958305
10.716689,-26,-5,-6,-27,76,84,17,-54,2.799958305
10.718130,-30,-19,8,17,-41,22,2,50,2.799958305
10.718139,-26,1,-1,0,-9,-14,-13,-2,2.799958305
10.731879,59,-3,-10,-10,-4,-1,-17,80,2.799958305
10.734670,-9,-19,4,18,57,10,7,-58,2.799958305
10.734682,35,39,2,-11,-38,-15,3,-6,2.799958305
10.734685,2,1,8,17,4,-7,17,108,2.799958305
10.754217,2,10,5,-9,-99,-72,-14,-45,2.809607134
10.754262,-87,-34,-2,8,1,-12,32,-7,2.809607134
10.755998,86,-26,-14,-39,-24,47,-4,4,2.809607134
10.756023,40,12,4,64,65,-11,14,-18,2.809607134
10.777171,-20,-19,9,-35,-11,-6,-13,1,2.809607134
10.777204,35,23,-2,-41,-58,79,8,-18,2.809607134
10.779846,-78,60,21,43,-14,-103,72,58,2.809607134
10.779858,73,9,-18,-15,8,125,-25,-55,2.809607134
10.791962,-15,-25,-17,7,68,3,24,-2,2.809607134
10.791993,49,-75,-3,13,2,-1,-4,25,2.809607134
10.794671,-21,7,0,-44,-80,-27,0,-31,2.809607134
10.794685,-30,35,6,-8,2,-57,-35,-56,2.809607134
10.814173,-4,-18,1,7,-40,35,10,-5,2.809607134
10.814190,-70,40,-5,4,-58,-38,-24,7,2.809607134
10.815749,-74,-13,9,4,42,58,39,-4,2.809607134
10.815768,28,-91,-21,4,-30,-65,-43,-35,2.809607134
10.836638,3,23,-4,-16,57,24,5,-17,2.809607134
10.836655,9,11,6,29,-36,-47,18,21,2.809607134
10.839605,-6,-6,3,-3,-65,-2,-25,-32,2.809607134
10.839610,-69,22,9,-51,67,30,2,37,2.809607134
10.851064,-12,-28,-11,34,98,113,18,-10,2.809607134
10.851096,47,9,-4,26,13,-50,-31,21,2.809607134
10.858361,25,36,-3,8,-34,-63,9,-4,2.809607134
10.858399,-6,-13,0,-46,-64,-20,22,-34,2.809607134
10.876077,-4,2,1,13,-18,-96,-76,-9,2.809607134
10.876090,-61,-1,-6,-8,73,111,41,-3,2.809607134
10.876093,14,-3,-4,2,33,25,-27,30,2.809607134
10.876095,-61,-6,-2,1,-77,-49,39,19,2.809607134
10.896688,0,28,-3,-14,-29,-36,-10,-49,2.809607134
10.896706,-8,33,9,3,-11,-21,0,28,2.809607134
10.898373,-5,-27,0,0,17,10,-29,-26,2.809607134
10.898392,38,15,5,-4,-35,9,17,33,2.809607134
10.911233,-13,-12,7,26,24,-60,15,-14,2.809607134
10.911257,31,45,-2,10,92,26,-9,-8,2.809607134
10.917816,84,-14,-1,3,-28,-26,34,-6,2.809607134
10.917834,19,29,6,24,76,-13,-14,-2,2.809607134
10.934643,5,-2,6,-37,-65,-72,-7,0,2.809607134
10.934671,66,23,8,-3,35,17,-17,36,2.809607134
10.935664,17,-29,-27,-29,127,-58,-28,-68,2.809607134
10.935758,-5,-15,-2,9,10,-21,47,52,2.809607134
10.957062,-24,16,9,40,73,44,34,34,2.809607134
10.957088,91,-37,-8,2,-38,-61,-18,-73,2.809607134
10.958273,0,23,-3,-37,-71,9,-23,10,2.809607134
10.958294,-88,-9,-5,-2,-47,2,-21,-74,2.809607134
10.971168,-61,-38,4,6,-2,47,16,26,2.809607134
10.971190,59,-36,-5,-12,-116,-13,8,-68,2.809607134
10.978009,1,-32,-14,-14,75,53,8,11,2.809607134
10.978027,-43,3,3,29,55,-84,-67,-15,2.809607134
10.994674,-6,37,5,-7,-16,-12,6,28,2.809607134
10.996543,-35,-12,8,-15,6,-30,-8,-5,2.789408141
10.996555,-62,-44,-3,26,52,96,26,-10,2.789408141
10.996560,15,-2,9,21,3,90,16,31,2.789408141
11.016634,47,21,-1,-15,49,1,11,62,2.789408141
11.016679,-63,-49,-12,-1,-7,-37,-18,-54,2.789408141
11.018151,-87,77,10,8,66,18,-15,-6,2.789408141
11.018167,100,30,-4,-19,-6,20,8,35,2.789408141
11.031493,-5,4,-4,5,-64,42,10,-4,2.789408141
11.031501,16,-5,-7,3,-52,-67,-2,4,2.789408141
11.037913,10,-6,8,-19,-57,-1,11,23,2.789408141
11.037944,-27,-7,-13,8,95,-20,-11,-21,2.789408141
11.054913,-26,29,12,17,-23,38,9,-32,2.789408141
11.054945,64,4,4,23,-43,19,-3,27,2.789408141
11.056366,-74,-1,-5,-35,-44,-122,-24,-27,2.789408141
11.056373,58,-24,-14,-25,48,64,5,-4,2.789408141
11.077244,21,-25,0,3,-35,-26,-15,-23,2.789408141
11.077281,-41,-7,-4,-18,-57,-68,16,50,2.789408141
11.079364,76,38,6,12,19,72,13,-11,2.789408141
11.079377,-118,-53,0,-3,-82,-29,11,-13,2.789408141
11.091565,48,-46,-8,-4,-8,-33,-16,-26,2.789408141
11.091608,-71,-72,-11,-12,85,-6,-16,40,2.789408141
11.097779,84,31,7,21,-42,0,33,11,2.789408141
11.097796,-84,50,10,-16,-106,-8,2,-45,2.789408141
11.114112,70,-19,-16,17,70,-46,-19,19,2.789408141
11.114138,-8,12,-1,-66,-128,108,9,34,2.789408141
11.115808,63,12,-6,47,70,-86,-19,10,2.789408141
11.115828,-28,39,8,-21,127,102,-1,4,2.789408141
11.137004,-75,-38,2,5,-5,57,12,12,2.789408141
11.138853,48,11,-4,20,8,10,4,-33,2.789408141
11.138865,-128,-81,-9,7,76,-55,9,-5,2.789408141
11.138871,85,23,1,-10,-67,-50,-1,12,2.789408141
11.151100,-34,12,-2,-40,-54,-28,-11,-25,2.789408141
11.152519,-97,-41,-5,32,55,8,-9,-11,2.789408141
11.157783,46,46,6,0,2,23,21,19,2.789408141
11.157799,53,-51,-12,18,-65,-64,-39,30,2.789408141
11.174153,-49,-4,-4,-6,-36,7,16,58,2.789408141
11.174191,-98,32,4,-19,38,-28,-16,-24,2.789408141
11.175634,102,43,9,23,-81,38,-10,-28,2.789408141
11.175648,-4,-9,4,12,95,41,6,33,2.789408141
11.196864,25,-11,-10,-29,-81,19,-28,-22,2.789408141
11.196881,78,14,2,11,99,-101,4,77,2.789408141
11.198322,-8,11,-3,-65,-128,55,-11,-7,2.789408141
11.198330,-26,21,9,109,67,-6,5,30,2.789408141
11.210406,31,8,-3,-13,-42,-81,18,-9,2.789408141
11.210426,-3,4,7,-5,-19,44,18,-21,2.789408141
11.219286,9,-14,-4,-18,-112,-1,-1,33,2.789408141
11.219314,-37,16,5,3,-18,-26,-6,-28,2.789408141
11.235450,1,62,4,12,43,8,-6,8,2.789408141
11.235460,11,-20,-6,-7,-43,13,17,-4,2.789408141
11.235706,-61,-39,-14,10,127,-10,-8,-6,2.789408141
11.235713,14,0,0,-38,-83,-12,18,40,2.789408141
11.256759,14,11,10,22,1,2,36,16,2.779745792
11.258509,20,20,15,10,-104,24,-1,50,2.779745792
11.258516,-13,-4,-8,33,70,-30,-74,-50,2.779745792
11.258518,-44,-16,0,5,-97,20,26,19,2.779745792
11.270528,-14,2,-10,-74,86,-47,-24,-25,2.779745792
11.270540,56,10,11,63,25,-19,34,78,2.779745792
11.280886,2,-18,-8,-29,-73,-66,0,-26,2.779745792
11.280902,3,-5,-7,-13,-53,-20,-5,-28,2.779745792
11.294273,-35,-10,3,7,-44,41,-10,-11,2.779745792
11.294295,20,3,-5,-9,8,0,7,2,2.779745792
11.296479,23,8,8,4,29,29,17,13,2.779745792
11.296491,16,29,-4,-6,37,-42,2,15,2.779745792
11.316762,60,-14,3,15,5,39,-8,-28,2.779745792
11.316786,-38,18,5,-31,-36,5,13,3,2.779745792
11.318345,-55,-98,-20,24,76,-7,13,3,2.779745792
11.318351,-6,6,-9,-21,-73,24,-15,-46,2.779745792
11.330390,4,-11,1,38,116,-48,-16,-48,2.779745792
11.330403,-9,5,-1,8,-68,93,35,41,2.779745792
11.339961,-14,55,9,-25,63,-31,22,33,2.779745792
11.339968,58,-3,12,-50,-76,11,-6,28,2.779745792
11.354641,-18,-37,-29,-4,45,30,-28,-19,2.779745792
11.354673,26,-17,-4,10,73,-67,-17,-58,2.779745792
11.356554,-7,33,16,11,-24,-58,-2,14,2.779745792
11.356560,-10,-4,-2,3,-11,5,33,24,2.779745792
11.384385,-25,2,5,1,-29,30,-15,-31,2.779745792
11.384416,45,-37,-3,-23,-26,-51,-4,-40,2.779745792
11.385991,-3,3,-1,3,-18,28,-5,7,2.779745792
11.385997,-2,20,-4,-20,57,-28,-34,-55,2.779745792
11.390336,-6,-24,-1,19,19,-31,44,69,2.779745792
11.390355,-114,-36,-3,-9,-31,22,-5,-29,2.779745792
11.400251,119,23,-17,3,42,4,-28,-54,2.779745792
11.400263,39,-64,1,-10,-43,52,15,-61,2.779745792
11.414154,-51,29,0,-9,42,-18,-10,38,2.779745792
11.414172,-68,-23,-3,-3,-34,-55,-8,-46,2.779745792
11.416278,-6,-21,-6,2,39,24,-23,-7,2.779745792
11.416291,7,-2,-7,-11,42,56,29,-2,2.779745792
11.436758,-17,-13,-3,-20,-28,-17,-1,-13,2.779745792
11.436769,-55,34,-3,5,-8,-3,-22,2,2.779745792
11.438147,-17,18,14,3,-54,-78,7,-3,2.779745792
11.438200,-33,29,1,5,68,-31,-16,-70,2.779745792
11.450328,-6,4,6,2,-27,41,15,65,2.779745792
11.450352,25,12,2,14,12,-11,-13,38,2.779745792
11.460998,-12,-17,-3,-20,-63,4,-7,10,2.779745792
11.461012,1,8,3,20,35,-3,16,-14,2.779745792
11.474939,42,-2,-2,-19,-41,61,6,17,2.779745792
11.474963,-66,43,-2,16,88,-120,-42,-24,2.779745792
11.477304,47,-16,-11,-76,-80,82,50,-10,2.779745792
11.477318,41,-32,6,80,-15,-39,3,47,2.779745792
11.496853,13,-1,-3,-17,38,-37,-8,-4,2.779745792
11.496872,10,-10,-6,11,42,18,-11,15,2.779745792
11.498846,-20,-21,14,-16,-87,-55,36,31,2.779745792
11.498855,-56,31,-1,14,-46,-105,-33,-42,2.779745792
11.510654,4,-8,-12,-12,-2,51,-18,-41,2.765072005
11.510722,120,11,0,-3,-31,14,-64,43,2.765072005
11.521439,25,7,0,15,19,7,-24,5,2.765072005
11.521446,-62,-27,3,1,32,-29,11,-44,2.765072005
11.534256,-54,33,6,15,-95,-60,5,-14,2.765072005
11.534286,-7,-81,-21,-26,51,39,-4,-68,2.765072005
11.535732,-3,-38,-2,19,-20,18,-2,-27,2.765072005
11.535749,33,48,9,4,4,-20,-3,42,2.765072005
11.556634,-83,-39,-5,-15,-52,-22,4,-9,2.765072005
11.559270,21,50,3,-23,9,30,22,-11,2.765072005
11.559289,65,-16,0,62,-36,6,40,5,2.765072005
11.559295,-2,30,-4,-66,11,-86,-49,16,2.765072005
11.570412,-24,-13,-10,12,95,114,14,-11,2.765072005
11.572931,80,86,27,33,25,-64,11,18,2.765072005
11.580198,61,-22,-22,-11,-95,-81,-16,1,2.765072005
11.580207,-41,-6,-5,-23,127,68,2,34,2.765072005
11.594382,33,33,-2,-21,-44,-92,-11,-25,2.765072005
11.594399,-13,2,2,-19,-48,20,10,39,2.765072005
11.595958,-31,49,10,20,43,17,-10,-50,2.765072005
11.595977,-6,-23,1,7,-107,12,-4,17,2.765072005
11.617149,11,13,3,-2,-25,-31,-18,-29,2.765072005
11.617182,-9,-39,-10,6,12,26,18,-24,2.765072005
11.618541,-4,52,12,6,-18,4,5,67,2.765072005
11.618545,15,-7,-7,1,84,-7,3,-14,2.765072005
11.639213,42,-5,4,5,-103,-30,-6,9,2.765072005
11.639254,-25,-29,-4,-4,-86,0,25,29,2.765072005
11.640799,34,76,14,28,84,88,52,15,2.765072005
11.640833,-25,-99,-22,43,-16,-35,-14,-21,2.765072005
11.654295,54,18,6,-32,127,76,54,58,2.765072005
11.654357,-1,-33,-13,-8,-20,-75,-29,-56,2.765072005
11.656074,-80,14,2,-58,-82,20,-32,53,2.765072005
11.656198,-40,2,10,12,-6,-27,41,6,2.765072005
11.677044,-18,-1,2,46,0,30,15,7,2.765072005
11.677063,-81,-21,-9,-13,-28,-12,6,7,2.765072005
11.678879,14,-35,-2,-7,63,-48,-34,-108,2.765072005
11.678890,19,46,0,-20,-82,20,-13,30,2.765072005
11.699403,25,-31,-3,15,-23,-21,-15,28,2.765072005
11.699445,-18,21,7,-11,45,34,14,22,2.765072005
11.700840,-71,22,7,28,-53,-39,-22,-4,2.765072005
11.700891,26,-25,-9,-22,15,108,29,53,2.765072005
11.714293,-38,-48,-4,15,76,-105,-86,-27,2.765072005
11.714309,31,-5,-8,-6,9,20,12,-42,2.765072005
11.715803,3,0,4,-22,-78,8,-3,30,2.765072005
11.715841,21,-10,-12,-9,78,11,-1,-45,2.765072005
11.736705,-98,27,9,-37,-89,-14,28,30,2.765072005
11.738447,97,-4,-9,34,28,-34,-25,-10,2.765072005
11.738455,-4,-11,-8,-1,36,-89,-21,2,2.765072005
11.738457,-20,-9,11,-5,-59,19,0,9,2.765072005
11.761192,41,14,2,12,-15,-38,-21,28,2.765072005
11.761209,-20,-11,0,1,32,14,-1,28,2.765072005
11.761212,-34,26,7,26,19,43,15,-1,2.765072005
11.761215,-26,-2,-4,-52,29,-45,-9,34,2.765072005
11.776508,32,-41,-1,29,-89,-36,-3,-45,2.795627375
11.776521,-16,10,4,-6,90,91,0,-5,2.795627375
11.776525,31,6,-12,15,-56,5,-28,62,2.795627375
11.776527,26,-11,-11,-32,73,-18,-19,-20,2.795627375
11.796798,0,12,5,-7,-57,-8,-8,-53,2.795627375
11.796818,13,26,3,-24,-83,77,-5,19,2.795627375
11.798620,40,38,4,-34,-36,-28,36,-1,2.795627375
11.798628,99,-33,-23,40,-25,-81,-43,-63,2.795627375
11.819581,59,15,-10,-21,-8,63,37,-1,2.795627375
11.819612,-11,13,-6,-2,-24,-73,-28,-53,2.795627375
11.821986,-29,-3,2,1,29,25,5,8,2.795627375
11.822001,23,5,12,13,-54,7,6,2,2.795627375
11.833877,-77,-31,-7,-10,-16,-1,1,-61,2.795627375
11.833901,15,4,6,14,9,-15,15,66,2.795627375
11.840758,-27,-19,4,37,8,-56,-30,77,2.795627375
11.840786,-23,28,6,19,84,105,12,52,2.795627375
11.857351,-16,-12,-13,-20,-84,32,39,10,2.795627375
11.857382,40,-51,3,-2,29,6,19,-37,2.795627375
11.858722,-41,-19,-12,-27,39,-63,-29,-47,2.795627375
11.858728,65,31,11,-15,-116,55,16,47,2.795627375
11.879248,1,10,1,16,37,-56,-5,-14,2.795627375
11.879266,-85,-47,-18,-9,-17,-26,-17,-4,2.795627375
11.881295,58,1,-4,-3,19,6,-12,-50,2.795627375
11.881311,16,-32,-2,9,-31,-26,11,53,2.795627375
11.893697,68,27,9,7,28,17,-4,-19,2.795627375
11.893722,-17,39,8,3,-30,-13,12,28,2.795627375
11.908251,-19,-30,-4,-11,46,18,0,-88,2.795627375
11.908283,-66,-19,-11,-45,-42,-35,-10,-41,2.795627375
11.916871,14,21,7,53,117,10,-2,45,2.795627375
11.916894,33,29,11,50,-80,-44,18,22,2.795627375
11.918249,-110,-44,-12,-58,127,-6,-69,-65,2.795627375
11.918262,67,25,1,-8,-109,13,-35,77,2.795627375
11.939741,-3,-6,-1,13,122,-18,-9,29,2.795627375
11.939765,-42,17,-2,-25,-59,-1,-17,-48,2.795627375
11.941458,11,21,-4,9,81,78,16,23,2.795627375
11.941555,-102,-68,-1,-2,-24,-80,18,-35,2.795627375
11.953681,-50,-3,-4,27,-37,-81,-24,-11,2.795627375
11.953730,-60,64,7,-9,-47,-35,-30,-13,2.795627375
11.960795,96,-69,-20,-17,-41,30,11,-18,2.795627375
11.960815,-42,17,2,0,-12,-15,10,-32,2.795627375
11.977857,13,21,9,-3,-21,26,21,71,2.795627375
11.977870,-52,-11,-6,-15,-14,-1,12,-13,2.795627375
11.978410,-24,49,13,-4,44,8,34,75,2.795627375
11.978429,56,1,-3,21,24,-54,10,-68,2.795627375
11.999266,23,-17,-2,5,62,21,-22,-55,2.795627375
11.999285,6,-45,-26,-53,3,16,-6,-45,2.795627375
12.000723,-21,-5,11,48,32,35,56,71,2.795627375
12.000770,-8,38,14,10,-91,43,-18,-22,2.795627375
12.013655,-13,2,-9,-103,47,4,-22,0,2.795627375
12.013728,59,9,-2,37,80,23,25,-50,2.795627375
12.020392,-42,-3,6,13,-119,-10,-25,-13,2.800508120
12.021846,-25,22,3,-1,-33,-38,15,29,2.800508120
12.038598,-56,0,1,16,-59,6,-12,-8,2.800508120
12.038614,70,-16,0,-12,4,-1,2,29,2.800508120
12.038620,15,-10,3,-9,-46,-9,14,26,2.800508120
12.038625,-9,-16,4,34,99,28,4,19,2.800508120
12.059459,36,13,-4,-7,-26,5,-21,-14,2.800508120
12.059482,-86,-48,2,2,-46,-21,11,-10,2.800508120
12.061407,67,11,-6,9,63,-72,-10,-12,2.800508120
12.061419,-12,-20,-16,-12,64,-79,11,-33,2.800508120
12.073512,30,12,-6,6,62,76,4,-33,2.800508120
12.073524,41,35,3,-6,72,-82,21,82,2.800508120
12.080439,-4,-13,-2,-9,-10,41,-9,-17,2.800508120
12.080496,-6,-8,6,-10,-91,31,20,13,2.800508120
12.096866,-18,-18,3,2,47,-10,-47,16,2.800508120
12.096884,93,6,-5,-27,-67,-41,0,7,2.800508120
12.098328,-36,2,-5,29,41,84,6,-5,2.800508120
12.098334,39,28,0,1,-25,-20,-11,19,2.800508120
12.119198,-32,-12,3,-3,-67,16,7,-3,2.800508120
12.119215,-67,-6,6,7,-37,0,-14,-21,2.800508120
12.120682,-17,36,0,-7,-40,7,33,16,2.800508120
12.120715,62,-12,-6,13,96,31,8,-8,2.800508120
12.133551,-4,-29,-1,10,3,-63,1,-41,2.800508120
12.133568,6,-3,-5,-4,118,21,-8,-9,2.800508120
12.140981,3,38,4,-7,-88,-61,-14,-9,2.800508120
12.141012,31,8,1,-12,91,45,-2,-5,2.800508120
12.156688,-5,68,10,-5,-10,20,35,2,2.800508120
12.156706,-61,-67,-9,3,11,-82,-72,-46,2.800508120
12.158263,-47,-46,4,-18,-60,26,-9,-10,2.800508120
12.158270,-13,28,-4,31,31,-31,-16,-59,2.800508120
12.179338,33,16,-7,-44,-115,-19,-11,-31,2.800508120
12.179352,74,57,9,14,15,28,26,56,2.800508120
12.180918,-12,-19,-2,-11,-47,-36,-12,16,2.800508120
12.180937,-43,-25,5,17,-117,83,-7,18,2.800508120
12.195569,-28,5,5,63,102,-47,36,37,2.800508120
12.195583,55,19,3,-3,-70,22,3,11,2.800508120
12.203168,-30,-55,-3,-6,-14,-61,-12,-32,2.800508120
12.203175,-4,-4,-3,-15,25,89,29,-1,2.800508120
12.217099,24,-6,4,-16,-86,-58,0,13,2.800508120
12.217130,27,29,2,-1,-9,16,-28,4,2.800508120
12.219466,25,-18,-11,44,89,-18,39,-16,2.800508120
12.219473,-23,15,5,-58,-71,-54,-55,7,2.800508120
12.241951,-24,-50,-9,49,41,31,37,-1,2.800508120
12.241959,35,-18,-10,-22,-37,1,-38,-76,2.800508120
12.241962,-51,-7,-4,-49,18,-58,27,3,2.800508120
12.241965,67,6,-4,59,121,-4,-7,8,2.800508120
12.253553,28,-15,-1,-10,-30,49,1,36,2.800508120
12.253591,-5,78,9,21,-29,68,36,3,2.800508120
12.264017,53,4,0,-5,-128,-18,-25,-42,2.800508120
12.264029,-70,-13,1,3,43,-8,-22,-24,2.800508120
12.277153,34,34,2,-2,-23,25,15,-7,2.816732214
12.277180,-3,3,14,43,-1,-8,9,35,2.816732214
12.279571,33,1,-12,-45,71,-26,-1,-18,2.816732214
12.279584,-37,-10,-13,-39,-56,-42,-43,3,2.816732214
12.299197,37,25,5,36,39,26,-15,-53,2.816732214
12.299214,-25,-51,0,-10,-7,-86,30,-10,2.816732214
12.300856,-33,-43,7,30,92,75,-16,-27,2.816732214
12.300868,-1,11,-7,-17,-67,64,50,11,2.816732214
12.313160,11,-31,-13,-35,-104,-66,-53,-49,2.816732214
12.313178,7,-22,-15,-30,19,114,2,58,2.816732214
12.323768,-6,29,12,25,9,32,39,68,2.816732214
12.323775,-28,3,1,10,-72,-48,-2,-4,2.816732214
12.336730,5,7,0,-43,-60,-29,16,53,2.816732214
12.336766,-114,-39,7,11,38,11,-5,-62,2.816732214
12.338207,102,-3,-26,0,-21,-12,-30,-36,2.816732214
12.338225,-40,-29,-5,-26,-32,-15,-7,9,2.816732214
12.359898,30,-51,-8,-1,31,-13,20,17,2.816732214
12.359928,-4,8,10,31,112,-20,9,6,2.816732214
12.362714,-31,57,2,-42,-88,-24,-7,17,2.816732214
12.362727,23,1,13,70,10,-28,30,3,2.816732214
12.372961,-25,-10,1,52,1,33,-53,6,2.816732214
12.372978,-25,-1,-7,-68,101,-44,19,-12,2.816732214
12.382169,-20,6,-13,10,127,63,-6,45,2.816732214
12.382186,55,35,7,-23,-63,54,23,57,2.816732214
12.397826,-51,24,3,-8,-20,-66,-1,6,2.816732214
12.397839,9,-39,-13,16,-115,-3,7,25,2.816732214
12.398268,-22,-5,0,12,-64,-42,-31,-34,2.816732214
12.398278,17,0,4,-4,66,-51,-25,27,2.816732214
12.419301,-45,33,-1,-7,23,65,42,45,2.816732214
12.419318,-43,52,18,10,-27,-3,-9,-6,2.816732214
12.421704,27,-82,-29,-22,0,-32,-15,-43,2.816732214
12.421713,-81,-7,-5,-37,12,15,-11,-29,2.816732214
12.432983,19,9,10,73,105,-47,11,-21,2.816732214
12.433009,12,-7,-20,-31,12,58,-45,-7,2.816732214
12.443617,-25,19,18,30,35,-11,45,32,2.816732214
12.443687,24,18,14,-79,102,-32,-4,-3,2.816732214
12.464440,44,-6,-14,-23,-104,86,3,-33,2.816732214
12.464592,26,-41,-22,3,-83,-80,-37,-57,2.816732214
12.465771,-17,11,7,-15,-69,7,0,-28,2.816732214
12.465784,7,-14,-5,64,47,-8,-11,-12,2.816732214
12.479510,-37,-7,5,-40,63,-40,-16,16,2.816732214
12.479559,83,22,8,14,8,34,8,-47,2.816732214
12.480854,7,48,-1,-20,-62,17,8,-26,2.816732214
12.480874,-49,-71,2,33,-51,-57,-8,33,2.816732214
12.493595,47,-13,-7,-13,-5,8,7,7,2.816732214
12.493611,10,11,6,17,13,2,7,50,2.816732214
12.503296,7,31,14,0,-44,-80,-8,-21,2.816732214
12.503306,11,0,-21,19,-44,66,-10,-58,2.816732214
12.516804,-23,-1,-10,-10,38,39,5,-29,2.816732214
12.516861,16,-38,-7,-42,20,-22,-18,8,2.816732214
12.518259,32,52,15,33,-97,32,9,26,2.816732214
12.518270,-65,-17,0,-23,4,-19,14,13,2.816732214
12.541080,3,-6,-2,10,-16,-35,-6,-31,2.787781222
12.541087,-18,44,6,-10,-125,-124,-51,-14,2.787781222
12.541090,-10,-53,-32,8,119,99,-19,-38,2.787781222
12.541092,-41,-57,-14,-22,-74,-99,-20,-90,2.787781222
12.553309,11,20,-1,-25,-102,-55,22,21,2.787781222
12.553339,-90,-28,15,32,-45,28,24,-18,2.787781222
12.562172,4,11,0,-8,-10,-21,-9,70,2.787781222
12.562194,41,15,-2,-6,-11,-4,1,-13,2.787781222
12.577115,-28,16,-2,-1,35,-3,0,3,2.787781222
12.577141,-7,-16,2,9,17,50,27,43,2.787781222
12.578519,2,1,9,0,-3,6,-4,-37,2.787781222
12.578539,-36,37,6,25,47,19,16,-5,2.787781222
12.599500,40,-38,-10,-11,-37,-7,-10,11,2.787781222
12.599520,40,8,-5,-31,-49,11,2,-1,2.787781222
12.600812,3,-15,-4,50,114,23,6,-6,2.787781222
12.600847,58,46,9,-19,-116,-52,7,34,2.787781222
12.621842,-6,7,7,11,112,41,-18,16,2.787781222
12.621856,-9,-18,-15,-24,-15,22,9,-4,2.787781222
12.623245,-14,-5,5,24,-81,-121,-14,-22,2.787781222
12.623270,47,12,1,3,38,121,15,14,2.787781222
12.636897,40,-13,-2,-16,-33,-24,0,9,2.787781222
12.636920,18,0,-1,8,0,48,9,101,2.787781222
12.638246,11,15,9,-8,-35,-4,9,21,2.787781222
12.638260,57,1,-5,24,122,11,18,-16,2.787781222
12.659805,-19,-1,3,-33,-115,-55,-36,-67,2.787781222
12.659832,-23,39,13,13,80,-18,-4,43,2.787781222
12.661995,21,3,-1,-18,-92,-3,68,30,2.787781222
12.662008,-63,-64,-11,28,90,-57,-80,-3,2.787781222
12.683027,15,-9,-11,-16,49,21,-7,-15,2.787781222
12.683041,-7,-6,-2,9,-17,-40,-6,-64,2.787781222
12.683313,-16,-22,2,2,38,-57,-5,29,2.787781222
12.683341,-1,56,7,-63,14,17,17,11,2.787781222
12.696990,2,56,10,19,66,41,62,38,2.787781222
12.698565,-39,4,-1,30,-70,-69,-18,-7,2.787781222
12.698577,-86,-15,-10,-51,110,115,-12,10,2.787781222
12.698580,72,-4,-9,11,-95,-63,21,13,2.787781222
12.719288,-14,21,5,8,-65,-27,-35,20,2.787781222
12.719351,-46,-8,-2,2,57,23,44,5,2.787781222
12.721348,4,2,2,13,-62,4,-40,-1,2.787781222
12.721355,105,-27,-10,-12,-24,-24,-19,-51,2.787781222
12.741804,3,-7,-2,-8,-21,18,15,47,2.787781222
12.743403,37,4,1,12,42,82,23,-11,2.787781222
12.743413,-39,13,6,-19,-104,-66,-33,-62,2.787781222
12.743416,-121,-34,-4,-3,0,-27,39,54,2.787781222
12.756281,82,-19,-2,18,-1,-33,5,0,2.787781222
12.756326,42,-2,-3,-41,61,-63,-3,-15,2.787781222
12.770497,0,5,-10,42,37,84,25,21,2.787781222
12.771852,4,23,3,4,67,79,-30,-17,2.787781222
12.779253,-66,9,6,-20,-111,1,10,-1,2.787781222
12.779271,14,29,11,52,-10,-18,18,3,2.787781222
12.780806,22,-41,-5,-38,51,-27,-59,-26,2.787781222
12.780819,22,42,9,2,-88,2,23,43,2.787781222
12.801801,23,-22,-15,3,32,-1,-15,1,2.762827671
12.801821,45,-5,-10,-43,-66,21,2,12,2.762827671
12.803308,-8,32,20,50,-42,-63,-17,29,2.762827671
12.803333,113,-35,-29,-17,88,10,-34,-8,2.762827671
12.816398,-69,-5,-1,-24,3,-68,-24,-37,2.762827671
12.816423,-18,17,6,15,29,19,-8,24,2.762827671
12.823035,127,10,-10,-38,-39,-3,29,48,2.762827671
12.823063,-15,6,17,42,66,-61,-14,-6,2.762827671
12.840078,-31,-11,0,-13,-33,51,21,-9,2.762827671
12.840086,-29,-37,-6,0,-13,-1,-9,-17,2.762827671
12.840735,-37,5,2,23,-15,33,10,-9,2.762827671
12.840744,17,5,1,-49,-128,-11,22,-26,2.762827671
12.861891,35,-15,-3,-36,30,101,6,46,2.762827671
12.861912,-11,-1,-16,46,86,-15,-27,-20,2.762827671
12.863305,1,-6,-11,-34,-47,35,-6,49,2.762827671
12.863321,-14,6,0,3,69,-3,2,19,2.762827671
12.876493,26,30,9,31,-57,31,25,24,2.762827671
12.876523,23,-2,1,-17,-18,-39,-3,-34,2.762827671
12.883068,9,-33,-3,-23,6,-41,25,-45,2.762827671
12.883096,-16,22,2,31,-22,35,-13,36,2.762827671
12.899548,-48,19,15,17,47,-50,-14,-8,2.762827671
12.900894,1,-48,-6,-3,-21,7,3,0,2.762827671
12.900903,61,-8,-11,-5,17,-25,-9,-8,2.762827671
12.900906,13,-1,3,-3,-18,8,12,-22,2.762827671
12.922120,-23,-12,-1,35,7,-4,-2,-28,2.762827671
12.922142,-26,72,4,-34,-44,-40,-64,2,2.762827671
12.923222,3,3,9,28,44,64,63,-4,2.762827671
12.923257,-67,-30,-7,50,93,41,-3,-47,2.762827671
12.936074,-11,0,-10,-40,-84,37,9,5,2.762827671
12.936112,16,-18,-4,2,68,-40,21,-5,2.762827671
12.943587,65,15,5,4,42,2,-53,32,2.762827671
12.943715,3,3,3,-1,-89,16,13,-25,2.762827671
12.959905,13,-39,3,9,-50,-30,12,45,2.762827671
12.959938,-6,-15,-4,-9,-98,7,-16,-4,2.762827671
12.962955,43,26,0,-6,46,32,-8,-105,2.762827671
12.962968,-64,11,8,1,-106,-76,23,22,2.762827671
12.981797,31,-3,-13,-14,80,-33,-20,-2,2.762827671
12.981842,19,-4,-7,-18,-75,37,11,-25,2.762827671
12.983345,6,-24,-3,1,-66,-15,18,46,2.762827671
12.983384,5,23,14,7,-51,-55,-20,17,2.762827671
12.996119,-9,7,3,22,-16,-62,7,-67,2.762827671
12.996138,16,8,-9,-28,116,-32,-34,-25,2.762827671
13.003269,-92,-37,-7,-51,-119,104,17,17,2.762827671
13.003299,-10,34,-3,79,103,-16,3,11,2.762827671
13.019237,-38,-26,-2,-24,-123,8,-3,-13,2.762827671
13.019284,59,11,-10,-13,-96,-35,-10,-26,2.762827671
13.020840,13,-6,6,8,84,-60,41,30,2.762827671
13.020848,40,-18,-2,-37,11,15,-8,2,2.762827671
13.049648,-66,37,-2,-33,-18,1,7,19,2.813108831
13.049676,8,27,-2,75,114,3,-23,2,2.813108831
13.051296,-36,0,3,3,-17,-13,-29,16,2.813108831
13.051308,37,-1,-1,-35,-100,39,32,54,2.813108831
13.056595,34,13,2,63,44,-17,-19,-44,2.813108831
13.056625,-59,-32,1,-57,-55,-17,12,-29,2.813108831
13.063093,-14,76,7,-34,1,44,2,-20,2.813108831
13.063154,-53,-50,-8,56,127,27,-6,-38,2.813108831
13.079299,10,-45,-3,-37,-62,-100,-15,32,2.813108831
13.079316,3,-5,-4,11,40,111,16,-14,2.813108831
13.081245,-38,20,9,37,111,-62,-33,8,2.813108831
13.081258,35,-59,-19,-64,-67,-19,32,-14,2.813108831
13.101812,-7,13,10,19,25,-36,-1,3,2.813108831
13.101837,-64,-32,1,-1,-59,-49,6,14,2.813108831
13.103335,75,-3,-11,-25,-77,56,7,29,2.813108831
13.103348,-75,-21,2,-13,9,-18,2,24,2.813108831
13.115966,10,-2,-5,6,-7,-57,-39,0,2.813108831
13.115999,38,15,16,15,-67,78,28,56,2.813108831
13.126539,-56,57,1,13,33,-50,-27,-52,2.813108831
13.126550,20,-16,5,13,-15,-31,-24,-29,2.813108831
13.139399,-44,-27,7,-49,-70,56,27,42,2.813108831
13.139447,28,7,-8,63,86,40,8,6,2.813108831
13.140869,26,-51,-12,-2,-27,-56,-8,0,2.813108831
13.140877,4,27,-13,-16,30,-10,-23,-11,2.813108831
13.161923,-12,26,-1,9,18,-31,-16,12,2.813108831
13.161943,-17,-40,10,-11,41,64,20,8,2.813108831
13.163381,1,2,10,10,-30,-23,-19,20,2.813108831
13.163391,-11,30,5,-3,-48,1,21,-5,2.813108831
13.184379,-20,18,-6,-3,127,60,-6,-12,2.813108831
13.184388,67,3,-8,-6,-42,-54,-8,-20,2.813108831
13.185882,-12,-22,-3,12,-10,8,24,44,2.813108831
13.185889,-4,20,6,-16,-38,27,-24,24,2.813108831
13.200171,14,15,0,7,93,4,2,-54,2.813108831
13.200183,-41,5,9,-19,-45,-34,5,1,2.813108831
13.200834,-45,15,12,59,109,-39,21,87,2.813108831
13.200844,41,-37,-26,-78,-102,-84,-74,-57,2.813108831
13.222581,-15,-23,-2,46,127,58,39,2,2.813108831
13.222612,-18,-6,-2,-16,-91,-38,-7,-6,2.813108831
13.223980,-24,28,-8,7,-44,89,-6,-43,2.813108831
13.223986,2,5,14,17,122,-82,50,26,2.813108831
13.235474,72,-17,-9,-22,-72,-2,-19,-19,2.813108831
13.235492,-43,-12,-4,-7,-1,-15,-6,17,2.813108831
13.245486,0,-5,4,-9,-105,-50,6,-6,2.813108831
13.245500,-50,51,14,29,33,84,12,26,2.813108831
13.259835,72,-54,-15,-7,-10,29,-2,-36,2.813108831
13.259876,44,38,6,12,-32,-4,-1,19,2.813108831
13.262317,-39,-22,-6,-14,-9,-39,-3,-39,2.813108831
13.262331,89,47,7,-24,-92,13,-1,5,2.813108831
13.282025,-66,-25,5,36,-67,-33,22,-3,2.813108831
13.282087,9,-45,-19,-23,-5,62,-70,-48,2.813108831
13.285014,10,-25,-12,-39,83,-40,51,70,2.813108831
13.285025,14,-4,0,1,-115,63,27,75,2.813108831
13.295505,34,97,14,9,47,-50,-10,34,2.813108831
13.295523,-26,-23,-3,-13,-19,62,3,-24,2.813108831
13.305680,17,-53,-11,-3,71,-62,-20,-60,2.785428731
13.305687,-60,71,2,4,74,74,-4,-16,2.785428731
13.319597,75,-17,4,6,11,-6,16,6,2.785428731
13.321021,-82,31,9,-8,-70,8,39,63,2.785428731
13.329223,28,-5,-1,1,-25,-44,-9,-29,2.785428731
13.329237,-5,-4,-3,11,21,-14,0,9,2.785428731
13.341770,0,-4,-1,-1,-41,-5,-4,-18,2.785428731
13.341777,46,23,11,2,113,-64,31,-16,2.785428731
13.343424,-20,20,6,-13,-123,79,-26,39,2.785428731
13.343442,-56,-49,-14,82,110,-59,-15,-40,2.785428731
13.358223,56,25,-5,-56,-86,-90,-20,-18,2.785428731
13.358234,-9,-19,-7,-7,-43,2,19,-11,2.785428731
13.364852,-25,30,16,30,74,-19,25,20,2.785428731
13.364860,45,-23,1,-20,-38,44,27,-41,2.785428731
13.379489,-110,-1,2,-5,17,-28,-30,-24,2.785428731
13.379506,42,-24,-6,22,-44,-42,6,27,2.785428731
13.381252,13,-34,-8,-8,17,51,-15,-4,2.785428731
13.381263,-14,9,7,-8,-54,7,1,-18,2.785428731
13.401915,-58,-57,-5,7,59,44,7,63,2.785428731
13.401925,-3,48,2,-4,-5,-23,-19,25,2.785428731
13.403239,24,-37,-1,8,38,20,-7,-3,2.785428731
13.403252,8,-23,-7,-37,-81,-43,-23,-13,2.785428731
13.415637,34,3,-6,16,-25,18,6,55,2.785428731
13.415669,8,20,8,23,60,-48,-17,3,2.785428731
13.424993,27,-9,-8,5,-29,60,16,77,2.785428731
13.425000,-12,2,-5,-40,39,-44,5,4,2.785428731
13.439587,20,15,11,-6,-68,46,14,65,2.785428731
13.439604,-86,-14,11,13,119,21,-13,-21,2.785428731
13.440766,71,-37,-19,-8,62,-12,-11,-68,2.785428731
13.440860,34,3,-3,5,6,53,-27,-49,2.785428731
13.461973,48,-31,-10,-4,-33,-52,30,27,2.785428731
13.461991,18,-6,-1,-12,-21,-31,5,30,2.785428731
13.463996,-36,61,15,22,-63,-19,-29,-5,2.785428731
13.464008,43,-2,2,12,42,0,-5,-28,2.785428731
13.475444,-36,11,1,0,11,17,2,-18,2.785428731
13.475461,49,50,-2,11,-33,13,13,-48,2.785428731
13.485927,-29,-27,0,-37,-74,-79,-29,-34,2.785428731
13.485934,19,6,-1,8,62,72,32,67,2.785428731
13.499360,-43,-5,2,60,103,19,-12,-54,2.785428731
13.499382,11,17,0,-6,0,-13,29,-15,2.785428731
13.501016,-65,30,5,-25,22,83,-11,7,2.785428731
13.502015,-38,-62,-10,-12,40,-120,-22,52,2.785428731
13.522125,-31,11,3,-10,25,98,22,-76,2.785428731
13.522212,-26,-19,0,-11,-41,-7,7,28,2.785428731
13.523799,76,18,-11,-9,-16,-11,2,85,2.785428731
13.523805,-73,-15,0,33,34,-7,-4,-14,2.785428731
13.545113,-16,-5,-8,-29,15,-12,-26,-63,2.785428731
13.545128,16,22,0,-4,10,-12,-4,12,2.785428731
13.546014,-36,-28,5,23,-44,-17,28,-43,2.785428731
13.546033,-18,22,2,-36,-98,16,10,-61,2.785428731
13.560710,43,1,0,29,58,-58,-42,57,2.806921142
13.560724,-16,-3,-4,-44,-28,54,5,-23,2.806921142
13.561125,-8,25,5,47,95,44,-22,1,2.806921142
13.561181,5,-1,-4,7,63,-53,-8,20,2.806921142
13.581954,-69,-36,-17,-33,-79,70,17,-67,2.806921142
13.581972,-44,-52,2,50,91,-45,13,14,2.806921142
13.583493,39,16,-10,-48,11,-7,-33,-51,2.806921142
13.583505,91,-1,-1,-18,-81,36,15,46,2.806921142
13.606075,6,-32,-3,-15,-8,10,0,3,2.806921142
13.606089,22,5,-2,0,89,-13,-15,-5,2.806921142
13.606267,29,17,12,33,-19,-31,46,34,2.806921142
13.606275,-37,-24,12,37,54,-45,-12,-62,2.806921142
13.619493,20,37,-8,-12,-62,-23,7,-31,2.806921142
13.621412,8,-7,-10,-42,-128,25,-3,59,2.806921142
13.621424,-36,-14,-2,15,69,-5,-23,-58,2.806921142
13.621427,51,25,-1,-28,-59,-8,9,-15,2.806921142
13.642313,61,4,10,50,100,-39,33,54,2.806921142
13.642335,-21,-15,-6,-19,-75,-95,-10,-43,2.806921142
13.644075,-8,-4,-11,-19,59,85,25,-20,2.806921142
13.644089,-36,14,7,-11,-92,-84,-21,34,2.806921142
13.664417,53,-23,-15,-22,-116,23,-3,4,2.806921142
13.664443,29,-9,-1,32,-7,-7,-1,-3,2.806921142
13.666036,4,28,0,-3,-49,-75,-10,4,2.806921142
13.666047,-97,25,6,13,17,15,-3,-36,2.806921142
13.679011,41,-62,1,-19,-1,4,1,28,2.806921142
13.679030,44,1,-6,8,31,8,-14,-5,2.806921142
13.685498,-23,4,0,-19,-34,-14,6,76,2.806921142
13.685516,-31,63,12,-6,-118,63,-6,31,2.806921142
13.701961,24,-1,-5,42,80,-35,2,-2,2.806921142
13.701993,-37,-31,-9,-26,-50,44,-17,-12,2.806921142
13.703646,-31,-10,-3,-23,-76,-100,41,-19,2.806921142
13.703925,-6,10,8,85,45,48,-21,2,2.806921142
13.724568,-45,55,18,-31,76,-5,19,54,2.806921142
13.727281,-29,-26,-17,-4,-44,24,-5,-4,2.806921142
13.727298,62,9,-4,-16,-59,0,-11,-27,2.806921142
13.727301,45,-58,-10,-19,-26,-13,8,-8,2.806921142
13.739032,-6,20,1,-4,-39,47,-50,-27,2.806921142
13.739067,21,69,25,43,90,-33,36,76,2.806921142
13.745673,-7,-34,-17,-22,-69,-7,-42,-56,2.806921142
13.745693,36,-26,-25,-26,4,-49,-19,-17,2.806921142
13.762410,-15,25,6,6,-40,-30,-11,16,2.806921142
13.762422,-60,20,6,-1,52,45,7,-25,2.806921142
13.763456,0,-71,-1,35,-21,-24,7,6,2.806921142
13.763474,-74,1,-5,-34,38,-21,18,23,2.806921142
13.784484,-35,-9,0,45,100,25,7,-53,2.806921142
13.784514,44,15,2,-26,-128,-6,-21,46,2.806921142
13.787247,-50,28,17,-18,-85,61,12,99,2.806921142
13.787255,63,76,5,27,57,-21,-6,-49,2.806921142
13.799290,-19,-76,-35,-38,-105,-30,-13,-63,2.806921142
13.799322,36,-27,-4,-24,14,39,9,17,2.806921142
13.805821,-29,17,6,40,108,-49,11,2,2.806921142
13.805843,4,15,6,-28,-60,101,-4,4,2.806921142
13.822205,-69,-2,8,-8,32,-60,-43,54,2.809066330
13.822240,-43,-44,-16,29,37,-39,-24,-118,2.809066330
13.824190,44,0,-7,-17,-61,42,-38,-37,2.809066330
13.824200,-15,-35,-6,-6,-13,-16,-20,1,2.809066330
13.845062,-28,52,11,-5,-64,2,20,-1,2.809066330
13.845087,-49,-19,-4,39,76,44,49,2,2.809066330
13.850712,-15,-6,5,-15,-29,-43,-66,-34,2.809066330
13.850732,-6,-11,-15,-14,80,-91,-37,-28,2.809066330
13.859420,10,23,0,-33,13,68,-2,-2,2.809066330
13.859447,-5,-12,9,69,26,-42,13,8,2.809066330
13.865530,51,39,6,-20,127,46,32,-2,2.809066330
13.865555,-16,-91,-11,33,31,1,-3,-38,2.809066330
13.882115,-27,36,13,-5,-16,-23,28,57,2.809066330
13.882140,5,4,2,9,-35,-73,-12,12,2.809066330
13.884275,-29,-8,-9,-18,-53,61,6,-46,2.809066330
13.884290,81,-16,1,5,-44,1,27,40,2.809066330
13.904413,-16,-6,-8,8,2,-66,-64,19,2.809066330
13.904461,81,35,4,-32,-37,17,-12,-7,2.809066330
13.906124,-112,-31,-1,28,-7,-24,13,-31,2.809066330
13.906145,-70,41,4,-31,-19,7,-8,37,2.809066330
13.918693,86,-4,0,20,-86,-36,-10,29,2.809066330
13.918703,60,26,-12,-27,106,32,-7,0,2.809066330
13.925357,116,11,-5,24,-62,-92,7,-5,2.809066330
13.928078,12,-1,-9,-23,-13,-1,-15,-22,2.809066330
13.942330,16,-14,4,-22,54,63,28,55,2.809066330
13.942362,-67,14,-8,-33,-65,38,-8,-67,2.809066330
13.944529,-1,9,10,16,47,-63,-16,54,2.809066330
13.944542,-43,60,11,14,-43,-34,25,23,2.809066330
13.965272,90,-28,-27,-3,23,-19,-7,-58,2.809066330
13.965281,-9,9,10,2,19,14,18,71,2.809066330
13.966302,-32,-7,-2,12,37,47,12,0,2.809066330
13.966316,-22,-8,-5,-30,-103,-23,-39,3,2.809066330
13.978935,-23,0,5,8,26,3,35,-19,2.809066330
13.978954,-53,-30,-2,2,56,36,-12,19,2.809066330
13.985644,73,-26,-8,2,-77,-41,21,-56,2.809066330
13.985675,12,16,2,5,101,-42,-26,6,2.809066330
14.001947,-18,-1,-9,23,88,94,12,-47,2.809066330
14.001964,45,-7,6,-31,-97,-58,27,73,2.809066330
14.003358,-77,7,4,-5,-9,-10,17,-16,2.809066330
14.003373,-54,21,10,-26,50,70,4,33,2.809066330
14.024669,53,-34,-13,9,-34,-58,-48,-52,2.809066330
14.024754,-17,7,-3,6,-77,-80,-23,-48,2.809066330
14.026902,-9,9,1,-17,7,25,0,-7,2.809066330
14.026916,7,4,6,36,-80,4,38,-3,2.809066330
14.038670,-81,28,14,-1,78,16,0,-18,2.809066330
14.038715,10,0,-4,-29,51,-29,7,27,2.809066330
14.047949,-27,-49,-17,-4,65,-12,-25,20,2.809066330
14.047959,22,-27,0,8,65,26,28,70,2.809066330
14.061884,-9,-4,-2,22,-52,-42,24,31,2.809066330
14.061901,105,15,6,-24,-42,0,-59,-105,2.809066330
14.063422,-37,74,6,22,127,112,42,26,2.809066330
14.063435,-48,-71,-12,29,-44,-29,-36,-23,2.809066330
14.084792,-25,-19,-9,-116,-105,25,-24,-29,2.798426029
14.084816,80,21,4,2,56,47,27,39,2.798426029
14.086246,77,-4,-10,36,93,-77,-34,-37,2.798426029
14.086253,-20,-25,-7,-10,24,-33,28,-5,2.798426029
14.098161,-66,-18,10,25,-88,-30,22,-7,2.798426029
14.098178,-53,-16,-2,22,-11,24,-10,-27,2.798426029
14.108138,0,17,2,-33,-73,19,-16,-41,2.798426029
14.108144,44,8,-5,7,19,4,4,19,2.798426029
14.121817,0,18,-2,5,9,-3,2,3,2.798426029
14.121824,-47,0,5,-42,-84,-8,1,-8,2.798426029
14.130261,-15,-37,-3,69,41,-18,17,24,2.798426029
14.130273,80,65,-2,-19,54,5,-44,19,2.798426029
14.144424,-49,-35,-4,-24,68,63,15,-18,2.798426029
14.144449,-16,3,0,31,-36,-120,12,21,2.798426029
14.145944,-14,19,5,-34,10,20,-19,13,2.798426029
14.145955,2,27,8,-5,-55,-38,7,16,2.798426029
14.158180,56,16,0,1,-80,-12,-12,-22,2.798426029
14.158209,-47,-43,-27,-7,26,62,-32,-30,2.798426029
14.167514,46,-51,-4,-24,-42,-4,12,85,2.798426029
14.167523,-45,-30,11,37,-22,-37,41,-23,2.798426029
14.181964,-11,31,9,14,48,17,11,26,2.798426029
14.181993,-34,-8,-3,5,-4,-16,-17,-32,2.798426029
14.184133,59,5,-3,-8,-58,-6,-13,-2,2.798426029
14.184526,-30,-17,-3,-48,-92,13,-10,26,2.798426029
14.204428,29,35,-10,31,58,28,26,44,2.798426029
14.204451,-18,9,9,14,-4,-58,-46,10,2.798426029
14.206015,33,-17,-2,-55,57,33,-2,30,2.798426029
14.206034,46,12,-5,22,44,32,38,25,2.798426029
14.218206,-66,-8,11,19,-13,-25,-6,0,2.798426029
14.218229,70,18,-10,-46,49,49,26,0,2.798426029
14.228658,-50,-12,-4,-6,-103,8,-33,7,2.798426029
14.228666,54,4,-2,8,45,15,-26,-44,2.798426029
14.242111,-24,13,5,-26,-39,45,29,0,2.798426029
14.242143,-45,32,10,52,74,18,6,37,2.798426029
14.243911,-28,-63,-17,0,-11,-12,7,-18,2.798426029
14.243934,-18,-37,-8,-16,16,8,-13,-41,2.798426029
14.264558,29,20,4,14,-82,16,4,36,2.798426029
14.264604,-8,-6,0,1,-9,-31,-22,-2,2.798426029
14.265980,-64,42,6,8,-37,16,11,-9,2.798426029
14.266067,27,18,-8,8,81,-6,10,-19,2.798426029
14.279497,-40,-26,-6,-3,-19,-56,6,6,2.798426029
14.279509,10,4,7,4,2,100,38,8,2.798426029
14.287784,-7,34,6,-1,-13,-91,-27,16,2.798426029
14.287790,-38,-53,-1,30,47,23,21,37,2.798426029
14.301199,106,31,-4,-34,67,27,-26,55,2.798426029
14.301220,30,-20,-6,19,73,33,2,-4,2.798426029
14.302449,-36,42,6,-24,-113,-69,30,-2,2.798426029
14.302455,28,25,1,-5,-25,-8,-17,-40,2.798426029
14.324440,3,-10,-1,0,-61,-48,-3,-20,2.811490927
14.324468,-72,11,6,4,8,-73,13,-17,2.811490927
14.326646,66,9,-8,5,65,108,-3,-48,2.811490927
14.326661,0,36,5,5,-99,-49,-21,-32,2.811490927
14.346282,7,-11,-9,-29,-28,18,-51,-51,2.811490927
14.346299,-11,-67,-19,-2,14,12,-16,-36,2.811490927
14.346930,-70,18,9,32,90,-81,17,-15,2.811490927
14.346940,83,-17,-4,-51,-75,-5,-18,6,2.811490927
14.361429,-19,0,5,97,52,54,-2,-70,2.811490927
14.361455,5,26,9,-29,-84,-81,-13,51,2.811490927
14.362974,-50,7,3,-11,46,89,19,16,2.811490927
14.362985,-14,-16,-10,19,67,-29,2,-13,2.811490927
14.384257,86,-20,-16,-57,-13,-47,-29,-12,2.811490927
14.384280,16,-2,-2,-14,-8,38,3,-10,2.811490927
14.384285,-21,-19,1,36,14,-8,5,60,2.811490927
14.385576,-27,45,7,-2,-42,13,15,-10,2.811490927
14.406644,-30,-13,1,1,-1,-16,9,17,2.811490927
14.406653,17,3,-1,12,-49,13,10,7,2.811490927
14.407389,57,39,13,-11,53,-80,3,6,2.811490927
14.407405,-18,-45,-21,-32,-74,78,-52,-35,2.811490927
14.421190,-70,32,-5,-25,9,70,23,16,2.811490927
14.421207,62,-40,-10,0,-17,41,14,-4,2.811490927
14.423071,0,3,-7,2,79,-41,-37,-15,2.811490927
14.423076,28,-9,-3,-25,-31,-9,43,33,2.811490927
14.443823,-5,5,5,15,56,-46,10,-2,2.811490927
14.443848,35,48,14,3,12,29,7,8,2.811490927
14.445804,21,3,15,25,-71,57,24,26,2.811490927
14.445815,-56,-22,-11,-4,-54,-76,-20,-36,2.811490927
14.468580,76,-10,-17,-67,-119,34,-10,18,2.811490927
14.468591,-58,-44,-13,43,117,-69,-49,6,2.811490927
14.468594,-11,-45,-2,25,-64,-2,37,5,2.811490927
14.468597,-2,15,13,16,3,55,11,56,2.811490927
14.483235,-22,41,13,27,-7,-34,14,17,2.811490927
14.483246,-36,-52,-1,-21,-62,-5,-18,-50,2.811490927
14.483249,63,42,0,-18,-58,25,-1,-18,2.811490927
14.483251,-53,-62,0,-3,-11,-9,8,16,2.811490927
14.504139,84,23,-2,32,36,21,-29,-35,2.811490927
14.504170,-42,28,12,40,-25,-116,19,30,2.811490927
14.506001,-15,-33,-15,-50,-49,94,-13,-21,2.811490927
14.506005,117,-4,-16,-13,121,44,9,-20,2.811490927
14.526740,-23,-13,2,-19,-85,-55,-38,-35,2.811490927
14.526833,-49,-3,-4,17,68,101,7,31,2.811490927
14.528885,-6,6,5,19,-95,-63,-6,33,2.811490927
14.528898,-33,17,5,2,62,54,25,-20,2.811490927
14.541297,6,13,10,18,-32,-42,-10,2,2.811490927
14.541314,-8,-39,-11,-37,-28,-50,-14,-59,2.811490927
14.543640,29,8,2,-9,-36,8,5,23,2.811490927
14.543657,7,38,6,13,50,9,12,52,2.811490927
14.564017,-30,-44,-7,-1,32,-55,-9,-42,2.811490927
14.564032,82,12,-8,-14,-44,9,-4,10,2.811490927
14.564479,17,-30,-10,-27,-34,-94,-40,6,2.811490927
14.564486,-27,23,11,40,31,16,26,-23,2.811490927
14.586218,-35,73,10,-18,-39,18,41,61,2.837985771
14.587884,-12,7,-2,54,106,66,8,24,2.837985771
14.587889,-13,13,7,-30,-53,-81,-5,-26,2.837985771
14.587892,99,-38,-18,12,54,31,-40,-44,2.837985771
14.601246,-51,-22,-12,-28,-9,-52,13,12,2.837985771
14.601263,-14,12,0,-14,11,37,20,-39,2.837985771
14.602161,-33,38,8,22,13,25,23,15,2.837985771
14.602225,18,-20,-9,-2,-47,-65,-27,2,2.837985771
14.625169,60,-13,-3,-4,9,3,-8,-25,2.837985771
14.625177,5,-16,-5,-20,-80,-10,-2,-17,2.837985771
14.625180,-19,15,-1,28,124,26,-6,-21,2.837985771
14.625183,-66,44,14,-41,-53,-64,-11,29,2.837985771
14.646495,-20,-27,-5,26,-50,51,6,4,2.837985771
14.646512,27,-28,-8,14,3,0,-4,-21,2.837985771
14.647563,19,1,4,-46,82,55,27,-8,2.837985771
14.647569,-82,21,-1,-17,-7,-21,-43,-10,2.837985771
14.660934,107,-37,-12,45,124,101,-7,-10,2.837985771
14.660960,1,40,1,-48,-74,-61,7,15,2.837985771
14.669189,-48,-84,-12,36,-34,-34,-7,-42,2.837985771
14.669220,20,-3,4,-6,-49,-8,28,-1,2.837985771
14.683722,-94,23,18,-21,67,-65,0,21,2.837985771
14.683740,104,33,-2,-3,-73,6,-11,18,2.837985771
14.684755,30,-49,-19,-10,-13,46,-5,-12,2.837985771
14.684761,-22,-14,2,8,43,-11,18,-38,2.837985771
14.706559,-15,26,11,-1,-14,-28,-8,19,2.837985771
14.706587,62,-7,-3,13,41,30,-9,2,2.837985771
14.707244,-31,23,-7,-17,-21,-9,2,17,2.837985771
14.707265,-43,-18,9,14,-100,-13,-15,-14,2.837985771
14.721483,-34,-62,-4,38,38,5,6,1,2.837985771
14.721515,-6,13,4,-44,-128,-30,26,-22,2.837985771
14.723475,-20,16,1,45,-76,-17,-61,-22,2.837985771
14.723481,62,43,5,-64,114,103,17,26,2.837985771
14.744157,12,-25,1,37,2,-12,46,22,2.837985771
14.744188,3,-30,-22,-13,104,-9,-54,-21,2.837985771
14.746040,76,2,-8,-56,-58,-58,-41,-8,2.837985771
14.746053,-22,-11,-2,39,73,24,-11,-1,2.837985771
14.766239,-19,19,1,-14,-53,-21,5,-56,2.837985771
14.766412,-64,19,13,18,-64,26,28,73,2.837985771
14.766880,-72,-22,5,6,-10,48,38,-28,2.837985771
14.766887,-27,-25,-22,-9,-114,-83,-20,10,2.837985771
14.781728,39,5,2,-40,-64,-33,-7,-21,2.837985771
14.781752,9,33,6,29,-58,35,9,-41,2.837985771
14.783473,-68,-25,-3,2,121,-6,-34,-4,2.837985771
14.783478,49,0,6,2,-67,5,40,-15,2.837985771
14.803656,20,-25,-6,-42,-83,-8,-26,-19,2.837985771
14.803673,25,-29,-19,30,96,-3,-10,-28,2.837985771
14.805528,83,36,4,-10,-13,108,-9,-5,2.837985771
14.805533,-106,-6,10,54,35,26,21,12,2.837985771
14.826333,32,-10,-7,-2,-94,-45,-7,52,2.837985771
14.826346,2,112,37,-33,-32,-33,-15,60,2.837985771
14.827117,-57,-92,-53,-32,36,-10,1,-54,2.837985771
14.827132,-16,19,-1,17,-34,1,-6,14,2.837985771
14.841361,-99,43,8,-9,55,19,13,-14,2.775856519
14.842527,13,-18,7,3,53,-59,20,12,2.775856519
14.842533,4,22,16,50,57,42,-5,82,2.775856519
14.842536,3,2,-10,-40,-19,3,-25,-49,2.775856519
14.863895,-29,-1,9,17,-38,-75,-9,-24,2.775856519
14.863913,-28,7,5,46,62,87,0,-36,2.775856519
14.865369,9,10,5,4,45,-25,2,-26,2.775856519
14.865375,72,-11,-7,-16,-14,45,0,9,2.775856519
14.888492,-26,6,2,2,44,25,18,28,2.775856519
14.888501,-47,-28,-6,-13,-78,-20,-23,4,2.775856519
14.888504,52,52,3,-6,-9,-27,-23,-22,2.775856519
14.888507,101,-22,-4,-13,-49,-16,15,-8,2.775856519
14.902856,7,13,-7,34,124,-16,-41,-3,2.775856519
14.902865,-89,-43,-5,-28,-75,5,10,5,2.775856519
14.902868,-54,95,27,-11,-16,33,51,48,2.775856519
14.902870,82,-46,-22,7,-76,-26,-3,2,2.775856519
14.924179,-18,17,-7,-17,31,-9,1,-21,2.775856519
14.924198,-17,-4,-11,29,46,39,3,73,2.775856519
14.926049,-5,21,6,-14,-91,-48,18,-42,2.775856519
14.926056,-65,-22,4,19,56,43,-20,-20,2.775856519
14.946319,42,-13,-10,12,13,98,30,-11,2.775856519
14.946337,14,-12,9,-28,-44,-67,22,42,2.775856519
14.947863,-32,-5,-3,14,-64,29,-25,-28,2.775856519
14.947871,19,45,5,33,87,4,-23,-22,2.775856519
14.960954,87,-44,-23,-39,-84,63,-14,8,2.775856519
14.960976,-32,18,-5,-24,-1,-21,-25,-35,2.775856519
14.968847,10,-10,-6,-12,-80,-87,-2,15,2.775856519
14.970536,-106,1,21,26,65,-26,49,75,2.775856519
14.983764,-7,-56,-9,-10,-14,6,-32,-27,2.775856519
14.983816,-3,-15,-8,25,46,-22,0,5,2.775856519
14.984433,14,-20,1,-22,-23,-2,18,7,2.775856519
14.984447,-58,60,11,-21,-64,-28,25,33,2.775856519
15.006745,-28,5,13,27,73,-26,11,-28,2.775856519
15.006778,78,-35,-20,-43,-30,-2,25,24,2.775856519
15.009597,-40,-19,2,-22,67,-98,-29,8,2.775856519
15.009607,11,35,-4,54,-105,31,53,36,2.775856519
15.021252,-116,-5,20,22,37,18,25,50,2.775856519
15.021299,74,-31,-23,-13,16,0,-64,-73,2.775856519
15.024049,12,24,5,32,-57,-39,-10,-26,2.775856519
15.024055,13,-10,-7,-51,68,53,-19,-58,2.775856519
15.045112,14,29,6,1,-94,-79,15,19,2.775856519
15.045125,-116,38,12,2,-37,-18,-25,-24,2.775856519
15.045128,66,45,10,11,8,60,31,28,2.775856519
15.045130,-95,-93,-26,0,-57,-50,-47,-43,2.775856519
15.066391,15,-39,-11,-10,90,-7,6,5,2.775856519
15.066408,-9,23,7,0,-40,50,30,2,2.775856519
15.067681,-19,-3,1,-72,-76,31,-18,-30,2.775856519
15.067691,49,76,21,77,127,-95,23,14,2.775856519
15.080671,2,-26,-11,3,-15,-10,-17,37,2.775856519
15.080697,11,-38,-3,11,20,-1,14,-33,2.775856519
15.089088,18,12,-5,28,121,97,17,78,2.775856519
15.089117,25,-7,-4,-49,-86,7,28,25,2.775856519
15.104092,-26,6,4,17,-93,-3,-3,-18,2.782873437
15.106460,-11,53,0,-17,79,33,9,-50,2.782873437
15.106471,-10,-108,-23,3,-39,-73,-15,33,2.782873437
15.106473,26,10,-7,-28,0,27,-20,-97,2.782873437
15.127030,49,55,1,7,17,-2,-8,70,2.782873437
15.127061,-58,-25,13,-16,-54,-7,31,31,2.782873437
15.128908,83,12,-12,32,68,21,0,-69,2.782873437
15.128915,-16,-5,2,-26,-30,-3,-6,30,2.782873437
15.140569,-25,31,5,-9,-55,-79,-13,-33,2.782873437
15.140610,-6,2,-10,30,120,7,-48,-32,2.782873437
15.148952,-45,-13,-3,-12,-56,95,32,-22,2.782873437
15.148979,72,11,3,0,-10,-67,-27,2,2.782873437
15.163839,-12,14,10,3,-33,48,38,-16,2.782873437
15.163865,16,3,-5,-25,62,5,-36,84,2.782873437
15.165788,27,-30,-8,7,-6,8,33,-7,2.782873437
15.165800,1,16,4,4,33,-26,-12,36,2.782873437
15.186666,-44,22,10,-19,-99,5,-1,33,2.782873437
15.186689,29,6,-6,12,2,-10,9,-29,2.782873437
15.187315,30,-44,-1,14,28,-62,-42,8,2.782873437
15.187352,-45,-18,0,-21,-31,16,-2,-7,2.782873437
15.200632,14,38,1,-13,-44,11,-9,-85,2.782873437
15.200649,41,-14,0,55,58,14,13,-42,2.782873437
15.209183,21,29,2,-22,45,-42,-9,-35,2.782873437
15.209207,74,1,2,54,-46,9,-3,0,2.782873437
15.224285,34,-24,-11,-63,24,102,-6,5,2.782873437
15.224316,12,24,8,25,74,-59,28,-11,2.782873437
15.226343,-75,-4,6,-13,-94,69,-3,-6,2.782873437
15.226353,64,17,-4,-2,2,-26,-5,35,2.782873437
15.246283,-37,-8,-4,18,100,37,24,-7,2.782873437
15.246299,-20,-11,2,-32,-93,-35,2,4,2.782873437
15.247024,-77,38,3,11,-63,-84,-72,93,2.782873437
15.247037,-76,-86,-22,-7,47,-63,6,-12,2.782873437
15.260637,-21,-9,-2,4,12,-34,-16,14,2.782873437
15.260656,3,31,1,-37,-76,22,14,21,2.782873437
15.268784,-2,11,7,56,121,-7,20,1,2.782873437
15.268800,54,24,-3,-7,79,26,-19,-47,2.782873437
15.283794,18,-29,1,-32,-71,-26,-19,-1,2.782873437
15.283819,-42,-7,-3,43,-24,36,40,8,2.782873437
15.284839,3,17,5,-16,32,-4,-16,13,2.782873437
15.284845,-80,-12,1,10,73,-31,5,-41,2.782873437
15.308598,-26,27,5,3,4,34,-20,88,2.782873437
15.308605,64,-22,-3,-25,-108,-62,-25,28,2.782873437
15.308608,-21,-8,-8,16,-38,59,2,-48,2.782873437
15.308610,-74,6,12,-20,-113,-51,22,10,2.782873437
15.321205,41,11,-14,-7,56,-6,-9,-31,2.782873437
15.321236,21,14,-1,16,43,16,-5,-1,2.782873437
15.329040,28,-50,-11,-10,16,-18,23,6,2.782873437
15.329067,25,31,5,-12,-87,-14,-20,-12,2.782873437
15.343888,-63,19,15,18,75,5,17,7,2.782873437
15.343915,93,-35,-10,-33,-95,-5,-21,-15,2.782873437
15.344710,107,-18,-9,-11,-70,-43,-4,-52,2.782873437
15.344789,-94,5,-3,35,-31,66,23,-24,2.782873437
15.366679,-29,-17,-2,59,63,-35,-26,32,2.799097525
15.366697,-55,26,6,-33,82,31,-2,3,2.799097525
15.369347,-49,17,19,-28,-127,-77,-34,40,2.799097525
15.369359,20,-3,-7,-2,74,22,8,9,2.799097525
15.380701,22,3,-9,28,118,-3,-22,-50,2.799097525
15.382198,13,23,11,10,-31,-93,13,47,2.799097525
15.389260,90,-4,-11,0,-6,4,16,9,2.799097525
15.389291,49,-1,-4,-34,-67,-38,-32,0,2.799097525
15.403709,41,13,-5,-12,-99,-23,12,39,2.799097525
15.403747,-5,-6,-2,6,6,51,-15,-36,2.799097525
15.404388,-23,3,7,9,45,14,17,2,2.799097525
15.404409,94,-6,-7,-1,22,40,-9,32,2.799097525
15.427108,9,-25,-10,-17,-40,-13,-2,-36,2.799097525
15.427144,-17,93,18,-5,41,17,9,-7,2.799097525
15.429678,97,-56,-16,-1,12,5,14,25,2.799097525
15.429691,-57,-23,-5,-37,-91,-2,-17,-3,2.799097525
15.449523,7,3,11,43,83,-100,1,51,2.799097525
15.449568,-7,5,8,20,35,61,72,28,2.799097525
15.450330,-116,71,5,-24,38,-9,-56,-22,2.799097525
15.450385,25,-54,-24,-22,-39,-57,-10,-22,2.799097525
15.464089,25,-8,-3,-10,-108,-21,-34,-45,2.799097525
15.464103,-64,-33,-4,-4,-56,-36,-10,-19,2.799097525
15.464567,-14,29,7,28,2,79,56,50,2.799097525
15.464576,-30,19,13,0,13,56,25,10,2.799097525
15.486291,58,0,0,-15,-24,-8,-4,5,2.799097525
15.486308,-17,-4,-3,8,-27,-40,-19,29,2.799097525
15.487215,53,-45,-5,4,12,3,-2,-26,2.799097525
15.487219,27,18,4,9,28,7,3,31,2.799097525
15.510313,-48,-18,3,-33,-128,28,24,13,2.799097525
15.510325,-23,28,-15,-51,67,3,-25,15,2.799097525
15.510328,66,-24,0,97,78,-37,30,-2,2.799097525
15.510330,-38,-34,-5,-50,67,22,39,31,2.799097525
15.525027,-3,9,-5,-42,-97,98,-24,-2,2.799097525
15.525061,-28,-20,3,5,70,42,-13,-21,2.799097525
15.525063,-60,19,-8,-32,-23,32,12,-1,2.799097525
15.525066,-7,16,10,29,-37,-42,51,30,2.799097525
15.546452,-14,51,0,-10,54,33,-6,-11,2.799097525
15.546470,48,-43,0,50,-31,-59,1,53,2.799097525
15.547098,-17,0,1,-21,-79,29,12,-38,2.799097525
15.547115,24,-31,-5,47,86,1,-22,70,2.799097525
15.570015,9,-12,-10,-22,-37,-11,-2,-76,2.799097525
15.570032,36,1,-1,-5,-62,2,7,-11,2.799097525
15.571848,9,35,8,-3,14,-58,-8,13,2.799097525
15.571861,-29,15,8,-27,-16,25,-1,-15,2.799097525
15.583862,3,-11,0,64,104,-12,12,21,2.799097525
15.583879,-37,-40,2,-13,53,-16,-5,-40,2.799097525
15.584849,70,-30,-15,-36,-55,4,0,-38,2.799097525
15.584855,-42,24,5,20,-30,-59,-13,-33,2.799097525
15.606648,34,-2,7,-23,-77,-55,7,49,2.774554086
15.606673,10,16,9,63,77,48,37,9,2.774554086
15.607047,-119,14,14,-16,104,40,-3,-1,2.774554086
15.607096,127,-87,-33,-28,32,-15,-27,-1,2.774554086
15.629607,-43,26,3,4,-14,-15,1,-26,2.774554086
15.629625,83,-2,-10,-46,-128,11,-4,-8,2.774554086
15.630879,9,5,-5,23,105,-63,-1,-36,2.774554086
15.630886,-26,39,9,2,-61,18,-10,-35,2.774554086
15.644041,-25,-22,-2,0,38,-48,-8,-50,2.774554086
15.646550,-5,-12,-11,-41,-121,-32,-19,-14,2.774554086
15.646565,-5,7,2,39,99,38,-17,25,2.774554086
15.646567,-9,15,5,-3,-33,10,6,-23,2.774554086
15.666300,61,-2,-1,5,24,26,19,2,2.774554086
15.666311,-21,-4,-1,3,6,-41,-20,1,2.774554086
15.667306,-7,-17,-6,-37,-37,-97,-17,-5,2.774554086
15.667314,-26,19,-1,13,109,118,-7,8,2.774554086
15.689481,21,-8,1,7,-71,-80,67,17,2.774554086
15.689498,-102,44,16,-10,-104,-22,14,10,2.774554086
15.692437,-37,-97,-28,-34,44,-14,6,-27,2.774554086
15.692443,71,16,2,43,117,9,-60,-9,2.774554086
15.704447,32,-9,-1,-21,127,116,18,8,2.774554086
15.704480,-45,-10,-4,25,-6,66,14,-68,2.774554086
15.706196,34,36,7,-44,-128,-39,6,106,2.774554086
15.706201,-95,40,14,-1,-42,-42,6,-11,2.774554086
15.728151,-67,-55,-20,-20,-64,13,-31,-31,2.774554086
15.728164,63,1,-2,26,127,-66,-31,-56,2.774554086
15.728167,-27,7,9,23,-102,125,10,18,2.774554086
15.728170,-12,-1,-1,-2,26,2,18,-18,2.774554086
15.749625,-16,17,4,-19,-95,-29,1,38,2.774554086
15.749646,2,-12,-6,-17,95,-1,-15,-5,2.774554086
15.751102,40,91,11,1,-90,18,-7,17,2.774554086
15.751112,-4,-46,-7,58,-4,-90,-10,-1,2.774554086
15.763931,0,9,9,-54,-86,65,8,14,2.774554086
15.763955,9,-17,-7,18,45,-37,-12,6,2.774554086
15.765577,70,51,12,20,126,-8,-27,4,2.774554086
15.765591,63,-15,-18,-60,-47,46,13,-23,2.774554086
15.794849,-14,-1,4,9,-51,-66,-20,12,2.774554086
15.794888,1,0,-3,42,8,-4,9,88,2.774554086
15.795380,-77,-17,2,22,24,-15,14,-4,2.774554086
15.795413,-63,-17,2,-3,-70,-24,8,-18,2.774554086
15.810023,39,-19,-14,5,50,14,-5,-4,2.774554086
15.810153,36,21,5,-30,-27,5,-5,-6,2.774554086
15.810514,-94,-20,1,8,-25,-27,4,-18,2.774554086
15.810535,22,30,6,-16,-10,19,1,65,2.774554086
15.824503,58,-34,-16,0,33,-33,-3,-13,2.774554086
15.824526,-13,-9,3,4,-46,-18,-2,19,2.774554086
15.825038,24,-7,-10,4,115,7,-18,-30,2.774554086
15.825059,-26,32,16,-10,-21,-28,-11,16,2.774554086
15.846505,-89,45,17,21,4,75,72,26,2.774554086
15.846528,115,-54,-15,20,-128,96,-30,-12,2.774554086
15.848498,-7,-19,-7,-31,-2,56,0,31,2.774554086
15.848505,-17,16,7,9,5,-99,-13,19,2.774554086
15.869492,-17,-10,-7,2,-34,21,-28,-21,2.773950186
15.869532,0,13,8,-16,-85,-24,4,94,2.773950186
15.870174,-53,-10,-7,-11,-62,-30,-7,-48,2.773950186
15.870202,38,-11,-4,-9,1,17,1,11,2.773950186
15.884203,24,17,5,19,42,-19,-3,-11,2.773950186
15.884218,-1,10,0,-12,25,-7,13,-22,2.773950186
15.884573,-19,18,14,-1,-16,0,13,-7,2.773950186
15.884603,67,-37,-23,-32,-33,-23,-8,40,2.773950186
15.906468,-18,-14,-8,36,90,-39,-33,-34,2.773950186
15.907656,-45,2,2,-14,40,3,14,0,2.773950186
15.907661,3,22,9,9,32,-28,38,-15,2.773950186
15.907664,-48,8,1,9,95,-20,-2,-48,2.773950186
15.930171,6,-3,4,-49,-63,-88,-13,18,2.773950186
15.930186,45,40,9,1,-94,-84,-6,43,2.773950186
15.930284,37,-63,-12,37,83,18,57,10,2.773950186
15.930292,-67,27,11,-18,-70,-65,-7,6,2.773950186
15.945707,94,-77,-34,-19,54,-78,-54,86,2.773950186
15.945720,-59,20,-5,-25,-7,13,15,-89,2.773950186
15.945723,12,6,4,-3,-39,-32,-17,13,2.773950186
15.945774,-27,2,6,20,-16,93,12,-10,2.773950186
15.966542,-12,33,7,-1,-71,-3,7,-26,2.773950186
15.966575,6,-49,-4,20,97,26,-7,-12,2.773950186
15.967191,33,-8,-9,-2,-32,13,-15,-11,2.773950186
15.967207,33,9,0,-14,25,22,16,-19,2.773950186
15.990021,-24,39,16,4,-39,55,26,68,2.773950186
15.990052,-19,-23,-7,53,127,-53,-34,-33,2.773950186
15.992007,20,-4,-11,-63,-97,10,16,5,2.773950186
15.992017,-4,13,5,13,117,61,20,12,2.773950186
16.004193,-20,7,-6,3,-23,24,-7,-100,2.773950186
16.004225,61,-19,-5,-33,1,-4,-6,13,2.773950186
16.006150,-32,17,14,44,-71,-128,-10,-1,2.773950186
16.006156,8,2,-7,-24,36,99,-24,-43,2.773950186
16.026964,-74,-45,-8,21,61,2,-12,77,2.773950186
16.027028,3,-15,-14,-11,-13,-56,10,20,2.773950186
16.027251,34,5,5,-1,-11,-16,2,25,2.773950186
16.027293,7,7,5,-2,-28,-99,0,-14,2.773950186
16.049818,39,31,11,33,64,-30,11,45,2.773950186
16.051908,-39,12,1,-18,-11,39,-22,38,2.773950186
16.051914,-13,-27,-4,7,72,-15,5,51,2.773950186
16.051917,43,-8,-6,22,-7,4,17,-40,2.773950186
16.063400,20,-2,-4,-21,27,17,-39,-22,2.773950186
16.063425,-36,6,13,17,31,-96,11,-33,2.773950186
16.071347,-23,12,1,-63,-85,127,29,-18,2.773950186
16.071364,72,2,-6,23,85,-67,-2,33,2.773950186
16.088111,41,-51,-29,-22,-8,42,1,-113,2.773950186
16.088122,27,3,-6,-11,-62,11,0,23,2.773950186
16.088125,-61,-7,0,24,20,-30,-12,-28,2.773950186
16.088127,-5,9,8,-4,-73,23,17,49,2.773950186
16.109934,-36,81,27,14,24,-5,32,16,2.773950186
16.109963,50,-61,-18,-1,41,38,16,-58,2.773950186
16.112188,67,15,-6,-20,-22,13,-7,54,2.773950186
16.112204,-82,-23,0,-11,-8,-9,-22,-50,2.773950186
16.123541,35,32,9,34,85,-8,13,95,2.830793090
16.123565,-46,14,2,-19,-117,-49,-4,-3,2.830793090
16.131564,-7,11,6,8,28,56,-6,-29,2.830793090
16.131593,26,-10,-10,-28,66,-28,4,-2,2.830793090
16.146501,-90,-24,0,-17,-59,25,-3,-59,2.830793090
16.148212,-57,48,14,44,86,17,24,-34,2.830793090
16.148219,70,-31,-10,-13,-64,-76,-14,-14,2.830793090
16.148221,-1,58,16,43,10,-34,1,-1,2.830793090
16.169555,115,-12,-22,-24,-57,12,0,-54,2.830793090
16.169573,-63,-20,1,-26,44,22,-6,-30,2.830793090
16.170301,-14,17,-2,4,-56,-18,-24,-49,2.830793090
16.170349,5,-6,-8,-1,-28,27,6,29,2.830793090
16.183284,32,39,13,-10,-48,-40,-23,20,2.830793090
16.183304,45,-7,-11,11,61,47,-10,-42,2.830793090
16.191796,-12,10,0,16,-35,0,7,21,2.830793090
16.191828,-41,-23,-1,-3,-38,50,-12,9,2.830793090
16.206994,-77,3,6,-17,85,-57,28,4,2.830793090
16.207026,75,9,-6,-46,-93,-56,-1,11,2.830793090
16.208641,16,-58,-15,38,109,69,-23,-40,2.830793090
16.208646,-3,-2,1,-23,-80,18,10,-8,2.830793090
16.229589,36,36,6,11,-26,6,27,13,2.830793090
16.229606,39,-22,-7,-2,-22,-11,-28,-24,2.830793090
16.230282,15,11,-14,-12,102,-48,-36,14,2.830793090
16.230298,3,-10,8,10,-128,45,7,9,2.830793090
16.245305,-78,19,3,26,27,34,13,5,2.830793090
16.245318,-38,19,-5,-48,-125,-15,-17,29,2.830793090
16.251399,-40,-39,-8,2,24,-33,12,6,2.830793090
16.251416,-9,-23,-10,-21,-4,-57,-11,-11,2.830793090
16.266376,-35,-14,6,5,2,21,32,-8,2.830793090
16.266394,-49,20,8,93,112,27,-10,69,2.830793090
16.267235,-3,8,8,-12,30,-11,22,-36,2.830793090
16.267257,27,18,4,9,0,-51,-16,11,2.830793090
16.289954,-10,-26,-9,-48,-48,-73,-35,-10,2.830793090
16.289987,9,-6,-5,-19,31,104,49,45,2.830793090
16.291819,16,11,2,-2,-115,-98,-20,-16,2.830793090
16.291829,6,11,1,11,104,49,-1,-9,2.830793090
16.303690,-46,-69,-21,16,4,-15,-30,-54,2.830793090
16.303720,26,-25,-9,-26,-63,-55,-18,-36,2.830793090
16.311641,-66,-7,1,-9,-11,31,-2,-6,2.830793090
16.311658,-27,-6,-2,-9,-28,-34,1,-12,2.830793090
16.327062,13,22,11,25,11,29,3,38,2.830793090
16.327089,-128,2,18,-27,-40,30,24,13,2.830793090
16.327169,67,-36,-23,-31,-82,-2,-7,28,2.830793090
16.327193,-85,-23,-5,52,89,-35,-30,-5,2.830793090
16.350055,-4,-20,-12,-18,-54,76,26,-4,2.830793090
16.350088,-49,50,18,-23,49,-111,0,9,2.830793090
16.351994,84,19,8,12,-88,92,-23,28,2.830793090
16.352003,-12,28,12,25,63,-27,14,21,2.830793090
16.363335,127,-24,-19,-2,25,-43,26,-1,2.830793090
16.363355,-27,-19,-15,-21,-45,-67,-34,-10,2.830793090
16.372139,-98,12,4,-8,-18,-23,-11,-49,2.796348447
16.372155,32,14,1,-9,-125,-21,20,107,2.796348447
16.386316,-17,18,13,30,36,-24,-16,-63,2.796348447
16.386357,-9,1,-2,0,-3,76,10,-31,2.796348447
16.386998,20,5,1,12,108,-53,8,16,2.796348447
16.387032,4,-29,-15,-32,-123,58,3,-26,2.796348447
16.409864,11,-3,6,33,11,-20,-33,-8,2.796348447
16.409881,45,-19,-6,-27,41,26,6,18,2.796348447
16.411918,-39,17,11,62,34,16,5,7,2.796348447
16.411937,64,23,1,-37,-62,-15,11,-33,2.796348447
16.433328,-118,-49,-11,-33,37,-52,-55,3,2.796348447
16.433339,127,-21,-14,-6,93,-3,-5,-16,2.796348447
16.433341,9,19,6,-7,-30,-19,14,-4,2.796348447
16.433344,-7,16,5,-10,-80,-46,-2,-4,2.796348447
16.446398,55,19,-7,-19,74,26,-13,-4,2.796348447
16.446417,-21,-33,-6,40,1,-22,-9,-21,2.796348447
16.448166,-60,3,1,-41,79,8,31,21,2.796348447
16.448176,-3,-11,-7,35,106,-16,-13,1,2.796348447
16.469496,-27,36,7,-20,-98,-26,16,34,2.796348447
16.469513,-4,15,6,36,45,-8,-4,-67,2.796348447
16.471005,49,-9,-4,-4,-19,32,18,-32,2.796348447
16.471019,-34,-11,-1,-11,-36,28,-10,-30,2.796348447
16.495473,-24,17,11,16,-6,-17,5,8,2.796348447
16.495489,-16,5,-6,-20,-102,109,51,27,2.796348447
16.495492,1,-6,-7,4,-46,-125,-76,3,2.796348447
16.495495,-27,-5,-3,-30,-77,39,17,-5,2.796348447
16.506363,0,-19,-6,18,101,94,21,-38,2.796348447
16.506381,31,3,2,-17,21,-105,-8,60,2.796348447
16.507620,-36,29,12,11,16,-23,-3,39,2.796348447
16.507625,120,2,-4,-10,-60,-13,1,63,2.796348447
16.529649,88,-50,-16,11,97,67,1,-43,2.796348447
16.529704,-111,58,21,10,-71,8,14,38,2.796348447
16.530256,61,-110,-31,11,-3,-16,-5,-2,2.796348447
16.530299,47,53,8,-8,17,-51,-10,45,2.796348447
16.552122,-10,13,10,1,-99,-56,-9,14,2.796348447
16.553859,-7,8,1,-1,4,36,-3,5,2.796348447
16.553869,-42,29,10,-8,-13,14,15,17,2.796348447
16.553875,-40,-28,-9,2,15,15,-8,-69,2.796348447
16.566485,-5,-8,-7,-17,11,-31,-7,11,2.796348447
16.568056,-12,-1,-1,15,-54,41,-10,-46,2.796348447
16.568062,8,12,-3,-50,116,-68,3,-25,2.796348447
16.568065,21,-23,3,64,44,-87,3,7,2.796348447
16.589505,-105,17,-3,-21,58,45,-31,-24,2.796348447
16.589543,-26,-40,-10,-33,-10,-68,56,14,2.796348447
16.590158,-22,-8,-7,5,-110,32,-20,-42,2.796348447
16.590191,-5,-2,-1,-22,62,-91,23,-19,2.796348447
16.612237,59,10,5,1,-1,32,-4,2,2.796348447
16.612257,-49,2,1,42,47,53,-38,-52,2.796348447
16.613764,46,2,-4,3,-3,-1,35,66,2.796348447
16.613775,-19,-13,-3,4,10,43,11,-29,2.796348447
16.627078,-4,16,16,11,-128,-33,40,-16,2.796348447
16.627111,20,23,6,8,7,-2,-19,65,2.796348447
16.627118,-39,12,6,-3,-20,14,10,-15,2.796348447
16.627125,-3,-14,-12,-2,5,27,-23,-25,2.796348447
16.657018,-15,2,4,18,32,-65,28,34,2.791918370
16.657035,64,5,-4,-42,-83,35,-31,-48,2.791918370
16.658598,60,68,7,34,-35,-45,-18,36,2.791918370
16.658604,-77,-102,-30,-78,75,25,-18,-23,2.791918370
16.672102,13,-20,-10,26,78,7,11,-6,2.791918370
16.672119,92,11,4,35,68,69,11,3,2.791918370
16.674186,6,20,7,3,35,8,4,3,2.791918370
16.674192,-20,20,12,11,20,6,-2,-7,2.791918370
16.686444,-25,1,2,-17,-128,-28,1,-7,2.791918370
16.688390,-27,-20,-10,15,80,-69,-20,5,2.791918370
16.688398,-69,-2,4,-9,6,-21,2,-11,2.791918370
16.688400,-43,22,7,17,16,107,13,32,2.791918370
16.710166,-4,-30,-6,-17,-65,-9,-8,-21,2.791918370
16.710187,75,12,-3,-7,12,-16,-5,8,2.791918370
16.712273,-45,-31,-3,-10,1,32,-3,-22,2.791918370
16.712287,29,9,-5,15,19,-28,8,6,2.791918370
16.732131,15,19,2,7,-66,-48,-8,13,2.791918370
16.732162,-25,-15,-3,-63,-123,45,9,3,2.791918370
16.732862,64,30,4,64,126,-11,28,-3,2.791918370
16.732878,-69,-40,5,21,-99,39,-10,39,2.791918370
16.746456,14,-6,-12,-62,127,-2,37,-71,2.791918370
16.746475,79,36,9,21,90,-47,-24,47,2.791918370
16.747195,21,-34,-21,-102,-106,21,-5,-92,2.791918370
16.747215,-61,15,10,50,109,77,21,7,2.791918370
16.769630,-62,-40,-4,23,-79,-16,3,31,2.791918370
16.771104,31,39,10,19,-3,15,9,50,2.791918370
16.771111,-112,3,4,-19,-67,-70,-11,-47,2.791918370
16.771114,109,-35,-17,-14,13,-46,-32,-57,2.791918370
16.792172,16,19,6,3,-1,2,-18,41,2.791918370
16.792180,-43,-35,-1,-1,-4,-52,-2,-34,2.791918370
16.792807,39,8,0,16,-2,53,-5,69,2.791918370
16.792829,-10,26,9,-10,-26,-8,7,-11,2.791918370
16.807055,15,34,9,6,93,-61,-22,29,2.791918370
16.807061,-19,-12,-4,9,-128,81,7,33,2.791918370
16.807174,-70,-23,15,78,-6,-87,28,6,2.791918370
16.807181,79,28,-18,-39,98,84,1,-45,2.791918370
16.829581,-36,-31,-12,-32,-74,-79,-15,11,2.791918370
16.829598,-13,3,-7,-21,-73,-64,-18,-13,2.791918370
16.831078,-21,17,5,16,-13,-10,-4,28,2.791918370
16.831085,28,17,8,-2,67,-72,-8,23,2.791918370
16.853956,35,20,5,31,64,12,-8,21,2.791918370
16.853966,-70,-25,-8,-4,-3,-11,11,7,2.791918370
16.853969,75,0,2,-2,35,41,24,-26,2.791918370
16.853971,-72,-54,-13,-15,-56,-42,-23,-20,2.791918370
16.866848,-20,-5,-2,-5,0,60,2,-24,2.791918370
16.866880,-3,3,0,18,27,-36,-6,-30,2.791918370
16.868667,-5,-15,-14,-43,-34,31,-26,-9,2.791918370
16.868674,-32,13,15,16,-72,-7,4,90,2.791918370
16.890015,43,28,-10,10,18,-34,-10,-14,2.764251786
16.892026,-19,-29,-10,-2,-20,-8,44,-76,2.764251786
16.892033,81,44,12,24,70,120,32,122,2.764251786
16.892036,-58,-34,-2,-56,16,1,2,-34,2.764251786
16.912324,49,-32,-10,66,-117,67,-22,58,2.764251786
16.912343,52,19,-5,-70,49,11,34,-13,2.764251786
16.914161,55,-12,-2,-12,-43,-30,-20,-27,2.764251786
16.914173,7,32,10,46,17,-3,22,61,2.764251786
16.927140,42,17,7,25,54,-17,25,-14,2.764251786
16.927171,-53,-2,2,-18,-27,-27,-30,-27,2.764251786
16.929330,40,5,-8,-11,11,7,-23,-5,2.764251786
16.929353,12,-12,-11,-14,-60,-42,-12,-15,2.764251786
16.949605,-24,-4,2,-12,-3,-15,-17,-17,2.764251786
16.949629,18,26,9,24,6,-30,1,3,2.764251786
16.950391,-127,18,13,-23,17,48,19,46,2.764251786
16.950515,61,-7,-15,23,-42,14,7,-9,2.764251786
16.972370,11,9,-1,-35,-99,-59,-78,-60,2.764251786
16.972403,9,-32,-6,50,111,20,31,-17,2.764251786
16.973809,24,4,-1,-18,37,-62,-34,18,2.764251786
16.973814,-22,-3,3,-29,-12,2,16,-27,2.764251786
16.985715,3,14,11,24,-64,-13,25,8,2.764251786
16.985732,18,3,3,-34,44,114,-14,21,2.764251786
16.993991,-38,-30,-12,40,126,31,-32,-45,2.764251786
16.994010,26,23,-3,-9,-57,-30,-13,-8,2.764251786
17.009732,-20,-12,-5,-20,-15,2,13,-11,2.764251786
17.009748,-19,1,3,19,-39,-90,-24,20,2.764251786
17.010435,61,-20,-1,-1,-12,29,4,71,2.764251786
17.010461,-53,85,15,4,32,8,-16,-14,2.764251786
17.032051,82,-32,-6,-7,22,26,24,7,2.764251786
17.032099,-117,-62,-13,-12,46,-16,-13,-1,2.764251786
17.033475,79,-13,-12,-4,-119,42,-10,-27,2.764251786
17.033486,48,35,14,40,-80,-92,29,7,2.764251786
17.045930,-45,18,7,-1,127,81,5,-28,2.764251786
17.046941,-20,-11,-14,-41,-82,7,-30,-14,2.764251786
17.055429,-24,10,-3,-21,-45,-39,8,1,2.764251786
17.055438,101,-9,0,3,-25,2,-23,73,2.764251786
17.071282,-19,-6,-2,13,18,-72,6,29,2.764251786
17.071298,-28,35,7,1,24,34,3,-17,2.764251786
17.071303,-32,-35,-8,5,-8,-39,-4,-55,2.764251786
17.071309,-21,-14,0,-3,45,33,13,-2,2.764251786
17.092549,-29,3,4,-13,-4,22,-10,7,2.764251786
17.092576,53,11,1,9,-91,-24,6,71,2.764251786
17.094996,-16,0,-2,-18,-67,-8,-7,-21,2.764251786
17.095010,-28,-8,-9,-20,126,-20,-6,-16,2.764251786
17.106110,5,-2,-3,-17,-53,53,3,25,2.764251786
17.106141,46,24,11,73,-36,-103,-1,-2,2.764251786
17.113998,-110,4,8,-14,127,-38,0,-5,2.764251786
17.116028,-80,-113,-21,-69,-122,69,41,33,2.764251786
17.129869,-102,-24,-6,51,123,51,-2,-24,2.764251786
17.129887,26,-9,0,12,34,-101,-1,11,2.764251786
17.130826,33,48,9,-2,-1,81,11,55,2.764251786
17.130832,-11,42,7,-8,-55,35,-12,-19,2.764251786
17.152141,-53,-68,-23,-54,-22,-26,2,31,2.721032615
17.152162,48,14,-2,25,-42,-50,-49,-21,2.721032615
17.152808,46,2,-4,-6,-36,74,21,16,2.721032615
17.152818,-24,-3,-4,-6,-59,-102,-38,-62,2.721032615
17.165792,12,26,4,14,32,12,29,44,2.721032615
17.165814,-7,3,3,-22,-66,40,9,-12,2.721032615
17.181428,-5,-25,-1,18,95,-67,-15,-61,2.721032615
17.181445,18,9,-2,12,-57,71,-19,63,2.721032615
17.190267,19,2,0,-5,15,-45,29,-22,2.721032615
17.190290,2,-3,1,-14,34,-31,-6,-18,2.721032615
17.191781,-30,57,5,0,-21,49,-14,-11,2.721032615
17.191788,-95,-102,-17,1,-16,-99,32,-37,2.721032615
17.212532,87,3,-15,-29,-107,62,-11,-65,2.721032615
17.212551,-12,7,2,-4,0,-23,12,8,2.721032615
17.213356,-30,-5,-5,-6,-30,-19,28,-13,2.721032615
17.213368,52,110,30,51,81,-60,-11,62,2.721032615
17.227224,-10,-56,-12,-27,-55,-14,-52,4,2.721032615
17.227240,49,2,-15,5,83,54,15,-30,2.721032615
17.234012,-49,-2,4,10,-27,-42,1,-15,2.721032615
17.234030,65,16,7,11,60,22,15,-42,2.721032615
17.248980,-97,2,4,-9,32,44,-15,17,2.721032615
17.249006,92,2,1,-15,-10,43,5,3,2.721032615
17.257596,1,-47,-23,5,68,-46,10,-28,2.721032615
17.257602,4,14,9,-21,-84,-11,-2,62,2.721032615
17.273219,16,36,15,-51,-48,-128,-28,-20,2.721032615
17.273226,-88,-15,-6,96,120,112,-10,11,2.721032615
17.273229,37,-14,-5,-28,-123,57,0,8,2.721032615
17.273231,9,-3,-1,17,-16,17,14,-58,2.721032615
17.285775,4,16,5,12,-62,-1,12,114,2.721032615
17.285792,-81,-20,-9,-42,-39,-38,-25,-19,2.721032615
17.296279,96,-27,-5,6,6,-57,-34,-91,2.721032615
17.296305,-26,0,-6,0,27,-25,20,-39,2.721032615
17.309452,19,21,10,19,38,31,11,18,2.721032615
17.309479,5,68,15,-11,6,77,8,33,2.721032615
17.315964,-71,-43,-8,16,49,49,-5,-27,2.721032615
17.315982,68,-20,-12,-50,-93,-63,-8,-22,2.721032615
17.332190,32,-6,-9,39,95,-64,-42,3,2.721032615
17.332208,10,-1,4,-12,86,9,37,19,2.721032615
17.333737,-9,19,6,53,13,17,-8,13,2.721032615
17.333751,-14,11,3,15,-30,47,2,15,2.721032615
17.355308,-6,26,9,5,-109,-66,9,-19,2.721032615
17.355339,5,-24,0,-40,-88,96,10,-9,2.721032615
17.357499,71,48,11,21,93,-72,-18,-40,2.721032615
17.357505,-32,-57,-20,-9,26,28,-41,-25,2.721032615
17.368941,-52,-61,-9,-7,-30,-62,17,-25,2.721032615
17.368993,-4,0,4,1,-77,-3,4,-76,2.721032615
17.376199,34,1,6,-12,-35,25,-8,12,2.721032615
17.376225,4,24,11,17,25,41,-5,31,2.721032615
17.392425,1,38,2,-6,9,-45,33,-9,2.721032615
17.392456,-22,-36,-14,-21,-47,-23,-14,-44,2.721032615
17.394620,-5,-9,0,-12,-86,-70,4,50,2.721032615
17.394631,58,2,-6,23,98,109,-11,-19,2.721032615
17.414714,-20,8,0,32,6,71,-6,42,2.746576542
17.414727,-17,19,12,-15,-68,-110,12,23,2.746576542
17.416232,9,-28,-16,-27,-8,34,-27,-4,2.746576542
17.416268,-62,-7,2,-11,97,43,29,22,2.746576542
17.429621,126,50,-4,-25,-57,19,-20,-85,2.746576542
17.429634,64,25,7,25,20,-56,19,15,2.746576542
17.435859,-14,-64,-18,-17,-3,-26,35,-10,2.746576542
17.435876,-12,-13,-8,-18,-25,-105,-67,34,2.746576542
17.452142,-36,5,2,34,127,102,3,-83,2.746576542
17.452161,15,9,2,-7,-122,-44,-19,18,2.746576542
17.453616,-36,38,7,-21,-2,11,10,7,2.746576542
17.453713,11,-16,0,24,57,-5,15,19,2.746576542
17.475573,-15,-6,-2,-9,-101,-22,18,-32,2.746576542
17.475588,-8,-18,-2,-15,127,-43,2,115,2.746576542
17.476257,12,12,-1,12,44,37,-5,6,2.746576542
17.476297,-51,-5,9,-3,-118,-11,8,-18,2.746576542
17.489270,83,69,6,48,86,68,51,-1,2.746576542
17.489299,8,-73,0,6,49,34,-15,-9,2.746576542
17.495932,56,6,-6,-16,-39,-27,-9,18,2.746576542
17.495953,67,8,-6,-4,-42,-59,13,54,2.746576542
17.512166,-27,-7,-1,-25,-27,-51,-4,27,2.746576542
17.512191,-49,24,4,29,-33,33,14,-20,2.746576542
17.513863,-43,7,9,4,28,9,0,-23,2.746576542
17.513876,-19,0,-5,-8,14,-10,-26,-51,2.746576542
17.534663,-17,-10,2,-3,0,6,-4,21,2.746576542
17.534732,45,-24,-10,6,36,-48,-32,-69,2.746576542
17.536191,10,-8,0,-25,-118,59,41,47,2.746576542
17.536205,16,11,1,-7,71,-42,7,29,2.746576542
17.549403,-32,-27,-17,8,56,34,-19,-13,2.746576542
17.551222,-25,-2,-3,-42,-128,-58,11,-15,2.746576542
17.555828,4,15,7,34,96,-92,-13,-17,2.746576542
17.555843,14,25,7,15,72,127,14,4,2.746576542
17.572135,6,14,16,-28,-100,-67,9,29,2.746576542
17.572175,-68,-75,-19,-11,91,43,-16,-7,2.746576542
17.573661,36,-13,-7,32,-8,-37,-18,1,2.746576542
17.573701,3,2,-6,8,-13,-28,17,-21,2.746576542
17.594796,-13,15,13,2,-52,-37,-24,-33,2.746576542
17.594821,75,9,-11,8,12,54,-2,29,2.746576542
17.596853,-76,-1,2,-18,-54,-22,-16,-43,2.746576542
17.596865,43,-1,-1,-21,-99,-47,1,-43,2.746576542
17.609053,-29,0,-2,21,30,76,-28,58,2.746576542
17.609077,0,26,0,5,100,-95,19,-25,2.746576542
17.616129,-20,-15,2,10,7,-18,2,-38,2.746576542
17.616152,-19,5,-6,1,-89,40,11,52,2.746576542
17.632143,-40,-72,-9,-72,74,-121,15,-1,2.746576542
17.632178,9,14,7,27,4,117,25,15,2.746576542
17.633643,-3,2,-7,-13,49,90,1,30,2.746576542
17.633657,0,-1,1,-23,-80,-57,2,-52,2.746576542
17.654581,43,4,1,30,17,44,7,8,2.781309614
17.654598,-9,8,-2,1,-47,-34,-6,-25,2.781309614
17.656249,2,15,-5,-14,-16,-52,-14,64,2.781309614
17.656255,-29,-5,3,2,6,8,-17,-3,2.781309614
17.669354,-18,0,6,15,29,12,-6,8,2.781309614
17.669383,-25,-16,-5,-5,-39,-4,-5,21,2.781309614
17.676256,97,35,-1,7,22,-5,-5,-7,2.781309614
17.678437,-106,-32,6,19,103,47,33,-39,2.781309614
17.694318,71,-78,-27,-18,-6,-50,-32,14,2.781309614
17.694334,4,41,8,-18,-40,-73,-23,21,2.781309614
17.694337,-11,33,21,15,30,-6,24,-34,2.781309614
17.694340,51,-43,-25,-27,111,93,-2,-16,2.781309614
17.714712,4,26,4,4,-9,4,22,7,2.781309614
17.714737,-7,11,5,-14,-128,-9,-16,-21,2.781309614
17.716347,-13,-4,-7,8,64,-73,-13,-10,2.781309614
17.716360,11,35,17,23,-59,-27,-3,-3,2.781309614
17.729179,-8,6,-1,14,-39,30,-15,-6,2.781309614
17.729205,46,9,4,-8,-39,6,13,-48,2.781309614
17.736304,-30,-14,-5,-19,-87,-1,-7,42,2.781309614
17.736335,-3,-12,-3,15,41,-6,-16,-17,2.781309614
17.752304,92,67,3,7,-45,22,7,54,2.781309614
17.752321,11,-17,-7,-51,-84,-32,4,41,2.781309614
17.754242,-4,-32,-7,0,-45,61,-14,9,2.781309614
17.754248,28,18,-6,41,69,-53,-16,4,2.781309614
17.774914,-29,-10,3,-21,58,-20,34,-23,2.781309614
17.774939,45,13,-10,-45,38,77,-35,5,2.781309614
17.776260,-40,-35,8,71,48,67,20,-47,2.781309614
17.776277,-30,13,-1,-21,-128,-67,-25,36,2.781309614
17.788291,-16,-19,-6,-7,108,63,19,-5,2.781309614
17.788329,-35,-7,3,20,4,-1,-21,37,2.781309614
17.798122,56,-20,-11,-39,4,-21,-17,10,2.781309614
17.798140,13,21,-4,0,-2,-20,-14,-21,2.781309614
17.812500,-26,14,9,4,-111,-31,19,-7,2.781309614
17.814201,11,0,-3,9,0,-10,-3,59,2.781309614
17.814211,38,21,-2,-1,12,-28,10,-16,2.781309614
17.814213,-32,-22,4,2,16,29,6,4,2.781309614
17.834628,-9,3,-8,-44,-36,2,-30,-32,2.781309614
17.834672,-51,0,-2,34,-15,-69,16,-27,2.781309614
17.836230,16,-8,4,69,59,4,20,4,2.781309614
17.836266,1,8,4,-88,80,-113,37,-59,2.781309614
17.848865,-25,-16,1,41,39,112,6,-5,2.781309614
17.848874,-25,16,-1,18,126,15,14,-12,2.781309614
17.857879,-1,-23,-11,-52,-128,-105,-14,-4,2.781309614
17.857885,-70,2,6,-3,-24,36,27,-42,2.781309614
17.872256,7,14,6,18,24,-19,-1,-21,2.781309614
17.872289,-86,-14,-1,0,22,13,-13,25,2.781309614
17.873948,77,4,-16,-4,-23,0,-5,29,2.781309614
17.873953,-7,-43,-11,-12,-126,32,-7,0,2.781309614
17.894882,-38,1,3,-6,-67,-53,-39,-33,2.781309614
17.894901,-29,3,1,14,88,17,-15,-28,2.781309614
17.896647,-37,30,9,-84,-120,13,16,-1,2.781309614
17.896660,-13,1,0,108,97,-2,-19,16,2.781309614
17.908758,2,-10,-1,9,7,-43,5,5,2.773490507
17.908780,23,3,-1,-51,-102,30,7,-87,2.773490507
17.918955,-24,-23,-2,26,13,-42,14,34,2.773490507
17.918968,30,55,3,-13,122,80,12,34,2.773490507
17.932222,34,-36,-16,-28,-62,-4,4,20,2.773490507
17.932246,17,0,1,28,-87,11,-22,-24,2.773490507
17.933778,-85,-13,-4,-63,-82,-76,8,-8,2.773490507
17.933795,26,-4,1,63,15,38,-42,-9,2.773490507
17.955020,-13,10,-2,-1,59,10,17,22,2.773490507
17.955052,56,4,6,5,-35,21,17,8,2.773490507
17.956850,-43,46,11,33,6,9,-4,26,2.773490507
17.956856,77,-16,-6,-52,-17,-7,19,-4,2.773490507
17.968401,-65,-17,-6,10,27,9,-4,-55,2.773490507
17.968419,-64,-11,0,-3,-38,-72,-16,-29,2.773490507
17.978601,-8,17,5,2,59,-2,-5,-8,2.773490507
17.978612,11,12,-2,48,-6,53,20,41,2.773490507
17.992201,-22,-2,-2,-53,-128,102,15,25,2.773490507
17.992222,35,11,-5,-7,61,-80,-18,10,2.773490507
17.993929,-20,-9,-11,7,65,127,-29,-12,2.773490507
17.993960,-15,-3,4,10,57,-59,7,8,2.773490507
18.014843,33,6,0,9,-92,40,-14,7,2.773490507
18.014869,-77,26,14,32,33,29,45,42,2.773490507
18.016395,-34,-57,-9,-9,-68,-36,-19,-17,2.773490507
18.016408,-82,-60,-6,-39,-65,-46,-44,-11,2.773490507
18.028552,63,10,-9,-14,-7,-82,-12,80,2.773490507
18.028666,43,-34,-11,7,55,49,-7,-51,2.773490507
18.044787,32,25,8,5,34,16,21,38,2.773490507
18.044812,-1,17,3,-21,-72,18,4,-7,2.773490507
18.052270,-20,7,7,-1,-63,-71,-15,7,2.773490507
18.052299,-97,-9,-3,33,-32,-71,36,1,2.773490507
18.054025,82,9,-1,-14,-41,24,16,-60,2.773490507
18.054030,35,0,-9,-22,127,-8,7,84,2.773490507
18.074836,-2,-11,-5,-22,-61,34,-27,-29,2.773490507
18.074878,14,3,3,-24,-115,85,41,25,2.773490507
18.076168,-31,9,-8,49,111,25,-4,-21,2.773490507
18.076217,-10,15,11,-15,-102,-61,-9,-11,2.773490507
18.088307,-17,0,6,-10,14,-21,29,-2,2.773490507
18.088343,48,1,-9,15,53,29,-54,22,2.773490507
18.098338,35,1,0,-29,-66,9,-2,27,2.773490507
18.098350,-70,-39,-8,-2,-29,0,0,-49,2.773490507
18.112469,-39,-3,7,22,110,-24,5,-8,2.773490507
18.112494,127,-4,-17,-19,59,12,-26,22,2.773490507
18.114394,-62,20,13,5,-60,-47,-2,29,2.773490507
18.114406,101,-5,-9,-8,-21,6,13,28,2.773490507
18.135255,-7,4,6,4,123,40,7,-24,2.773490507
18.135264,-51,-16,-2,-2,-107,85,-23,-21,2.773490507
18.136168,1,7,8,29,97,-83,30,-56,2.773490507
18.136175,-15,5,-3,-6,75,77,-29,34,2.773490507
18.148601,8,1,-7,-4,-90,-30,5,-40,2.773490507
18.148643,41,8,8,7,116,32,-26,28,2.773490507
18.158752,-12,-8,-3,8,-29,3,10,-1,2.773490507
18.158766,-63,17,4,19,-111,-34,-1,-59,2.773490507
18.172526,-21,-9,-8,-26,62,-4,-21,7,2.752759725
18.172556,-105,-25,-2,-20,12,-60,-6,-5,2.752759725
18.174165,-20,-5,4,17,-14,42,13,1,2.752759725
18.174170,-50,6,-4,-9,-48,-49,-3,-5,2.752759725
18.194837,50,17,-1,28,-14,-43,-34,24,2.752759725
18.194861,-46,5,4,-38,24,16,30,-1,2.752759725
18.196682,30,-18,-3,44,43,-39,-19,53,2.752759725
18.196696,42,-3,-13,-76,-65,85,16,-31,2.752759725
18.208761,-29,-3,6,68,-29,11,6,34,2.752759725
18.208793,10,-7,-5,-22,80,-93,9,-40,2.752759725
18.217419,11,5,-2,-42,66,50,1,-2,2.752759725
18.219211,2,41,10,19,-49,-72,0,127,2.752759725
18.232242,27,-57,-14,-1,93,-37,-10,-60,2.752759725
18.232267,28,-15,-14,-11,-36,63,12,18,2.752759725
18.233859,-34,3,-4,-19,-34,-5,-20,-12,2.752759725
18.233876,24,7,4,2,30,-7,11,-5,2.752759725
18.255081,-40,4,-3,-13,13,-14,10,-61,2.752759725
18.255111,-57,23,13,32,-26,-32,-12,20,2.752759725
18.256163,27,3,-4,-21,-9,17,-4,-7,2.752759725
18.256187,-6,-27,-2,18,6,2,-3,-27,2.752759725
18.277315,-4,15,2,-1,-47,-20,23,28,2.752759725
18.277338,1,1,3,12,40,-5,-37,-18,2.752759725
18.278787,-49,7,-5,-32,-57,93,5,42,2.752759725
18.278812,-69,-11,-1,-14,-63,-60,-7,-49,2.752759725
18.292585,60,-33,-17,24,100,9,-12,-48,2.752759725
18.292599,30,11,1,-15,16,-33,33,-26,2.752759725
18.293876,2,-8,1,-31,-89,-6,21,44,2.752759725
18.293903,1,4,2,51,104,-7,-30,5,2.752759725
18.323738,1,18,1,-47,-43,33,7,89,2.752759725
18.323746,12,6,1,16,-95,-14,16,-12,2.752759725
18.323749,2,-24,-3,7,-27,-13,-31,-31,2.752759725
18.323751,47,13,4,-16,-44,-45,17,-20,2.752759725
18.339199,-63,4,6,26,36,37,-4,8,2.752759725
18.339207,33,-11,-9,8,85,-10,-10,-18,2.752759725
18.339210,13,42,9,-18,-88,-54,8,4,2.752759725
18.339213,53,-13,-7,7,80,16,-31,-43,2.752759725
18.352269,-21,-49,-11,-38,-109,75,23,40,2.752759725
18.354511,2,3,1,16,30,-16,-1,-36,2.752759725
18.354519,24,1,0,-12,72,-8,-25,-7,2.752759725
18.354522,-3,4,3,0,41,-9,-3,8,2.752759725
18.375266,9,46,11,17,-12,-33,7,-2,2.752759725
18.375296,32,28,4,-17,-7,-74,-7,3,2.752759725
18.377515,-26,1,7,20,127,93,42,8,2.752759725
18.377527,-22,-38,-11,-7,-44,-26,-16,19,2.752759725
18.397294,62,-26,-17,-25,-34,-48,-35,-37,2.752759725
18.397313,-12,-22,-6,0,-12,-35,4,-24,2.752759725
18.398841,-23,11,-2,36,-49,-51,-20,12,2.752759725
18.398848,-23,37,15,-2,-7,127,20,20,2.752759725
18.412451,-16,-13,-5,-25,-99,-90,-8,6,2.752759725
18.414535,-27,8,4,-24,-81,70,-2,35,2.752759725
18.414546,52,-30,-6,49,88,1,22,36,2.752759725
18.414549,35,24,-2,-14,-81,49,13,-86,2.752759725
18.434634,-75,-11,9,26,87,-102,-40,-16,2.797321889
18.434645,58,-19,-10,-34,29,90,-10,25,2.797321889
18.436219,-48,-13,-2,4,11,16,20,6,2.797321889
18.436256,14,57,11,7,-63,-26,34,-8,2.797321889
18.457725,-55,-29,-4,11,66,38,-18,20,2.797321889
18.457755,29,0,-7,-41,-64,-86,-22,-39,2.797321889
18.459746,-2,12,14,11,-68,-39,8,14,2.797321889
18.459807,-4,0,-14,-13,41,67,-12,50,2.797321889
18.471678,-25,2,-1,-12,-68,-14,13,-8,2.797321889
18.471704,-93,-20,-2,25,-51,1,14,38,2.797321889
18.479566,23,7,0,-16,30,-46,-36,-43,2.797321889
18.479579,78,-15,2,10,-6,-62,-12,-6,2.797321889
18.495737,18,27,6,-19,-20,39,6,-2,2.797321889
18.495752,2,2,4,35,47,-17,35,-6,2.797321889
18.496375,-95,-44,-7,38,83,-52,-44,-55,2.797321889
18.496391,6,-4,6,-24,74,60,22,9,2.797321889
18.517240,25,16,1,-17,15,-56,41,-75,2.797321889
18.519080,35,26,6,17,47,41,24,16,2.797321889
18.519088,-58,-9,-6,-63,-55,78,-26,15,2.797321889
18.519091,-50,-98,-27,29,127,-60,-38,-20,2.797321889
18.531772,17,24,-5,-10,-79,-44,-7,-22,2.797321889
18.531839,-34,-5,7,13,51,13,22,81,2.797321889
18.538837,39,28,7,10,-64,-48,15,8,2.797321889
18.538868,-94,-49,-10,-19,-39,105,8,-14,2.797321889
18.556397,56,13,1,3,-13,13,-16,36,2.797321889
18.556409,-86,-24,0,6,-71,-46,-22,-50,2.797321889
18.556416,81,-17,-14,-10,17,24,-3,5,2.797321889
18.556421,-18,20,7,3,-115,-13,24,-15,2.797321889
18.577237,-3,11,-4,-23,115,-65,-24,-71,2.797321889
18.577268,6,26,3,-2,-92,50,1,14,2.797321889
18.579031,-46,-28,1,40,92,-25,17,-27,2.797321889
18.579044,96,26,4,-4,-103,-128,6,-14,2.797321889
18.592348,-30,2,7,9,127,127,10,34,2.797321889
18.592380,52,-8,-13,-12,9,-15,-18,17,2.797321889
18.602427,-38,1,-4,-32,-48,-29,1,-37,2.797321889
18.602441,-50,-1,-7,17,-114,49,6,16,2.797321889
18.614806,84,11,5,-14,4,-80,-52,59,2.797321889
18.614827,8,8,-7,27,40,90,8,18,2.797321889
18.617151,-33,-15,8,-7,-29,10,19,-10,2.797321889
18.617164,91,-20,-18,-35,12,-74,-23,-52,2.797321889
18.637415,-17,7,6,22,-11,39,50,12,2.797321889
18.637472,32,18,2,35,-13,-33,8,3,2.797321889
18.639150,-50,4,9,25,1,-31,-29,-59,2.797321889
18.639169,-47,27,10,-24,35,104,3,22,2.797321889
18.651607,40,-25,-1,-4,-82,-36,-17,1,2.797321889
18.651631,-17,3,-9,10,118,34,-21,-1,2.797321889
18.658650,4,7,-8,-44,-79,-77,-22,-26,2.797321889
18.660746,24,1,8,25,64,-58,-4,111,2.797321889
18.675123,68,16,0,0,-99,58,25,-27,2.797321889
18.675155,18,1,10,19,-33,-13,6,33,2.797321889
18.677194,68,-16,-17,-22,63,80,-44,36,2.800679378
18.677207,80,-28,-15,0,-11,-20,-11,12,2.800679378
18.697344,4,-2,0,-7,12,1,27,2,2.800679378
18.697361,-70,12,10,-2,-16,-11,2,-26,2.800679378
18.698820,42,17,2,-5,-25,-33,-9,14,2.800679378
18.698892,-54,23,6,3,-23,-24,-10,-10,2.800679378
18.712545,-31,-8,-6,25,13,42,15,-8,2.800679378
18.712557,36,-17,-7,-41,-56,-25,-10,2,2.800679378
18.718497,-11,2,5,10,66,34,38,11,2.800679378
18.718528,-32,-12,-7,-22,61,16,-18,-17,2.800679378
18.734911,-16,7,12,2,35,-101,-19,8,2.800679378
18.734928,-23,-21,-12,-21,59,81,0,-103,2.800679378
18.736883,46,21,6,52,14,2,52,4,2.800679378
18.736890,-30,-26,-13,-35,-60,4,-32,-6,2.800679378
18.757551,102,33,-4,11,15,-74,9,7,2.800679378
18.757584,44,-5,-7,-47,-83,-106,-66,-92,2.800679378
18.759509,-95,-58,-1,21,35,120,52,45,2.800679378
18.759516,-37,42,15,41,70,-71,-5,9,2.800679378
18.771453,-76,-98,-30,-19,-41,22,-19,-36,2.800679378
18.771485,-34,18,6,-22,-123,-34,26,40,2.800679378
18.780824,-1,23,-5,-22,-12,-20,-13,-2,2.800679378
18.780831,-5,22,21,76,77,22,15,2,2.800679378
18.794989,-41,5,7,-29,-103,18,-5,12,2.800679378
18.795035,16,8,0,29,124,32,3,-4,2.800679378
18.797611,-53,-9,-5,-5,56,80,-18,-17,2.800679378
18.797622,31,-8,-5,-9,-14,-100,-29,23,2.800679378
18.817261,-29,2,0,-3,23,103,20,8,2.800679378
18.817279,37,-1,4,9,34,8,13,-41,2.800679378
18.818639,109,24,-7,-21,-78,-37,-53,35,2.800679378
18.818648,-98,-24,-8,-14,16,16,8,-28,2.800679378
18.830960,14,-5,1,18,-22,40,-18,22,2.800679378
18.830978,27,30,7,9,-6,-25,19,22,2.800679378
18.848392,-17,-15,-4,-39,-102,-110,11,-19,2.800679378
18.848399,-59,-7,-11,-20,7,-28,10,-53,2.800679378
18.855305,-108,32,13,82,30,88,26,16,2.800679378
18.855337,86,-22,-12,-8,-8,-70,-20,20,2.800679378
18.857854,52,16,-4,-37,-75,-120,11,-4,2.800679378
18.857860,-1,10,8,2,-24,-21,18,-24,2.800679378
18.877866,11,63,15,7,39,-34,-6,15,2.800679378
18.877890,-80,-74,-4,-5,-58,-41,-38,9,2.800679378
18.879503,6,-18,-5,17,-35,-7,-4,-35,2.800679378
18.879515,43,0,-4,-19,-20,35,-18,2,2.800679378
18.890895,77,7,-2,-5,57,9,-4,46,2.800679378
18.890912,-25,19,4,3,-62,41,11,82,2.800679378
18.900627,53,28,3,-12,25,-44,-23,-10,2.800679378
18.900634,-35,-39,1,1,-8,69,29,12,2.800679378
18.914804,52,-3,0,19,92,-30,12,-11,2.800679378
18.914817,3,-25,-3,-11,76,7,12,31,2.800679378
18.916415,-46,14,1,17,-46,2,27,-39,2.800679378
18.916451,93,25,4,17,29,32,-15,-15,2.800679378
18.937223,1,-55,-14,-15,-37,-73,3,33,2.882885941
18.937251,4,6,-6,-25,37,17,-5,-4,2.882885941
18.939121,19,18,9,-16,-9,-6,6,13,2.882885941
18.939127,16,-29,-7,1,44,-20,7,15,2.882885941
18.951193,21,-6,0,-12,-79,10,13,-21,2.882885941
18.951223,-17,13,8,28,-42,-47,-18,-9,2.882885941
18.961730,-1,-10,-8,-5,127,94,9,16,2.882885941
18.961844,-19,63,15,-14,-119,-51,1,68,2.882885941
18.974696,-113,-96,-34,-17,25,70,-7,38,2.882885941
18.974713,62,16,-5,-7,40,-57,-19,79,2.882885941
18.977659,17,-15,5,7,-36,31,6,-11,2.882885941
18.977681,-5,-8,0,-7,-22,-79,-8,-15,2.882885941
18.997207,-19,25,0,-5,39,61,10,-30,2.882885941
18.997224,-23,5,10,23,-76,2,6,-4,2.882885941
18.998891,26,20,7,-5,-1,-48,-14,-6,2.882885941
18.998910,-48,-16,-12,-36,-42,0,-23,-30,2.882885941
19.010912,10,5,9,28,37,-14,15,8,2.882885941
19.010932,-9,-9,-9,3,-28,11,1,-52,2.882885941
19.020815,-24,15,-6,6,27,-2,-11,2,2.882885941
19.020820,-30,27,12,-7,-32,-14,-13,-18,2.882885941
19.035126,41,-20,-3,-10,-9,-53,13,8,2.882885941
19.035192,38,-5,-1,6,61,69,16,-46,2.882885941
19.036963,-22,17,0,3,-76,-68,-62,-23,2.882885941
19.036969,33,13,5,13,5,26,-3,52,2.882885941
19.057674,-34,4,4,-4,-40,-79,26,-9,2.882885941
19.057693,22,33,-2,-40,-21,-108,20,26,2.882885941
19.058709,-20,-12,2,42,20,115,-1,-21,2.882885941
19.058744,-22,-18,-5,27,-20,-55,16,-51,2.882885941
19.071591,86,28,-1,-16,75,92,11,46,2.882885941
19.071603,-51,-10,4,-28,-46,-24,21,-11,2.882885941
19.081135,43,-12,-5,-27,-128,-18,18,-1,2.882885941
19.081148,-18,-4,-8,-5,85,0,-29,-28,2.882885941
19.094824,-32,15,12,26,-47,-45,-21,-10,2.882885941
19.094845,-42,-15,-6,7,13,61,-6,0,2.882885941
19.096470,-20,6,-3,0,27,-5,-13,-5,2.882885941
19.096479,17,12,11,10,-7,26,14,-48,2.882885941
19.118000,-3,-19,-15,-21,-10,-15,-10,-33,2.882885941
19.118009,62,3,7,-22,-81,23,0,-6,2.882885941
19.126071,58,-31,-12,9,95,-71,-37,-28,2.882885941
19.126078,46,16,-16,20,109,-41,38,3,2.882885941
19.131044,3,11,9,-8,-6,38,-41,-17,2.882885941
19.132806,-93,-33,-6,7,-66,-78,-8,-24,2.882885941
19.140119,-124,11,2,-31,-78,-12,49,-12,2.882885941
19.140125,39,-43,-13,-28,-28,21,-6,6,2.882885941
19.154756,44,6,-10,-6,-50,-103,-2,-62,2.882885941
19.154787,2,24,11,41,20,-46,2,6,2.882885941
19.156872,-4,-15,-5,-42,72,85,16,62,2.882885941
19.156879,-3,55,17,47,-64,16,-2,15,2.882885941
19.179501,-52,-41,-10,-40,-39,7,-32,-32,2.882885941
19.179513,7,1,-7,28,19,35,5,-7,2.882885941
19.179516,-14,37,7,10,-29,-27,-8,-4,2.882885941
19.179518,37,-51,-2,-1,8,29,13,38,2.882885941
19.191157,11,14,4,1,-6,3,-1,34,2.812933072
19.191173,11,5,-1,-14,-42,33,6,-4,2.812933072
19.201604,4,-7,-2,14,116,-47,-19,81,2.812933072
19.201611,5,12,5,7,-128,32,14,4,2.812933072
19.214834,-41,3,-4,26,73,-27,-17,-46,2.812933072
19.214855,1,-21,-2,-49,-81,31,11,6,2.812933072
19.216575,71,12,5,30,56,99,72,16,2.812933072
19.216586,-23,17,2,0,44,-48,16,9,2.812933072
19.237989,23,-53,-17,-10,-37,-47,-45,-13,2.812933072
19.238021,-21,20,10,9,-47,-60,-3,20,2.812933072
19.239541,7,-23,-12,1,53,-30,-10,-37,2.812933072
19.239548,-3,24,4,-17,78,10,12,-64,2.812933072
19.260113,-62,49,22,41,-95,-32,25,94,2.812933072
19.260134,2,-62,-19,-69,-8,73,-22,-58,2.812933072
19.261650,94,-2,-8,26,-14,-2,-5,-46,2.812933072
19.261672,-7,-34,-6,-6,36,-13,-28,24,2.812933072
19.275105,-16,42,6,18,-9,37,-23,12,2.812933072
19.275133,24,-2,-3,7,1,-33,5,-45,2.812933072
19.276686,-68,38,19,9,-122,-6,-10,2,2.812933072
19.276710,96,6,-3,7,126,98,41,31,2.812933072
19.297303,24,-19,1,1,-95,-45,-19,-21,2.812933072
19.297321,1,30,10,14,127,-27,-15,66,2.812933072
19.299156,-38,-12,-1,-5,-14,23,31,-60,2.812933072
19.299164,-22,16,4,-4,-127,-57,-4,31,2.812933072
19.319787,55,40,-3,-1,-7,91,34,14,2.812933072
19.319827,40,-61,-14,-8,124,-64,-29,-31,2.812933072
19.321258,-22,-9,-8,-7,-43,-33,-27,11,2.812933072
19.321273,-6,-13,-2,-36,15,43,-2,37,2.812933072
19.334712,-35,14,9,4,54,-42,22,-38,2.812933072
19.334719,-18,11,-6,56,97,87,6,25,2.812933072
19.336339,7,-9,-2,-5,-11,-45,-7,-7,2.812933072
19.336381,-53,-18,-4,7,36,3,-27,18,2.812933072
19.357499,39,-9,-8,-76,56,-111,7,-51,2.812933072
19.357516,16,17,-2,3,-8,-20,-12,85,2.812933072
19.359057,-3,-13,0,17,26,-13,-7,-37,2.812933072
19.359199,-24,19,4,-9,19,-9,19,-27,2.812933072
19.381531,-40,5,11,-23,71,-11,-8,-27,2.812933072
19.381546,0,16,0,71,77,52,38,-58,2.812933072
19.381549,-20,-79,-22,-43,-113,33,-38,39,2.812933072
19.381552,-5,-13,-9,-16,-7,-33,-33,-19,2.812933072
19.394614,25,-17,1,22,-56,-6,16,33,2.812933072
19.394635,-46,81,10,-38,-46,1,-4,-28,2.812933072
19.403611,-51,-10,8,21,27,-15,-9,23,2.812933072
19.403617,45,-18,-9,0,0,-16,-1,-23,2.812933072
19.417732,-37,-19,-1,-5,1,42,-26,-23,2.812933072
19.417763,-10,-18,-4,-4,0,4,8,2,2.812933072
19.419682,56,-8,0,-8,-1,-1,5,-10,2.812933072
19.419689,-1,22,10,21,-85,-44,-29,-1,2.812933072
19.440057,41,-2,-9,-27,3,63,65,23,2.812933072
19.440088,-61,-16,-1,-18,48,-68,29,23,2.812933072
19.441543,-17,12,0,37,-10,84,-25,-32,2.812933072
19.441549,-7,-32,-3,6,43,-56,6,36,2.812933072
19.454715,-30,1,-4,2,-76,106,-9,-49,2.760470675
19.454747,10,-6,2,3,-62,-2,14,-8,2.760470675
19.461100,-30,22,3,-16,22,-52,21,12,2.760470675
19.461196,66,-2,-13,-13,-49,-1,-31,-33,2.760470675
19.477329,97,3,-7,10,-27,-8,-21,39,2.760470675
19.477347,-5,-41,-7,-10,-20,-72,-25,58,2.760470675
19.478917,11,56,5,-10,-15,44,-2,9,2.760470675
19.478937,-17,2,4,8,-93,6,-10,-22,2.760470675
19.499763,-58,14,1,-28,-3,-1,25,14,2.760470675
19.499783,47,7,9,45,-38,60,15,-38,2.760470675
19.501264,-8,-15,-4,18,19,-59,14,25,2.760470675
19.501275,-3,5,0,-12,127,-41,16,35,2.760470675
19.514372,-30,20,-7,-36,10,72,-27,-27,2.760470675
19.514400,36,27,3,19,70,60,-9,12,2.760470675
19.521439,80,-39,-10,-15,-2,-48,-14,35,2.760470675
19.521500,-4,-16,-14,-4,-49,61,11,-75,2.760470675
19.538043,46,-26,7,7,-33,-76,-29,57,2.760470675
19.538073,-63,20,6,-13,-14,25,-17,-16,2.760470675
19.538814,-22,31,8,-2,15,-30,18,-8,2.760470675
19.538830,-46,-49,-9,1,-35,-1,-13,-17,2.760470675
19.560054,-14,-9,-3,18,42,-7,7,7,2.760470675
19.560085,84,10,-4,-10,-64,-13,-12,-40,2.760470675
19.561933,-25,8,5,-11,28,-38,0,63,2.760470675
19.561955,-50,16,5,26,-40,61,18,6,2.760470675
19.574610,-54,-9,-6,10,-2,-98,-2,-45,2.760470675
19.574635,6,-13,-4,-12,100,22,23,5,2.760470675
19.580943,9,-3,5,-32,-44,28,35,32,2.760470675
19.580969,47,17,-8,1,-44,92,-29,-13,2.760470675
19.597361,12,23,7,30,-103,-55,34,-3,2.760470675
19.597380,-50,-34,3,-22,-58,-102,-8,13,2.760470675
19.598940,52,-14,-18,-37,-86,99,0,-8,2.760470675
19.598952,-19,0,1,-21,-36,-61,-20,11,2.760470675
19.620080,50,-13,-12,18,-40,54,-18,-35,2.760470675
19.620141,-17,8,-3,-4,-32,36,-6,23,2.760470675
19.621259,-42,8,8,12,-89,-61,5,5,2.760470675
19.621273,40,2,-1,7,20,-32,16,-16,2.760470675
19.634184,-70,42,7,-6,37,17,-9,26,2.760470675
19.634242,87,-35,-5,10,46,-3,2,31,2.760470675
19.641047,-12,35,-8,12,26,-11,-26,-68,2.760470675
19.641060,-51,-20,2,-53,33,-34,6,3,2.760470675
19.657252,-10,-6,0,21,33,36,-16,55,2.760470675
19.657269,-29,9,-1,40,40,41,21,6,2.760470675
19.658857,-23,25,7,12,-64,7,3,-17,2.760470675
19.658883,59,5,-11,-22,-79,27,33,13,2.760470675
19.679875,2,-16,-5,-35,-19,13,21,-35,2.760470675
19.679903,-77,-9,-7,-36,-128,32,-3,-58,2.760470675
19.681391,-6,-25,-1,31,64,-66,-21,18,2.760470675
19.681410,14,20,14,7,103,13,-19,-36,2.760470675
19.694808,15,5,1,35,-39,59,-13,-27,2.760470675
19.694823,64,-3,-4,-35,8,-50,-26,41,2.760470675
19.700885,21,5,5,-2,13,30,11,34,2.793022509
19.700904,-27,-50,-4,-7,59,-23,25,-15,2.793022509
19.717331,-48,-3,-4,5,19,-8,-22,-16,2.793022509
19.717351,-33,21,4,3,48,24,11,-5,2.793022509
19.718801,31,-6,2,-14,-62,-78,-43,-14,2.793022509
19.718839,-1,55,9,16,91,13,3,17,2.793022509
19.740719,-37,-77,-12,10,51,4,-11,-23,2.793022509
19.740731,9,10,-1,-3,-2,-40,18,42,2.793022509
19.741323,-11,-31,-8,-3,45,-11,-19,-16,2.793022509
19.741337,8,0,-4,20,-88,-18,-24,4,2.793022509
19.753519,-40,25,14,-10,-83,-45,15,13,2.793022509
19.755496,66,-6,-10,-25,60,-67,-45,-40,2.793022509
19.763262,38,1,-3,-19,-14,90,24,18,2.793022509
19.763274,-50,36,0,-8,-52,-76,-36,59,2.793022509
19.777316,-1,-45,-14,1,-8,-37,62,-10,2.793022509
19.777336,39,38,9,25,90,21,-6,52,2.793022509
19.779235,80,-37,-14,-15,-84,-37,-28,-25,2.793022509
19.779247,-26,1,0,27,63,11,-1,-17,2.793022509
19.801083,0,10,3,-2,7,6,19,44,2.793022509
19.801098,-29,23,4,4,-88,7,10,-28,2.793022509
19.801419,24,18,2,2,71,-13,0,-10,2.793022509
19.801455,7,-26,-7,-2,-56,19,14,-21,2.793022509
19.813870,23,14,-2,-11,63,-17,-25,19,2.793022509
19.813894,-17,-41,-1,-17,-48,23,4,-16,2.793022509
19.823710,-34,10,7,35,9,8,-7,3,2.793022509
19.823721,19,-21,-3,26,99,-68,27,-18,2.793022509
19.837520,-30,6,-6,-71,-69,26,-11,-28,2.793022509
19.837552,-61,32,7,23,11,22,-22,-52,2.793022509
19.839823,56,-4,5,-18,-44,89,26,48,2.793022509
19.839830,60,-39,-25,-31,15,46,22,-5,2.793022509
19.860274,14,15,4,42,127,-61,-11,14,2.793022509
19.860312,-31,-2,-2,7,-58,-22,-9,-75,2.793022509
19.863000,8,-14,-7,-12,-38,-94,-39,-2,2.793022509
19.863014,-28,33,15,0,-52,20,1,41,2.793022509
19.873475,37,31,1,-9,1,17,-6,-35,2.793022509
19.873493,107,-57,-10,8,-19,17,-11,67,2.793022509
19.883322,-45,12,5,10,29,27,13,-23,2.793022509
19.883329,42,4,2,-7,-22,4,-8,0,2.793022509
19.897401,-27,0,-1,-16,-18,-25,-19,-28,2.793022509
19.897422,-45,7,5,20,-31,-2,21,-15,2.793022509
19.898994,-38,1,-1,-39,-37,-58,10,0,2.793022509
19.899018,24,-15,-6,54,100,67,7,61,2.793022509
19.920190,-1,2,6,4,-77,-32,54,100,2.793022509
19.920222,-44,13,-3,-31,-94,4,-1,3,2.793022509
19.921731,-17,-14,-4,-36,-49,-87,10,-6,2.793022509
19.921737,-71,22,4,30,53,-19,-12,-35,2.793022509
19.933537,49,42,3,5,-20,-8,-3,-31,2.793022509
19.933553,-34,-23,-9,21,-6,-8,-40,61,2.793022509
19.942380,35,-16,2,-11,1,-11,-21,15,2.793022509
19.942388,-127,4,9,-24,-64,15,-1,16,2.793022509
19.957815,-24,-12,-7,6,-11,3,-33,-92,2.747252548
19.957824,86,18,0,-3,-24,-12,14,23,2.747252548
19.958738,-30,-20,-5,-6,65,105,-27,2,2.747252548
19.958793,4,-8,5,18,-128,-19,-16,11,2.747252548
19.989335,-51,-4,2,-10,86,15,-6,-47,2.747252548
19.989348,-29,8,0,-14,-71,-66,42,2,2.747252548
19.989354,1,20,0,84,100,-73,-21,72,2.747252548
19.989360,78,7,1,-35,0,28,41,51,2.747252548
19.993840,-23,-20,7,4,-60,37,-7,33,2.747252548
19.993859,7,1,-18,-40,37,45,-77,-30,2.747252548
20.002984,-4,11,-1,-8,31,15,44,-43,2.747252548
20.002998,32,19,6,-2,-58,-45,-1,-26,2.747252548
20.017869,-10,-28,-5,15,32,-46,-9,1,2.747252548
20.017893,-49,-16,2,-2,39,8,-5,-5,2.747252548
