timestamp,emg1,emg2,emg3,emg4,emg5,emg6,emg7,emg8,label
10.011458,2,-12,-2,-2,-70,59,0,-43,1.762855878
10.011546,-15,-42,-14,-33,-76,48,-9,2,1.762855878
10.031140,-44,18,6,22,-22,-39,-4,-36,1.762855878
10.031161,-18,-51,-6,-13,16,-28,2,123,1.762855878
10.033553,-28,3,6,0,70,29,2,-41,1.762855878
10.033567,-1,28,4,4,48,-85,9,6,1.762855878
10.045453,19,25,-6,-11,-52,-30,-12,7,1.762855878
10.045474,-40,-2,-1,-4,5,58,-19,-50,1.762855878
10.052480,-29,-36,-4,14,48,-35,9,14,1.762855878
10.054042,15,-4,8,7,4,20,-12,-7,1.762855878
10.068497,-22,29,0,-1,9,-10,0,-46,1.762855878
10.069718,28,-10,4,-1,112,-60,-1,22,1.762855878
10.074620,45,23,0,7,-76,36,-1,74,1.762855878
10.074640,-87,25,1,23,37,-3,-9,-21,1.762855878
10.090981,-5,-84,-11,-7,47,81,12,7,1.762855878
10.091033,18,31,1,6,-125,-3,37,-37,1.762855878
10.092664,27,3,-1,-27,-58,-32,25,-45,1.762855878
10.092683,-60,-8,0,5,46,9,-10,-2,1.762855878
10.105982,47,26,7,20,30,56,13,52,1.762855878
10.105990,-3,-4,-5,-14,-24,10,-28,4,1.762855878
10.112275,-21,26,-7,-19,61,-2,-3,-44,1.762855878
10.112295,44,-29,1,14,-88,-22,1,43,1.762855878
10.128580,-14,8,-1,-2,40,16,0,-86,1.762855878
10.128599,-15,18,7,16,42,-36,-17,-19,1.762855878
10.130019,-1,3,2,-27,-3,41,-21,10,1.762855878
10.130026,102,35,-4,-6,63,39,24,38,1.762855878
10.152444,-12,-53,-3,30,87,-48,6,5,1.762855878
10.152451,23,30,1,-13,-39,-3,-5,-19,1.762855878
10.152454,-60,-16,-1,3,70,1,-10,-53,1.762855878
10.152456,14,3,-3,22,78,10,-21,-9,1.762855878
10.168158,3,47,9,-20,-1,-13,28,45,1.762855878
10.168166,54,33,1,-31,-68,12,-16,15,1.762855878
10.172754,23,-101,-7,7,23,-42,-8,26,1.762855878
10.172780,11,57,-3,12,41,49,-3,-20,1.762855878
10.188910,-3,-32,0,-2,-7,-50,-11,-13,1.762855878
10.188937,8,7,5,-5,-69,26,1,42,1.762855878
10.191047,-31,46,-5,-15,27,39,23,-69,1.762855878
10.191061,-45,-18,1,3,51,-30,-11,17,1.762855878
10.211377,8,27,-4,-33,-92,11,-11,-11,1.762855878
10.213475,10,13,4,59,127,-14,3,9,1.762855878
10.213489,9,11,-5,-3,-11,-8,-3,-50,1.762855878
10.213491,14,-22,-4,-1,-9,-14,2,18,1.762855878
10.226057,31,14,4,10,76,51,16,-9,1.744071984
10.226087,-29,-15,-4,-21,-88,-83,-9,26,1.744071984
10.232467,-12,-7,-1,4,30,15,0,0,1.744071984
10.232495,68,-4,-8,-19,41,-7,-28,-57,1.744071984
10.248782,-7,-7,3,27,77,-32,-28,91,1.744071984
10.248810,-35,34,-8,-38,70,14,14,-21,1.744071984
10.250144,6,-36,8,5,11,-10,28,20,1.744071984
10.250166,41,28,6,-11,-56,69,3,-50,1.744071984
10.271784,-13,-34,-9,-8,-42,-15,-17,22,1.744071984
10.271808,-49,-11,-3,6,66,41,-1,-82,1.744071984
10.277254,17,21,2,6,-29,-73,-14,35,1.744071984
10.277273,-10,0,1,-26,-60,-25,10,-14,1.744071984
10.285746,-15,12,-1,23,5,18,7,-24,1.744071984
10.285777,1,-25,-7,-5,-27,-1,-5,-4,1.744071984
10.292226,14,-7,0,-14,-11,7,-12,11,1.744071984
10.292250,-34,-34,-1,3,-45,3,13,-17,1.744071984
10.308444,-3,-15,-3,-15,-25,-15,-20,-29,1.744071984
10.308454,20,-1,1,25,15,-13,-5,38,1.744071984
10.310185,-49,5,-1,-7,-36,-4,30,-14,1.744071984
10.310204,-25,-2,-3,-21,64,42,7,22,1.744071984
10.331210,-37,16,0,43,-88,-46,-4,-6,1.744071984
10.331234,86,-35,-7,-33,69,43,20,-8,1.744071984
10.334037,50,20,4,-10,6,42,14,72,1.744071984
10.334043,-99,52,-1,10,-38,-34,-12,3,1.744071984
10.345602,45,-69,-9,-14,-53,-9,-13,-20,1.744071984
10.345623,-30,1,0,8,-51,-13,-2,-24,1.744071984
10.352339,11,3,1,7,6,1,-13,-20,1.744071984
10.352368,-8,6,-3,1,-31,-19,6,-17,1.744071984
10.370378,-17,36,8,13,73,4,-7,-4,1.744071984
10.370385,11,-27,-4,-1,14,6,11,-11,1.744071984
10.370389,17,-22,-9,-12,-34,12,0,-15,1.744071984
10.370391,-11,-39,-2,-30,-85,-62,-18,9,1.744071984
10.391353,-46,18,1,-1,-37,-25,17,9,1.744071984
10.391373,-59,8,0,5,94,51,-23,-24,1.744071984
10.393572,6,-13,3,39,-107,37,-12,-1,1.744071984
10.393586,12,-3,6,-38,94,55,3,10,1.744071984
10.405155,-50,-9,-12,-1,-22,49,17,-20,1.744071984
10.405178,44,17,-3,-28,25,-33,-8,47,1.744071984
10.416178,-42,-29,1,23,-79,-19,-11,-31,1.744071984
10.416189,21,18,-9,10,32,14,1,6,1.744071984
10.428560,34,3,8,-12,-31,-26,1,72,1.744071984
10.428591,2,-16,-2,-2,-24,10,1,11,1.744071984
10.430196,-19,33,5,3,53,-5,3,9,1.744071984
10.430212,30,-7,4,-2,-70,-41,-4,19,1.744071984
10.451125,-41,22,-1,7,99,5,-7,-65,1.744071984
10.451195,14,-6,-2,-3,-89,52,13,38,1.744071984
10.452593,5,-9,-2,-24,113,-55,-35,-12,1.744071984
10.452664,-25,-13,-4,31,-74,-103,-29,-37,1.744071984
10.464801,20,-22,-4,-28,63,78,3,-5,1.744071984
10.464820,16,39,10,19,-50,-17,30,23,1.744071984
10.475647,24,-24,-11,-31,-35,-32,0,-27,1.744071984
10.475662,-31,-37,-1,-17,-26,63,-16,-2,1.744071984
10.488850,-3,11,4,15,0,8,25,-29,1.724558008
10.488873,38,9,3,10,-70,-30,-6,52,1.724558008
10.490012,-4,-8,-8,-26,26,-17,-18,-39,1.724558008
10.490022,30,15,2,31,31,-35,19,17,1.724558008
10.511022,0,-67,-6,-5,-50,-10,-24,-3,1.724558008
10.511040,-9,-8,1,-5,2,0,12,-34,1.724558008
10.512590,-66,41,2,10,-49,7,8,14,1.724558008
10.512651,48,-11,-1,-1,9,24,2,-1,1.724558008
10.526559,41,32,-1,-26,-7,-17,-6,-20,1.724558008
10.526573,-89,-23,-3,47,-20,-7,10,-58,1.724558008
10.533631,11,15,2,-20,-29,21,-26,62,1.724558008
10.533642,11,-16,4,19,5,-28,26,-15,1.724558008
10.548485,3,80,7,-22,-70,-49,-1,11,1.724558008
10.548504,26,-54,-10,-2,44,36,0,-1,1.724558008
10.550232,-8,10,0,-31,-41,-7,0,9,1.724558008
10.550264,-6,24,1,38,-24,-3,-11,13,1.724558008
10.571254,56,23,-2,22,26,7,-5,-6,1.724558008
10.571262,-61,15,-5,-31,-6,-56,-16,-10,1.724558008
10.572536,-19,26,2,29,66,3,7,-12,1.724558008
10.572568,26,-112,-6,-25,-81,27,-10,7,1.724558008
10.587043,44,26,3,18,98,20,32,70,1.724558008
10.587055,-50,-5,6,22,-10,22,-11,26,1.724558008
10.595187,15,22,-7,-21,-41,-46,-12,-7,1.724558008
10.595203,-20,43,-4,-4,-68,-4,48,-22,1.724558008
10.608986,-2,-7,-1,-28,-125,62,-6,1,1.724558008
10.609006,54,-32,-5,0,54,16,5,-28,1.724558008
10.611026,-23,53,4,10,16,9,-3,34,1.724558008
10.611040,-3,26,-2,4,47,-9,-9,-60,1.724558008
10.631216,-25,-29,-8,-23,60,13,-9,-15,1.724558008
10.633440,10,30,9,0,-42,-59,-12,-38,1.724558008
10.633451,65,-14,-5,16,17,9,24,16,1.724558008
10.633453,-89,-8,-4,-18,4,-25,-23,-17,1.724558008
10.644721,45,-21,-5,-16,12,-18,-3,-13,1.724558008
10.644740,21,15,4,2,19,-10,-3,55,1.724558008
10.659854,-5,14,-4,-3,16,16,0,-48,1.724558008
10.659884,42,-53,6,4,56,20,-17,-8,1.724558008
10.668722,-19,45,-8,-14,-98,-78,-12,33,1.724558008
10.668738,-30,-22,-4,37,-14,-50,12,0,1.724558008
10.670091,4,-9,3,-17,120,49,9,-32,1.724558008
10.670111,11,42,5,3,-12,-33,-7,16,1.724558008
10.691261,-20,-20,3,17,84,31,24,-14,1.724558008
10.691293,-1,36,-7,-11,-71,-79,-15,26,1.724558008
10.694090,-70,-65,-6,-3,-17,-1,-2,-63,1.724558008
10.694104,5,22,-1,5,-14,-7,-6,16,1.724558008
10.705101,29,17,5,-13,-20,11,5,5,1.724558008
10.705126,8,16,10,-15,-54,-11,1,22,1.724558008
10.714964,14,-19,4,-11,-8,8,2,17,1.724558008
10.714977,30,0,-9,24,92,20,8,59,1.724558008
10.728523,33,-2,3,45,-6,9,-16,-11,1.724558008
10.728537,-10,-57,-5,-29,-10,41,9,-55,1.724558008
10.730074,-28,-12,1,-7,-56,-86,-9,-1,1.724558008
10.730166,-4,-6,6,23,69,99,18,8,1.724558008
10.751498,2,-49,-3,3,-46,-44,3,13,1.753639692
10.751529,2,15,-3,-10,127,49,-21,-14,1.753639692
10.754106,55,4,1,23,35,1,-2,5,1.753639692
10.754114,-1,2,-7,-41,-128,-28,15,-3,1.753639692
10.764843,-76,14,-2,-6,-36,-25,-13,-17,1.753639692
10.764867,-17,-33,-1,24,-5,84,-1,-12,1.753639692
10.773925,-18,-9,-2,-16,13,-11,6,10,1.753639692
10.773931,45,33,-7,-24,106,23,-7,-53,1.753639692
10.790060,-4,-7,-1,21,18,-35,25,3,1.753639692
10.790067,14,13,-4,-34,24,10,-23,1,1.753639692
10.790481,-10,11,4,16,-123,-8,3,85,1.753639692
10.790488,-12,15,-5,-11,16,-6,31,-31,1.753639692
10.810986,-67,-94,-3,16,-22,64,-10,-35,1.753639692
10.811010,-1,8,-6,-13,-31,22,0,-41,1.753639692
10.817422,35,13,-2,22,-81,-79,-1,-34,1.753639692
10.817443,-17,11,6,-17,53,52,-7,72,1.753639692
10.835880,0,35,8,15,50,-57,-14,38,1.753639692
10.835887,-5,10,-5,2,-67,-22,-12,-10,1.753639692
10.835891,-8,-76,-6,-22,74,54,40,10,1.753639692
10.835893,-38,9,0,21,-99,-32,3,-20,1.753639692
10.848543,33,-31,0,-17,-8,96,-6,-25,1.753639692
10.848562,11,20,5,-24,70,-82,15,43,1.753639692
10.850206,-59,1,2,42,11,-33,5,-22,1.753639692
10.850224,36,-16,-8,-7,81,25,-9,-6,1.753639692
10.871516,-5,25,-4,-28,-41,4,16,22,1.753639692
10.871545,-7,9,6,29,-27,10,10,-16,1.753639692
10.873089,12,27,9,1,73,34,-37,-25,1.753639692
10.873102,-2,2,5,-9,-20,-13,-2,45,1.753639692
10.894084,-54,-44,-5,-7,59,-48,-27,-43,1.753639692
10.896456,89,7,-1,-1,-15,-40,-20,-4,1.753639692
10.896472,-25,39,-1,-7,-30,-4,-11,13,1.753639692
10.896475,48,-50,-11,4,30,-6,-4,-59,1.753639692
10.909004,6,41,0,-9,10,40,5,27,1.753639692
10.909038,-19,-2,-1,-35,-97,-96,-17,56,1.753639692
10.911778,37,-34,-5,36,127,57,53,55,1.753639692
10.911792,11,45,-2,-12,-116,-77,-11,-14,1.753639692
10.931189,26,-41,-4,14,-83,-41,18,-27,1.753639692
10.931323,-12,-42,-5,11,69,29,-3,10,1.753639692
10.932728,-5,32,-2,-19,-122,-10,-16,-12,1.753639692
10.932745,-85,-21,4,-1,-37,43,15,63,1.753639692
10.953728,42,15,1,17,127,25,12,-63,1.753639692
10.953747,-16,7,6,-4,-56,-31,-4,6,1.753639692
10.955884,19,11,-2,-17,17,8,-20,-19,1.753639692
10.955890,-15,-32,0,23,-34,18,15,-18,1.753639692
10.968022,28,19,10,-3,-122,-43,-18,32,1.753639692
10.968045,-54,29,-9,-31,127,86,5,-26,1.753639692
10.977213,-3,-58,-12,15,45,-67,31,-3,1.753639692
10.977231,-7,-26,-3,-2,-70,10,-5,-29,1.753639692
10.991814,24,26,-2,1,42,16,-8,27,1.753639692
10.991824,4,8,-1,11,-128,-61,4,-51,1.753639692
10.992634,8,-17,-3,-2,-5,78,-22,34,1.753639692
10.992647,16,41,9,-20,-10,-6,1,3,1.753639692
11.013771,-58,-10,-5,33,36,-19,-1,9,1.749687322
11.013796,66,20,-9,-34,-24,7,-21,-27,1.749687322
11.015160,7,-17,1,22,27,-44,-8,-38,1.749687322
11.015211,-20,0,-4,-6,-47,-57,-7,-2,1.749687322
11.028131,-26,28,7,-32,88,16,-7,-15,1.749687322
11.028157,30,38,6,36,21,-2,-13,18,1.749687322
11.035274,-67,7,4,-5,-72,103,24,29,1.749687322
11.035355,12,-16,-15,-3,48,-4,-11,-8,1.749687322
11.051653,5,-21,-10,-21,-98,14,9,4,1.749687322
11.051731,-30,-7,2,2,95,33,17,24,1.749687322
11.054268,29,16,-5,5,29,-43,-19,-6,1.749687322
11.054276,-34,5,6,-20,-12,-2,8,-15,1.749687322
11.073915,38,11,-1,-3,-16,-29,-31,-24,1.749687322
11.073943,48,-40,-3,42,-92,-12,46,45,1.749687322
11.076330,-23,43,4,-35,8,112,32,21,1.749687322
11.076346,-10,-73,0,-2,4,-88,-57,-74,1.749687322
11.088708,32,60,-1,-9,-91,-31,-30,12,1.749687322
11.088732,-83,-26,6,45,46,25,15,11,1.749687322
11.097329,79,41,-1,-48,-100,-42,-19,-19,1.749687322
11.097342,-2,-90,-10,27,61,27,3,-3,1.749687322
11.111244,-55,-8,1,-11,-42,-28,20,-12,1.749687322
11.111268,43,35,1,-22,60,26,-10,-20,1.749687322
11.112935,-17,-8,0,15,86,9,20,-49,1.749687322
11.112941,87,30,-6,-26,-82,41,-16,-31,1.749687322
11.133624,-35,-24,-7,7,-49,-62,-17,-85,1.749687322
11.133659,5,-32,-11,-27,102,71,35,35,1.749687322
11.135004,20,0,0,17,-8,-64,8,78,1.749687322
11.135025,9,44,13,11,0,68,35,77,1.749687322
11.147976,-11,16,4,7,27,27,7,-26,1.749687322
11.147990,-17,1,-9,-20,-54,-13,-36,-40,1.749687322
11.154815,28,-32,1,14,66,30,-11,-32,1.749687322
11.154833,-43,33,-5,0,75,-6,-9,-17,1.749687322
11.171341,40,4,1,9,-36,6,17,102,1.749687322
11.171365,-23,13,1,-17,-41,40,20,81,1.749687322
11.172576,-47,-8,-5,-14,39,8,-17,12,1.749687322
11.172589,43,-4,-7,25,-48,-81,-27,2,1.749687322
11.195119,-91,-32,-2,12,127,38,-15,14,1.749687322
11.195135,63,-19,-8,-40,-128,-49,-8,-67,1.749687322
11.195139,-57,-18,4,15,-34,50,3,39,1.749687322
11.195186,-52,7,10,15,39,-33,28,14,1.749687322
11.208887,101,9,2,-21,24,14,-16,53,1.749687322
11.208923,-92,-1,-7,17,15,-52,-4,20,1.749687322
11.214811,-6,-29,-7,-36,-71,-33,-49,-19,1.749687322
11.214824,8,3,-1,18,101,24,-3,-4,1.749687322
11.231312,-16,-12,6,3,-44,17,26,11,1.749687322
11.231340,-2,2,14,15,82,-17,-10,-15,1.749687322
11.232632,1,12,-9,-24,1,-15,7,-9,1.749687322
11.232651,-36,7,1,10,-62,-17,0,34,1.749687322
11.253959,14,25,-6,3,-52,-11,-9,-27,1.742093545
11.253989,5,3,4,6,59,0,-6,-14,1.742093545
11.257143,10,-7,0,-38,14,14,6,7,1.742093545
11.257155,10,20,-5,12,-76,-31,-26,-101,1.742093545
11.268422,-20,-18,-6,-4,18,49,36,10,1.742093545
11.268453,25,59,17,34,-94,2,-15,6,1.742093545
11.274620,-34,-81,-10,11,10,-101,-28,-17,1.742093545
11.274642,-26,-8,-10,-45,-8,12,11,-10,1.742093545
11.291118,41,5,-4,9,-67,8,4,-15,1.742093545
11.291134,10,-2,-1,1,25,-44,8,-23,1.742093545
11.292706,5,81,0,22,89,75,16,-16,1.742093545
11.292729,-26,-22,7,-11,-63,-3,-21,20,1.742093545
11.313541,-19,-7,-2,-3,-2,-23,7,-12,1.742093545
11.313559,-22,-25,-4,2,-3,-14,-8,7,1.742093545
11.315482,40,48,5,-5,-26,6,-2,6,1.742093545
11.315510,-24,16,2,24,127,29,-5,8,1.742093545
11.327250,-10,14,-3,-25,-103,-46,-9,2,1.742093545
11.327275,-5,-18,-1,30,16,127,61,14,1.742093545
11.335946,18,-7,-3,-9,-105,-71,-13,-38,1.742093545
11.335954,89,15,4,-35,77,41,38,51,1.742093545
11.352074,-46,43,14,14,75,-14,-36,51,1.742093545
11.352087,37,-48,-15,6,-11,8,-1,54,1.742093545
11.352448,14,22,1,7,-70,-35,-17,31,1.742093545
11.352456,41,-26,4,-7,-116,8,18,20,1.742093545
11.374305,11,17,-1,17,127,-9,-10,-3,1.742093545
11.374324,2,26,0,-47,-123,-27,-17,-2,1.742093545
11.376117,-33,-3,1,31,121,-18,-8,-36,1.742093545
11.376137,-13,13,2,-1,-55,24,-12,8,1.742093545
11.387667,41,22,2,-14,43,73,16,35,1.742093545
11.387690,-116,-34,-4,23,40,-21,2,-38,1.742093545
11.397475,38,-18,-11,4,5,-71,2,-63,1.742093545
11.397492,-34,13,-1,-24,-42,-25,-26,-2,1.742093545
11.411129,-15,13,4,34,92,5,-11,-17,1.742093545
11.411147,43,16,2,-36,-77,-42,9,51,1.742093545
11.413565,-11,-4,4,5,51,19,-28,15,1.742093545
11.413584,-19,7,6,10,-25,-5,27,-28,1.742093545
11.433449,27,5,-2,12,48,27,19,-4,1.742093545
11.433468,8,-2,6,-5,35,10,-15,-29,1.742093545
11.435077,39,-22,2,23,48,15,9,52,1.742093545
11.435086,-88,10,-2,2,-54,-40,-8,73,1.742093545
11.447287,13,-29,-3,-15,-75,5,6,-48,1.742093545
11.447307,6,0,-4,3,120,-5,-4,-28,1.742093545
11.458539,19,32,0,-15,-38,13,1,-2,1.742093545
11.458553,45,-21,-1,11,46,13,-8,9,1.742093545
11.471210,2,-29,-4,-31,-44,-25,19,-1,1.742093545
11.471234,-53,13,1,41,84,-24,-19,12,1.742093545
11.472971,33,37,-7,-18,-110,-46,27,-27,1.742093545
11.472983,12,-52,-5,-37,37,23,-42,14,1.742093545
11.493832,-30,-26,-4,6,-44,-53,-1,-41,1.742093545
11.493850,-24,-24,-5,-18,12,46,6,-46,1.742093545
11.495118,-103,26,11,34,17,-28,-1,6,1.742093545
11.495133,-10,-52,-17,10,-74,29,14,-41,1.742093545
11.508767,-15,-11,5,-19,-55,-34,-5,12,1.750827517
11.508777,39,-26,-4,2,58,22,6,-21,1.750827517
11.516304,-22,5,5,-11,-115,5,14,25,1.750827517
11.516346,-5,-52,-8,-9,70,-47,-9,22,1.750827517
11.531048,-10,-13,-10,2,-1,82,-19,-67,1.750827517
11.531067,12,23,3,13,-54,-13,21,36,1.750827517
11.532618,-15,-4,-4,-11,55,29,4,-55,1.750827517
11.532638,52,40,5,-11,37,-33,27,22,1.750827517
11.555360,7,-2,-5,-11,109,-15,17,-5,1.750827517
11.555370,14,15,-6,-4,-46,-32,-44,15,1.750827517
11.555373,6,-36,2,-15,-16,49,28,14,1.750827517
11.555375,-26,73,12,44,64,20,1,-22,1.750827517
11.567861,5,-111,-11,41,-3,-10,-19,25,1.750827517
11.567893,0,26,-3,9,35,-44,-19,-31,1.750827517
11.578524,81,-9,-5,-6,27,22,-3,15,1.750827517
11.578542,-14,27,2,-2,-58,-6,7,-6,1.750827517
11.591334,-68,28,12,-17,-16,-13,11,3,1.750827517
11.591359,84,-24,-6,-5,-43,-14,-12,-15,1.750827517
11.593449,12,-10,-5,-20,-108,30,-3,48,1.750827517
11.593464,28,-8,-4,3,27,-47,12,-8,1.750827517
11.612632,-15,-10,-3,6,52,7,-43,27,1.750827517
11.612656,4,11,0,-51,-38,-39,12,-30,1.750827517
11.623989,9,44,6,24,-70,-4,-9,6,1.750827517
11.623997,-5,23,-9,30,100,35,1,-67,1.750827517
11.627393,-9,-17,-2,5,-5,-30,20,6,1.750827517
11.627414,-14,1,6,6,8,11,-12,43,1.750827517
11.636141,-2,-21,-2,-11,-13,10,-13,-15,1.750827517
11.636208,-4,45,6,-17,-6,4,11,23,1.750827517
11.651273,46,12,6,-10,-116,-22,2,4,1.750827517
11.651350,-24,7,-12,-9,51,11,11,-15,1.750827517
11.652472,-33,-5,0,13,127,88,-13,-6,1.750827517
11.652478,14,-8,3,22,-32,-16,15,2,1.750827517
11.673973,-9,12,-6,-4,29,-28,-13,28,1.750827517
11.673999,12,-20,9,-12,-60,-58,27,69,1.750827517
11.677098,14,-37,-18,-14,-29,58,-61,-48,1.750827517
11.677112,-58,-46,-3,-9,69,-36,6,51,1.750827517
11.687468,15,13,-2,5,48,73,16,26,1.750827517
11.687491,41,18,4,17,0,-7,13,-4,1.750827517
11.696099,17,-58,1,-10,22,-57,12,79,1.750827517
11.696110,24,0,-1,-17,65,92,26,26,1.750827517
11.711295,-40,10,-6,-14,-104,-4,-31,-45,1.750827517
11.711308,-59,-6,1,6,-3,-8,-15,-29,1.750827517
11.712631,26,37,5,16,55,-40,-9,-22,1.750827517
11.712644,-44,-4,4,-9,6,-26,-4,-8,1.750827517
11.733727,39,50,-4,-22,-21,8,30,10,1.750827517
11.733748,-61,-81,-7,18,-14,35,-44,-8,1.750827517
11.735787,-28,13,3,-23,-36,-47,18,0,1.750827517
11.735793,23,10,-5,14,-25,6,-21,30,1.750827517
11.756666,2,11,1,2,91,-9,-16,-11,1.750827517
11.756696,15,59,-5,-1,66,-16,8,-4,1.750827517
11.759004,-48,-23,-8,-9,67,76,0,-1,1.750827517
11.759019,25,-28,0,28,40,-84,11,-3,1.750827517
11.771504,-14,18,-3,-29,-80,59,-8,1,1.766695575
11.771521,-8,4,1,-2,89,5,6,-78,1.766695575
11.773430,46,10,10,-1,-72,-7,2,51,1.766695575
11.773438,-36,-10,-4,22,-2,14,-6,41,1.766695575
11.793945,46,-6,1,14,73,-18,-17,4,1.766695575
11.794092,-1,-3,-5,-31,-105,13,57,8,1.766695575
11.795249,-2,35,1,56,-4,-2,-37,-75,1.766695575
11.795270,-80,28,-4,-12,55,-37,-8,38,1.766695575
11.816333,19,-82,-6,25,-58,30,16,59,1.766695575
11.816365,-3,1,-7,-31,4,90,-18,34,1.766695575
11.819322,-10,-3,2,12,50,-112,2,-35,1.766695575
11.819334,32,14,2,-29,-5,33,-18,-39,1.766695575
11.831495,-19,17,-5,-20,-2,-43,-16,-13,1.766695575
11.831527,20,14,7,-5,-50,17,-3,10,1.766695575
11.834295,-19,-36,-6,12,25,0,4,-3,1.766695575
11.834304,28,8,-3,-4,-76,-37,-18,-71,1.766695575
11.853647,-21,14,2,5,61,-3,-9,-9,1.766695575
11.853684,-2,-48,-4,-14,-64,-4,-17,-33,1.766695575
11.855024,4,23,3,13,44,9,40,19,1.766695575
11.855044,1,4,-4,-24,-91,-34,-63,-10,1.766695575
11.876220,-28,0,1,5,6,-2,36,54,1.766695575
11.876249,-32,60,10,30,45,-1,-15,-15,1.766695575
11.878504,1,-52,-3,17,-91,-18,7,15,1.766695575
11.878518,29,-16,1,-9,60,40,23,-21,1.766695575
11.899356,38,14,2,-30,-113,-83,-6,-12,1.766695575
11.899363,-32,-4,-6,29,102,78,23,35,1.766695575
11.900020,-34,6,-4,-29,-45,-7,20,12,1.766695575
11.900027,16,-11,0,15,74,-10,-2,-15,1.766695575
11.914906,-1,13,-5,-12,-47,-77,-45,-39,1.766695575
11.914913,-20,-62,-4,5,-2,-17,3,-17,1.766695575
11.914966,15,52,-2,-26,-88,31,6,2,1.766695575
11.914988,-24,-40,-1,21,65,13,-33,21,1.766695575
11.936411,1,3,3,-3,-24,26,14,-22,1.766695575
11.936444,-7,5,1,12,22,-22,-24,17,1.766695575
11.938441,20,20,-3,-7,7,-3,0,-2,1.766695575
11.938454,-5,44,5,-18,-69,-24,9,-5,1.766695575
11.950407,-11,-42,-3,16,6,-39,-4,35,1.766695575
11.950425,33,35,2,-3,26,-13,-10,9,1.766695575
11.957501,0,-1,1,13,2,-13,17,-45,1.766695575
11.957528,-78,12,-3,-11,50,82,34,-49,1.766695575
11.976506,12,6,2,11,14,-43,4,9,1.766695575
11.976520,31,-1,-5,0,-86,20,41,-13,1.766695575
11.976523,-16,-28,-6,-17,22,-45,-86,2,1.766695575
11.976525,11,25,4,-18,-65,-1,6,-21,1.766695575
11.996314,10,-6,-3,9,-15,35,33,-25,1.766695575
11.996349,8,-20,3,-7,-52,-7,-31,-27,1.766695575
11.997738,-32,89,1,11,-27,22,34,-19,1.766695575
11.997751,9,-68,-5,13,12,-5,6,-8,1.766695575
12.010823,22,18,-3,-11,13,26,12,14,1.766695575
12.010850,47,-2,4,18,-2,-73,-10,65,1.766695575
12.017513,-37,29,-4,-7,-17,95,-6,0,1.766695575
12.017596,29,19,-1,8,-6,16,-1,4,1.766695575
12.033954,-45,-51,-2,-36,-11,54,24,-37,1.761431763
12.033986,45,0,0,20,29,-77,-19,-20,1.761431763
12.036569,-50,-47,-12,-12,101,-10,3,21,1.761431763
12.036579,41,32,7,11,11,10,6,-36,1.761431763
12.056504,-83,10,4,-2,92,4,-25,-61,1.761431763
12.056527,36,-10,-18,-42,-21,-25,-27,-1,1.761431763
12.057696,51,-26,3,5,46,-27,4,-29,1.761431763
12.057722,-29,-17,-10,-7,-64,4,2,-28,1.761431763
12.070485,23,41,7,24,29,5,8,-29,1.761431763
12.070524,-29,-68,-4,-8,-17,31,13,11,1.761431763
12.077238,0,12,7,-2,-1,10,2,4,1.761431763
12.077262,9,12,3,6,-128,-39,6,30,1.761431763
12.093735,16,1,-9,-31,89,9,-10,10,1.761431763
12.093755,-41,28,2,-15,-92,-40,-14,-5,1.761431763
12.095857,34,-17,5,14,-34,-18,-5,16,1.761431763
12.095864,-17,-25,-8,3,84,32,-19,-19,1.761431763
12.117393,-24,0,-4,2,1,16,49,28,1.761431763
12.117402,75,57,3,15,56,47,11,28,1.761431763
12.117448,-26,-67,-14,-25,-7,-54,-47,0,1.761431763
12.117470,15,-21,-5,-10,-43,-30,-10,87,1.761431763
12.130600,6,-11,-2,0,-44,-14,-24,4,1.761431763
12.130634,-10,-1,1,2,17,20,15,-38,1.761431763
12.137810,8,13,13,10,-26,53,34,84,1.761431763
12.137846,41,52,-4,-11,13,-51,-8,3,1.761431763
12.153914,6,-35,-8,15,-26,16,1,-10,1.761431763
12.153948,-29,13,5,4,4,-14,0,-1,1.761431763
12.155147,-3,29,7,23,85,-19,-7,-31,1.761431763
12.155157,14,-33,-1,-31,-95,-70,0,-16,1.761431763
12.176440,-42,25,0,22,108,44,24,10,1.761431763
12.176474,13,-2,-5,4,-40,-1,-20,-34,1.761431763
12.179138,19,17,3,-28,-25,-1,22,-49,1.761431763
12.179152,-17,20,2,30,88,38,-74,-49,1.761431763
12.190526,3,0,-2,6,-40,-11,-3,10,1.761431763
12.190552,-18,7,2,-22,-66,9,0,-7,1.761431763
12.204945,-14,-20,-8,-8,-44,-6,7,23,1.761431763
12.204976,-48,-7,5,2,-43,-14,11,19,1.761431763
12.213679,-1,-21,-5,-4,-17,-22,-26,24,1.761431763
12.215181,10,-12,0,11,48,24,2,94,1.761431763
12.215273,19,7,-2,-2,21,-17,7,-28,1.761431763
12.215299,19,15,0,-23,-88,-11,14,25,1.761431763
12.236239,-15,-6,-1,16,-76,53,-15,-24,1.761431763
12.236270,-16,84,-2,5,11,-63,29,-28,1.761431763
12.238091,-3,-87,-8,-19,58,-34,38,-32,1.761431763
12.238102,-2,38,6,9,55,-32,27,35,1.761431763
12.249952,31,-3,-9,-9,-26,57,-40,-39,1.761431763
12.249983,-19,2,2,-6,-29,-23,-14,-20,1.761431763
12.260908,-7,13,-3,-40,2,14,-6,13,1.761431763
12.260921,27,-13,-1,25,20,21,12,6,1.761431763
12.273446,29,-2,4,-6,-51,-30,0,-26,1.761431763
12.273453,-35,-39,1,-6,-15,23,-5,-4,1.761431763
12.275040,4,51,-4,8,0,-11,-27,-17,1.761386692
12.275050,-10,-94,-10,-7,8,15,3,-3,1.761386692
12.296058,12,30,14,12,-67,-31,-15,89,1.761386692
12.296083,40,18,-1,-1,126,54,1,10,1.761386692
12.298052,-3,-6,2,-6,-98,34,25,-14,1.761386692
12.298059,-4,28,3,-16,-79,-58,19,0,1.761386692
12.309882,-8,-1,-6,-12,-70,-25,5,-28,1.761386692
12.309911,-18,-24,0,50,85,43,19,-85,1.761386692
12.320335,1,14,9,10,13,-3,-46,51,1.761386692
12.320345,18,9,-11,9,-20,33,-3,-38,1.761386692
12.334626,-1,-67,-11,-56,0,-47,2,-8,1.761386692
12.334635,-39,-17,-2,-23,-19,-20,-7,-18,1.761386692
12.334964,0,17,7,39,25,10,-10,-12,1.761386692
12.334970,-14,29,6,1,5,14,3,-8,1.761386692
12.356110,-4,17,2,3,-23,-50,-1,3,1.761386692
12.356123,37,12,-8,-11,-77,28,4,10,1.761386692
12.358093,8,-68,-7,1,54,-8,0,67,1.761386692
12.358106,-13,-17,-4,-9,-4,-13,-1,-32,1.761386692
12.370040,69,29,1,-12,85,53,31,11,1.761386692
12.370066,-84,-34,11,62,14,44,-41,9,1.761386692
12.380281,27,21,-8,3,3,-36,-12,-9,1.761386692
12.380301,-43,-14,2,-15,-22,20,8,-13,1.761386692
12.393926,-4,19,8,20,-56,2,12,-6,1.761386692
12.393959,43,18,2,-20,-14,-3,13,-17,1.761386692
12.396233,-90,25,-1,-8,28,-48,-32,-24,1.761386692
12.396247,41,-14,-3,10,36,44,0,30,1.761386692
12.416089,-19,-39,3,-3,-20,-11,3,0,1.761386692
12.416106,-1,-12,6,16,54,-4,8,-39,1.761386692
12.417621,-60,-9,-6,-54,-78,5,16,-8,1.761386692
12.418367,104,2,-3,18,-8,-23,-7,-6,1.761386692
12.429777,19,47,-1,-27,92,-31,-21,40,1.761386692
12.429833,-57,-18,-8,11,-22,-28,1,22,1.761386692
12.446183,42,-13,0,7,96,-11,-3,-82,1.761386692
12.446201,-26,-1,-4,0,84,40,-6,23,1.761386692
12.454186,-38,30,-2,-2,-79,-73,-1,-26,1.761386692
12.454218,12,-7,5,-10,10,-20,5,-2,1.761386692
12.456994,30,8,1,8,-92,48,20,7,1.761386692
12.457001,-29,22,0,-12,-11,-33,-6,6,1.761386692
12.476266,-33,9,9,74,125,-18,-7,-17,1.761386692
12.476289,28,-5,-14,-68,-29,-33,-7,-2,1.761386692
12.482301,25,5,-7,16,-5,-28,2,24,1.761386692
12.482324,34,-29,3,-47,-31,46,47,-7,1.761386692
12.489746,-94,-22,-6,45,-48,-55,-25,-41,1.761386692
12.489754,50,-54,-8,-28,-29,62,-7,20,1.761386692
12.498888,16,32,0,2,-34,-31,-3,-24,1.761386692
12.498932,7,3,4,-3,-44,25,-4,66,1.761386692
12.514282,8,18,0,10,108,14,2,15,1.761386692
12.514313,-15,1,1,-1,-12,-10,7,36,1.761386692
12.516856,40,-15,-5,-23,-21,16,-7,35,1.761386692
12.516891,-30,27,9,44,18,-33,-9,-3,1.761386692
12.537964,-6,-66,-5,-4,80,72,16,60,1.740948850
12.537972,-10,19,-4,-28,-59,-49,-15,25,1.740948850
12.537976,-40,-55,-4,17,62,8,4,-32,1.740948850
12.537978,-16,-8,-4,-20,56,-25,-1,-6,1.740948850
12.550153,1,26,-4,-14,-9,0,-28,-23,1.740948850
12.550177,30,-19,-2,1,-88,-57,8,-22,1.740948850
12.560308,-4,25,3,-5,101,89,-18,14,1.740948850
12.560323,-54,-13,-7,8,-75,35,33,1,1.740948850
12.573892,5,-2,-5,-24,-13,6,-15,-51,1.740948850
12.573919,-20,13,-1,-6,102,-29,-10,1,1.740948850
12.576589,-37,32,2,1,-38,-31,8,2,1.740948850
12.576604,-1,6,1,1,-36,-9,-21,0,1.740948850
12.596163,-9,-22,-1,-9,-23,25,11,19,1.740948850
12.596182,13,17,1,-2,-10,14,6,1,1.740948850
12.597859,10,15,1,23,-15,3,22,-55,1.740948850
12.597873,-11,5,5,-1,19,0,-48,-11,1.740948850
12.610093,11,0,-7,-4,-22,-49,17,-40,1.740948850
12.610127,5,25,3,2,7,3,3,49,1.740948850
12.621082,-8,1,0,14,-65,3,-2,-32,1.740948850
12.621091,1,18,-5,-28,-61,-28,2,-23,1.740948850
12.633568,-3,-19,3,33,94,-4,-42,-22,1.740948850
12.633593,-33,28,10,11,-58,10,6,3,1.740948850
12.635067,57,-43,-16,0,-37,-26,-16,-32,1.740948850
12.635807,5,6,4,2,12,58,4,5,1.740948850
12.656345,33,36,3,-26,-61,26,16,69,1.740948850
12.656362,-45,36,3,20,60,13,-2,-57,1.740948850
12.658060,19,-60,0,-19,-6,-9,6,33,1.740948850
12.658067,-18,28,4,21,-5,-65,-22,-7,1.740948850
12.669864,20,-35,-12,-7,5,19,19,-12,1.740948850
12.669889,-10,-15,-8,-5,-8,24,-1,16,1.740948850
12.679809,21,16,11,18,28,24,41,24,1.740948850
12.679824,-36,20,-10,-29,-54,-15,5,-20,1.740948850
12.693534,107,-32,-1,1,17,-11,-15,-19,1.740948850
12.693549,15,7,0,-18,-14,-54,-9,-18,1.740948850
12.695137,-40,-38,-7,-13,84,32,-14,22,1.740948850
12.695148,-2,-17,9,31,57,2,18,-6,1.740948850
12.716370,-28,31,4,8,31,-32,1,-31,1.740948850
12.716448,-25,-8,-1,6,80,7,6,15,1.740948850
12.718254,45,-9,-2,-29,-128,-14,-16,-24,1.740948850
12.718262,3,17,4,-3,22,-32,-1,27,1.740948850
12.740756,37,-37,-9,8,20,-6,-3,-4,1.740948850
12.740766,-35,-13,-3,7,-33,28,3,12,1.740948850
12.740770,-19,6,-3,17,97,6,6,6,1.740948850
12.740772,20,-38,-26,-62,12,-38,-18,-9,1.740948850
12.756859,-22,10,4,0,-82,-37,2,68,1.740948850
12.756867,5,4,1,9,5,30,18,3,1.740948850
12.759710,3,26,2,12,8,-28,-22,22,1.740948850
12.759728,13,29,4,14,24,7,17,6,1.740948850
12.776344,-2,3,-1,-38,-59,49,-2,-13,1.740948850
12.776364,13,2,-4,31,35,6,-9,1,1.740948850
12.778543,8,-4,8,-11,-35,-7,-16,12,1.740948850
12.778555,6,9,-1,1,91,30,19,29,1.740948850
12.798954,-33,60,4,-9,-45,-71,-9,-7,1.737302936
12.798987,76,-20,-3,9,67,70,3,12,1.737302936
12.801466,18,-32,1,24,0,-11,-4,19,1.737302936
12.801476,-23,-14,-3,14,-33,-91,-27,-7,1.737302936
12.813665,-30,8,7,-32,-115,56,31,-25,1.737302936
12.813696,25,5,-4,3,54,-7,-8,-2,1.737302936
12.816265,-29,-16,-3,10,-25,57,-12,28,1.737302936
12.816275,16,-2,3,4,-102,14,4,-7,1.737302936
12.836149,36,-6,-1,26,-75,-44,9,-29,1.737302936
12.836169,-76,-7,7,-16,54,-112,-7,25,1.737302936
12.838114,35,-36,-8,-29,-35,17,1,5,1.737302936
12.838130,9,-11,-2,22,49,35,-14,6,1.737302936
12.859687,18,-4,1,-4,-28,-5,14,13,1.737302936
12.859720,-115,13,4,0,-128,22,-10,-25,1.737302936
12.862338,38,0,-18,-40,21,-41,-7,-5,1.737302936
12.862351,16,-46,-1,29,41,-24,-6,3,1.737302936
12.873188,-6,31,-2,-21,86,41,6,4,1.737302936
12.873213,15,-6,-2,-4,18,3,-2,0,1.737302936
12.879787,-1,42,5,-21,-31,15,10,10,1.737302936
12.879805,-25,14,-4,4,36,-25,25,-35,1.737302936
12.896023,-6,-11,4,22,-52,62,-45,-14,1.737302936
12.896041,1,34,-1,8,83,3,13,-19,1.737302936
12.897800,-46,-12,-10,-26,-36,-61,8,-12,1.737302936
12.897819,7,20,-6,-8,-31,24,-21,-60,1.737302936
12.918655,9,-24,-5,26,47,26,7,19,1.737302936
12.918673,-1,-11,-1,-26,-92,-29,-3,20,1.737302936
12.919974,-33,-10,10,13,4,-4,-18,-6,1.737302936
12.919987,44,19,0,-4,-2,-7,6,11,1.737302936
12.933226,-8,-64,-5,6,18,44,15,0,1.737302936
12.933258,-5,-25,-15,3,-54,-25,-18,-36,1.737302936
12.939838,-15,29,4,6,34,4,-14,22,1.737302936
12.939863,-9,-5,1,4,-20,41,8,-9,1.737302936
12.957023,12,25,5,2,109,4,-4,32,1.737302936
12.957030,95,25,14,22,1,31,-5,7,1.737302936
12.957456,-80,-26,-6,32,118,-22,21,-5,1.737302936
12.957508,-14,-10,3,2,-29,-78,-15,-50,1.737302936
12.978890,-4,5,-15,-38,-112,-7,-10,11,1.737302936
12.978918,-15,-15,5,0,2,10,16,-13,1.737302936
12.980807,63,47,-4,6,-4,2,5,-37,1.737302936
12.980831,-25,-65,-2,-3,-48,-5,-12,24,1.737302936
12.993016,-15,10,-4,2,86,-40,-2,-47,1.737302936
12.993034,-78,-6,2,-4,-31,9,9,48,1.737302936
12.999696,48,-24,-8,-23,-94,-24,5,20,1.737302936
12.999715,46,8,4,-11,14,19,-1,43,1.737302936
13.018897,-52,10,-5,6,-71,-25,8,8,1.737302936
13.018905,29,-24,6,32,26,29,-19,-8,1.737302936
13.018908,-37,43,5,19,30,63,69,-1,1.737302936
13.018947,12,11,-7,-12,99,4,-15,-14,1.737302936
13.039081,12,4,8,-7,53,2,15,23,1.737302936
13.039104,29,2,-6,-46,-80,-25,4,-1,1.737302936
13.040159,-35,-9,-3,55,8,-51,-17,5,1.737302936
13.040247,-18,10,-7,3,-42,95,-12,-16,1.737302936
13.053040,-3,11,6,2,94,31,15,48,1.740227777
13.053056,62,46,-10,-38,-56,-39,-6,-26,1.740227777
13.060013,-28,-38,-1,-24,20,4,-20,17,1.740227777
13.060037,-29,-13,-2,22,-6,29,16,0,1.740227777
13.076207,17,-18,7,6,58,31,2,-16,1.740227777
13.076227,1,60,-8,-3,-70,-57,-35,51,1.740227777
13.078658,-36,-2,5,-11,47,-8,4,-1,1.740227777
13.078669,16,38,3,-8,114,-29,-2,3,1.740227777
13.098918,3,-22,-2,6,68,-19,-19,-26,1.740227777
13.098945,-2,-42,-13,-18,-97,86,10,23,1.740227777
13.101704,29,25,5,-1,25,23,-10,-8,1.740227777
13.101711,-4,-2,3,2,-15,-17,-12,22,1.740227777
13.112861,15,20,1,-50,-54,-36,-9,-46,1.740227777
13.112899,-19,-40,-6,22,-5,49,8,-1,1.740227777
13.120018,0,26,0,-10,-105,-15,-9,-25,1.740227777
13.120069,-68,-47,-3,-9,-105,4,4,-3,1.740227777
13.136860,-2,36,-9,-12,-28,-24,-2,-5,1.740227777
13.136903,29,-78,-5,-8,88,30,13,-91,1.740227777
13.138669,-19,11,2,10,20,-38,-17,-6,1.740227777
13.138675,18,24,4,-14,-73,-72,25,21,1.740227777
13.158760,-43,9,-4,17,8,-2,-8,-18,1.740227777
13.158779,-24,-10,-10,1,127,73,2,-27,1.740227777
13.160125,26,5,1,-24,-128,-27,-17,13,1.740227777
13.160146,-7,-82,-11,-27,65,2,-4,-16,1.740227777
13.172739,-8,16,7,46,-24,-29,1,-37,1.740227777
13.172791,18,8,3,15,-44,14,19,16,1.740227777
13.179936,-12,1,-7,-6,0,-12,-21,-1,1.740227777
13.179956,-3,20,-1,4,31,47,-10,-21,1.740227777
13.196210,24,-26,1,-25,-106,2,24,-13,1.740227777
13.196228,65,2,-1,16,95,-45,-29,1,1.740227777
13.197740,-43,9,6,6,-9,-21,15,8,1.740227777
13.197754,40,90,-2,-19,15,-4,-31,-24,1.740227777
13.218664,-14,-90,-4,9,-63,-9,2,-16,1.740227777
13.218673,-53,31,7,10,-4,-64,-13,-14,1.740227777
13.220028,32,2,-4,-14,-60,25,-9,-23,1.740227777
13.220066,48,-13,-1,21,110,82,14,36,1.740227777
13.234241,-38,80,3,-3,-40,-66,1,-4,1.740227777
13.234249,10,-43,0,-48,-40,-18,28,16,1.740227777
13.247196,38,15,6,44,108,53,-14,-28,1.740227777
13.247272,-77,-33,-2,-1,-33,-25,18,-20,1.740227777
13.256392,50,1,-7,23,34,47,-12,108,1.740227777
13.257331,-12,4,1,-34,-58,17,37,9,1.740227777
13.257428,-25,26,-2,-23,-64,-80,0,47,1.740227777
13.257449,17,-1,8,57,91,47,-5,-4,1.740227777
13.278608,8,-20,-3,-3,0,-54,-11,-4,1.740227777
13.278632,-7,15,0,20,-1,65,5,36,1.740227777
13.280292,11,-66,-2,-37,52,-17,4,36,1.740227777
13.280305,-14,16,1,-3,-81,4,-11,5,1.740227777
13.292439,6,-29,5,15,96,49,12,20,1.740227777
13.292460,-1,28,1,10,-5,-78,5,-11,1.740227777
13.303712,13,26,3,4,-45,-10,1,15,1.748222647
13.303722,-32,0,1,-19,14,29,12,37,1.748222647
13.316031,10,1,-3,3,69,-12,4,-39,1.748222647
13.316049,-24,-31,-3,8,1,-26,-39,-19,1.748222647
13.317633,1,11,-2,6,112,30,9,-57,1.748222647
13.317657,35,5,4,-14,-113,-44,-26,34,1.748222647
13.338725,-25,27,-3,-47,8,45,26,36,1.748222647
13.338743,14,-1,9,68,68,70,16,-14,1.748222647
13.341309,-36,-29,-3,-18,-12,-11,3,50,1.748222647
13.341316,61,-29,-4,16,-34,8,9,-2,1.748222647
13.352377,-46,69,-3,-7,-21,-8,-20,-31,1.748222647
13.352408,-2,-4,-4,-30,-128,4,-11,71,1.748222647
13.361825,-21,16,0,3,62,9,-5,-47,1.748222647
13.361836,20,-12,1,-4,35,-79,30,-26,1.748222647
13.376190,48,-14,-2,10,-65,-4,-18,10,1.748222647
13.376219,-77,-24,-6,-17,-5,-50,5,-70,1.748222647
13.377694,-1,3,-5,-20,-9,31,-25,42,1.748222647
13.377712,-1,8,-3,-9,-80,-29,-14,-14,1.748222647
13.398814,9,3,5,7,110,-7,-16,-14,1.748222647
13.398838,49,-17,-10,12,1,-29,-9,-50,1.748222647
13.400807,-8,12,0,8,-9,35,-6,-17,1.748222647
13.400813,36,24,0,-18,-62,-13,11,12,1.748222647
13.412414,-42,-11,0,6,41,-15,-5,21,1.748222647
13.412438,64,-18,-1,-13,58,2,-2,15,1.748222647
13.422153,51,4,1,12,-24,-43,-1,0,1.748222647
13.422164,8,-51,-8,-6,6,6,9,60,1.748222647
13.436468,-1,11,6,12,-46,-35,5,30,1.748222647
13.436483,28,19,4,-4,-13,-8,5,-27,1.748222647
13.437467,37,-19,-6,-9,-57,69,-11,-44,1.748222647
13.437502,-80,6,3,24,119,-51,-15,-26,1.748222647
13.468417,12,-34,-6,-41,-28,5,7,5,1.748222647
13.468426,-62,18,0,13,-5,-7,11,44,1.748222647
13.468476,-11,3,-2,-38,-114,-33,34,39,1.748222647
13.468478,21,29,6,81,90,62,-58,45,1.748222647
13.472645,6,-6,-4,-7,-89,21,7,-38,1.748222647
13.472666,-10,17,4,-9,-28,-51,-1,8,1.748222647
13.482952,-7,-40,-5,-8,-30,4,5,29,1.748222647
13.482963,-2,-2,-4,-15,44,-3,7,9,1.748222647
13.496086,-35,13,-2,20,62,13,-7,-15,1.748222647
13.496110,33,-41,0,-9,-36,-8,-12,-38,1.748222647
13.499264,2,8,1,11,-29,-4,25,76,1.748222647
13.499275,-103,3,3,-23,18,29,4,-33,1.748222647
13.518645,54,-2,-13,0,41,-12,-5,-30,1.748222647
13.518662,-11,-15,7,8,7,1,8,1,1.748222647
13.520190,16,27,3,3,-9,34,2,-18,1.748222647
13.520266,-19,-18,-15,-41,-8,-84,-16,-22,1.748222647
13.532295,59,-11,1,16,42,78,46,51,1.748222647
13.532313,-32,26,-7,5,17,-18,-34,-17,1.748222647
13.543316,42,17,5,8,80,-23,9,-24,1.748222647
13.543330,-15,-19,-6,-15,-50,26,4,-56,1.748222647
13.556239,14,-1,2,-2,-34,16,5,39,1.741363462
13.556262,6,8,-8,-14,-31,-6,-6,-12,1.741363462
13.558609,-23,-6,4,43,42,7,-6,-18,1.741363462
13.558619,41,22,-3,-38,-128,-9,-2,-67,1.741363462
13.578572,-59,-19,-3,23,60,58,18,-14,1.741363462
13.578591,-17,44,17,31,-18,-8,-14,-15,1.741363462
13.580008,7,-45,-11,-38,-17,-46,-27,38,1.741363462
13.580016,25,2,-1,20,5,18,30,22,1.741363462
13.601482,-7,-2,-7,-1,14,-9,-37,-50,1.741363462
13.601514,-11,-44,-2,-20,9,1,3,21,1.741363462
13.602781,-30,4,5,16,40,-39,7,-51,1.741363462
13.602796,17,21,3,9,-77,35,4,21,1.741363462
13.616063,4,-15,5,-5,10,-49,-2,23,1.741363462
13.616114,12,44,-3,-45,61,-13,-40,23,1.741363462
13.617641,5,7,2,47,-14,11,20,35,1.741363462
13.617664,-54,-31,0,-33,31,-11,-5,-18,1.741363462
13.638962,-22,7,1,19,4,-11,-12,-17,1.741363462
13.638974,16,5,-2,-12,-1,13,10,6,1.741363462
13.639938,-5,-36,4,-10,19,1,1,-10,1.741363462
13.639955,-46,31,12,30,-66,24,-13,6,1.741363462
13.668794,76,-10,-20,-10,-32,14,-24,-44,1.741363462
13.670637,13,-48,-5,6,-21,-57,2,102,1.741363462
13.670651,-56,2,-7,-16,5,56,-15,41,1.741363462
13.670657,-6,-2,9,4,-64,57,28,22,1.741363462
13.676241,21,24,3,-17,-13,-71,-23,9,1.741363462
13.678088,-47,-13,2,18,-19,46,14,-11,1.741363462
13.678102,23,-22,-6,11,0,-20,-10,-55,1.741363462
13.678104,-70,-1,0,-25,-104,0,-22,-29,1.741363462
13.698637,-15,-15,4,29,61,52,19,21,1.741363462
13.698657,26,18,-4,-28,-88,-20,-4,-15,1.741363462
13.700019,-25,1,-7,10,27,-56,-26,-16,1.741363462
13.700048,43,-26,-8,-19,77,-56,-3,44,1.741363462
13.721521,10,0,-8,-46,-128,-64,0,-47,1.741363462
13.721549,1,3,-3,57,127,20,-19,-15,1.741363462
13.724146,-3,19,0,-10,-37,43,25,-29,1.741363462
13.724152,41,-7,-5,-8,43,8,-1,39,1.741363462
13.736398,-27,0,6,6,-41,-61,5,-1,1.741363462
13.736413,-7,13,1,-22,-24,11,1,15,1.741363462
13.737802,13,5,1,2,-42,-25,-10,-57,1.741363462
13.737896,13,-19,-7,16,55,31,27,2,1.741363462
13.759365,-9,9,4,-9,-106,-17,2,1,1.741363462
13.759390,15,-24,-11,-15,9,14,-11,5,1.741363462
13.761844,-65,23,8,-7,127,81,0,-13,1.741363462
13.761858,58,54,10,39,-1,-70,20,5,1.741363462
13.780979,5,-35,-7,-25,68,29,-6,4,1.741363462
13.780990,-14,23,-6,7,-6,-14,-19,-31,1.741363462
13.782611,10,11,4,18,-21,50,37,-5,1.741363462
13.782617,36,-5,-14,-14,-30,-54,-25,-36,1.741363462
13.795872,-43,29,4,16,-5,4,13,26,1.741363462
13.795882,32,-7,-2,-27,-3,-9,7,-8,1.741363462
13.802365,20,-20,-6,-16,-12,10,2,28,1.741363462
13.802377,24,15,1,4,14,13,-7,13,1.741363462
13.818826,-44,-86,4,2,-72,10,2,42,1.744369424
13.818843,-13,34,0,4,66,26,20,35,1.744369424
13.820248,11,19,-5,-8,-46,-68,-25,-1,1.744369424
13.820260,-65,-50,-8,3,12,37,19,-24,1.744369424
13.843678,14,27,3,6,76,-34,2,-53,1.744369424
13.843691,-26,34,-10,-47,34,-48,-10,-9,1.744369424
13.843694,47,-37,10,70,59,-8,-4,95,1.744369424
13.843697,30,10,-1,-23,11,83,2,-5,1.744369424
13.855904,-36,11,8,19,-9,15,21,-9,1.744369424
13.855936,5,22,0,-11,-56,17,24,14,1.744369424
13.870038,38,-9,-9,-20,-67,-34,-16,-51,1.744369424
13.870070,5,-13,-6,-1,29,-4,-23,-13,1.744369424
13.878580,-12,13,-1,-11,25,27,-5,38,1.744369424
13.878598,-2,28,5,18,-10,-2,3,-25,1.744369424
13.880561,1,-8,-2,-12,-37,-9,-30,4,1.744369424
13.880569,-35,12,-1,1,-45,9,18,82,1.744369424
13.901093,21,26,-6,-20,21,-5,-31,-27,1.744369424
13.901111,46,-59,-6,-13,43,-55,18,20,1.744369424
13.902704,-42,54,-3,-21,-64,7,-3,40,1.744369424
13.902717,-25,-63,0,40,123,14,11,-32,1.744369424
13.915577,17,26,-3,9,-26,-4,-15,29,1.744369424
13.915599,36,-16,10,13,-111,40,-1,-63,1.744369424
13.922277,-78,22,-5,-8,14,-58,20,-83,1.744369424
13.922293,36,-36,-8,-32,-13,-67,-51,3,1.744369424
13.938241,-8,3,1,-10,-37,10,-10,-68,1.744369424
13.938258,12,-38,-7,23,39,19,-4,-10,1.744369424
13.940044,12,28,-4,-4,5,4,-12,-25,1.744369424
13.940051,-16,14,12,-2,-70,-3,-1,-11,1.744369424
13.960419,25,-6,2,1,87,-14,7,-7,1.744369424
13.960441,-72,3,3,15,5,36,-9,-5,1.744369424
13.961535,20,-67,-7,-11,-3,4,9,-22,1.744369424
13.961541,6,38,0,12,87,-15,-21,75,1.744369424
13.974867,-11,0,-5,-16,-103,-48,4,1,1.744369424
13.974887,19,-8,1,-4,99,12,26,20,1.744369424
13.982250,0,-19,6,-3,101,82,-6,0,1.744369424
13.982276,39,-4,-10,27,-48,-48,16,-25,1.744369424
13.998686,0,-29,0,7,-6,-21,-31,13,1.744369424
13.998694,9,45,3,-21,8,79,53,22,1.744369424
13.998696,36,-36,4,7,-81,-19,9,-9,1.744369424
13.998699,-23,-7,-3,-20,-3,5,4,-3,1.744369424
14.020648,-2,24,-5,-12,9,31,11,-3,1.744369424
14.020673,-49,-11,1,20,47,2,-11,49,1.744369424
14.022897,23,5,-5,-3,94,13,-6,-10,1.744369424
14.022932,1,23,-1,-8,-53,20,9,-30,1.744369424
14.035120,-33,-7,0,10,53,7,0,0,1.744369424
14.035152,58,-28,-6,-23,-12,-11,-16,-29,1.744369424
14.042568,11,44,3,31,-5,-30,0,-14,1.744369424
14.042594,22,-6,0,-2,-24,-10,-2,-10,1.744369424
14.058097,13,33,4,12,-17,-5,2,27,1.744369424
14.058121,-63,-10,4,5,-7,77,-15,-65,1.744369424
14.060691,24,1,-3,-4,-76,-37,31,-16,1.744369424
14.060707,36,3,0,13,0,12,21,4,1.744369424
14.080446,-34,-1,-5,-34,69,-23,-17,11,1.737388562
14.080467,4,28,12,13,-34,-51,-8,16,1.737388562
14.081297,16,7,-6,-7,-9,22,-4,4,1.737388562
14.081315,-39,2,4,-10,-3,-2,-7,-5,1.737388562
14.094830,46,-46,5,17,-19,18,17,12,1.737388562
14.094853,-18,10,-1,28,-94,-78,-5,-7,1.737388562
14.102483,39,-35,-15,-98,8,105,-16,5,1.737388562
14.104235,-20,31,2,53,59,-127,-27,29,1.737388562
14.118107,38,-45,7,7,-55,9,-2,63,1.737388562
14.118131,-11,-4,-9,-6,0,59,-15,-17,1.737388562
14.119393,7,6,6,4,-32,-11,-5,26,1.737388562
14.119403,17,12,-2,0,-29,26,11,-49,1.737388562
14.148696,-17,7,-1,-1,16,2,-4,-21,1.737388562
14.148728,-28,9,4,4,-60,-26,7,26,1.737388562
14.151544,17,-36,8,12,-72,0,3,-9,1.737388562
14.151550,-47,71,-22,-39,73,28,-33,-18,1.737388562
14.154620,-32,-17,-6,22,33,-100,16,-31,1.737388562
14.154634,13,-11,-6,-37,3,54,-58,-29,1.737388562
14.162182,-13,45,8,16,4,19,18,101,1.737388562
14.162209,11,-28,5,-5,95,-14,-12,-28,1.737388562
14.177932,-4,48,-1,21,-7,17,-10,3,1.737388562
14.177952,10,-22,-7,-10,-27,-53,2,-24,1.737388562
14.179339,-52,31,-1,-3,-41,-43,-16,-19,1.737388562
14.179348,19,-17,8,18,6,25,20,-8,1.737388562
14.201768,-34,11,-2,-45,25,-15,-15,-39,1.737388562
14.201784,27,-40,-7,16,123,6,18,1,1.737388562
14.201790,-32,15,6,14,-65,-8,-2,69,1.737388562
14.201795,26,-23,-10,0,-8,6,-23,51,1.737388562
14.215023,-19,-18,-2,5,-51,76,23,11,1.737388562
14.215050,16,39,0,-5,-17,20,5,11,1.737388562
14.222651,-1,-65,-5,-6,15,11,5,-12,1.737388562
14.222725,-7,7,4,7,-20,42,12,-27,1.737388562
14.238037,19,19,-1,-2,17,9,6,29,1.737388562
14.238088,-23,34,4,6,-39,-41,-8,-5,1.737388562
14.239126,-30,-29,-5,10,21,-14,6,-9,1.737388562
14.239135,24,-19,0,-27,-44,3,-4,21,1.737388562
14.260435,-17,-5,-4,-37,-44,1,-7,-47,1.737388562
14.260462,85,23,4,70,84,3,-1,15,1.737388562
14.262934,-16,79,-2,17,27,-47,-11,-35,1.737388562
14.262947,-27,-51,-1,-25,65,-30,37,84,1.737388562
14.275206,-31,-17,1,24,113,52,-3,2,1.737388562
14.275234,30,6,-8,-71,-105,-21,3,5,1.737388562
14.282185,5,16,3,27,8,-5,-1,-3,1.737388562
14.282203,1,25,4,8,27,-5,-2,-45,1.737388562
14.297890,31,-17,5,31,-55,46,36,84,1.737388562
14.297909,-38,1,3,-17,-3,-65,-36,72,1.737388562
14.299231,23,8,-2,11,5,-46,27,-18,1.737388562
14.299242,20,-69,-6,-27,-23,27,-14,-29,1.737388562
14.321247,-57,-6,-8,-15,77,21,-25,-54,1.737388562
14.321271,33,-22,-1,20,45,-13,10,-7,1.737388562
14.321277,-88,-6,-3,13,74,-32,-13,-35,1.737388562
14.322373,59,30,1,-38,-57,4,6,7,1.734035584
14.335032,-28,4,3,15,-4,-16,6,24,1.734035584
14.336568,25,-6,-2,-18,-29,18,14,50,1.734035584
14.342137,-43,-13,-6,0,24,4,-19,-26,1.734035584
14.342156,18,-9,6,-4,-65,18,0,-17,1.734035584
14.357741,16,-3,-2,-4,-7,-20,-16,16,1.734035584
14.357754,-60,-25,3,15,10,1,1,-30,1.734035584
14.358496,2,52,-1,-10,32,0,11,-25,1.734035584
14.358525,-27,17,-1,26,-14,68,21,41,1.734035584
14.380708,86,28,-4,-26,-37,-21,-35,-17,1.734035584
14.380732,-58,3,-4,31,-8,-4,16,-20,1.734035584
14.383546,13,-49,3,-26,42,-12,12,13,1.734035584
14.383553,-22,43,1,-4,9,-18,7,-34,1.734035584
14.394964,-6,-1,-3,-27,-78,-60,2,-44,1.734035584
14.395878,12,30,12,27,67,-28,7,81,1.734035584
14.402753,-17,-27,-7,0,-24,48,-1,-67,1.734035584
14.402768,-18,19,5,3,-5,-64,-11,36,1.734035584
14.426212,-34,-31,-6,9,-54,-7,0,41,1.734035584
14.426232,-7,-13,-6,-4,-51,-6,10,-57,1.734035584
14.426884,36,10,2,-8,-20,12,-7,0,1.734035584
14.426906,49,-36,-5,8,18,-28,-13,27,1.734035584
14.440739,-2,20,-4,-1,-36,25,0,-23,1.734035584
14.440764,-13,-18,-6,-12,-28,5,2,-47,1.734035584
14.443409,-16,-2,-3,-31,-62,-10,-6,10,1.734035584
14.443422,-37,5,1,30,-66,62,5,-59,1.734035584
14.455055,16,-1,-2,21,127,-19,-28,7,1.734035584
14.455077,17,13,1,-81,-113,-16,37,-37,1.734035584
14.462350,-70,-23,9,46,-105,8,-23,28,1.734035584
14.462374,13,0,-16,-8,3,-21,10,-23,1.734035584
14.478760,6,-19,-10,-20,25,26,5,5,1.734035584
14.478793,-8,-5,2,15,30,-2,-23,-56,1.734035584
14.481506,49,-2,4,8,105,-10,2,34,1.734035584
14.481518,-8,9,6,-2,-58,18,-6,-31,1.734035584
14.500641,-14,8,2,13,-17,-7,2,10,1.734035584
14.500798,5,13,2,-11,-49,18,-3,87,1.734035584
14.501265,-20,4,-2,-8,19,7,-4,31,1.734035584
14.501371,-44,1,2,-5,-9,-2,-2,-2,1.734035584
14.514999,15,-8,14,-7,19,-9,-11,-4,1.734035584
14.515018,-9,-95,-16,6,50,22,-7,-52,1.734035584
14.522285,39,-4,-7,-25,-90,23,0,-15,1.734035584
14.522348,23,-1,0,8,112,-53,-2,19,1.734035584
14.538346,-7,35,7,-18,-87,-25,22,5,1.734035584
14.538379,10,41,2,14,-34,2,-19,17,1.734035584
14.539514,32,-80,-10,-27,-32,-35,-30,4,1.734035584
14.539524,-9,4,-1,32,15,27,53,12,1.734035584
14.560387,18,0,8,-4,50,-13,-32,-27,1.734035584
14.560405,-10,15,-4,-21,36,-27,-1,31,1.734035584
14.561171,-2,19,4,25,7,-27,-11,-85,1.734035584
14.561178,64,9,6,10,-33,51,19,46,1.734035584
14.582825,-29,-15,-5,-4,-56,33,11,-13,1.760557463
14.582853,-37,16,-2,13,12,10,2,35,1.760557463
14.583597,75,-4,-10,-20,-4,-29,-4,-1,1.760557463
14.583602,-29,-45,-2,-12,16,-40,-42,1,1.760557463
14.597893,19,45,-2,21,3,21,7,7,1.760557463
14.598841,19,7,3,3,-20,22,-9,-73,1.760557463
14.598849,-60,50,12,0,88,18,25,38,1.760557463
14.598852,-58,-43,-8,-1,-110,16,-31,-42,1.760557463
14.623309,56,3,-9,17,75,48,45,23,1.760557463
14.623316,-3,19,8,22,29,13,-10,-6,1.760557463
14.623319,-28,-52,-3,-8,-32,-44,6,16,1.760557463
14.623321,46,-24,-6,-16,-39,11,-9,51,1.760557463
14.643104,-55,-2,-1,9,-60,12,3,5,1.760557463
14.643124,65,17,-10,-23,74,63,27,3,1.760557463
14.644853,-20,-20,-12,7,-54,-16,-22,-31,1.760557463
14.644865,-8,46,0,-8,93,-33,-7,-9,1.760557463
14.658186,-8,-29,0,7,-24,36,26,-50,1.760557463
14.658215,21,3,3,2,11,-9,-20,82,1.760557463
14.659986,-11,27,-1,-20,90,-14,5,35,1.760557463
14.660002,-54,1,-2,-10,16,11,-1,-44,1.760557463
14.680400,99,51,6,31,59,-45,-47,-47,1.760557463
14.680425,-55,-56,0,-15,63,22,8,-28,1.760557463
14.681660,-9,15,-1,-5,24,-38,0,-2,1.760557463
14.681671,-28,3,-9,-7,32,-29,15,0,1.760557463
14.702943,-28,-15,-1,-18,-45,-65,-5,29,1.760557463
14.702968,-28,-18,-4,8,-62,18,31,-4,1.760557463
14.703835,60,2,2,12,-17,23,6,24,1.760557463
14.703856,6,50,8,-2,-33,-34,12,-40,1.760557463
14.717943,15,-10,-5,-29,-94,-31,-21,11,1.760557463
14.717963,-64,-58,-11,-5,-79,-49,-19,-19,1.760557463
14.718901,63,19,-4,-8,34,89,13,-18,1.760557463
14.718999,-29,-1,5,9,44,-43,11,-9,1.760557463
14.740937,-27,-42,-1,13,-72,-1,10,27,1.760557463
14.740974,48,22,-6,-19,-86,-13,-11,-14,1.760557463
14.743626,-14,11,0,-9,19,5,-2,-43,1.760557463
14.743641,-7,-45,1,8,-36,0,5,78,1.760557463
14.763142,1,-9,-2,-13,-11,-2,-12,79,1.760557463
14.763153,23,35,4,13,103,-1,-14,-38,1.760557463
14.763519,5,-31,-5,9,12,-30,12,-14,1.760557463
14.763527,1,1,3,-2,-21,-60,-24,-16,1.760557463
14.779816,19,16,2,-18,39,42,27,49,1.760557463
14.779829,-16,-14,2,11,38,-74,-25,15,1.760557463
14.779831,-44,18,4,-23,-68,40,-20,8,1.760557463
14.779833,36,17,-4,3,-44,21,16,-9,1.760557463
14.800509,11,-37,-4,-1,64,-10,2,-15,1.760557463
14.800526,-28,6,1,-17,37,-19,-15,0,1.760557463
14.801280,18,-13,-4,13,-11,7,8,-8,1.760557463
14.801285,-24,-9,-2,1,6,-12,-5,-1,1.760557463
14.823004,37,14,0,6,-34,0,-21,-101,1.760557463
14.823028,-25,20,-1,3,22,-14,18,26,1.760557463
14.825370,-64,-32,-3,1,-19,95,-18,-49,1.760557463
14.825378,-20,-20,0,21,-50,-35,-8,-23,1.760557463
14.838323,5,-32,-11,-39,106,71,0,21,1.770472186
14.838358,46,16,5,30,-62,-21,8,0,1.770472186
14.839694,-29,23,4,-1,-5,4,5,24,1.770472186
14.839699,-9,14,-4,-27,-13,-32,-47,-14,1.770472186
14.860615,-22,-34,-2,33,4,-10,24,-13,1.770472186
14.860635,-14,13,-5,-26,-80,-2,8,-18,1.770472186
14.861136,1,69,9,15,46,-2,-6,-35,1.770472186
14.861157,12,-56,-2,16,41,44,33,-10,1.770472186
14.882847,-16,27,-5,-10,-33,-37,-14,15,1.770472186
14.882870,27,-13,-3,-19,44,35,-3,18,1.770472186
14.883860,35,12,1,8,-28,-43,-9,36,1.770472186
14.883871,-9,29,-1,-25,-5,59,25,-78,1.770472186
14.906218,3,31,4,34,75,56,-30,2,1.770472186
14.906228,43,-37,-10,-47,-71,-39,-7,80,1.770472186
14.906664,-50,-26,-9,37,8,-14,7,28,1.770472186
14.906698,28,-18,1,-36,72,-99,-27,-14,1.770472186
14.920438,-46,11,-4,43,53,56,14,7,1.770472186
14.920452,-7,19,5,-22,-41,-21,6,-23,1.770472186
14.920995,15,9,3,27,50,-5,9,27,1.770472186
14.921009,46,15,-3,0,-9,12,-4,43,1.770472186
14.950919,-25,57,1,-14,-37,-40,-1,-45,1.770472186
14.950927,-26,-5,3,21,31,10,-5,14,1.770472186
14.951574,25,-51,-2,-1,9,-6,5,29,1.770472186
14.951581,-12,7,-2,-19,-35,20,0,21,1.770472186
14.957878,-32,5,6,4,1,-19,-19,-38,1.770472186
14.957896,-3,-4,-12,-11,-64,-28,-17,-45,1.770472186
14.960491,58,-27,-5,-36,87,85,35,-22,1.770472186
14.960503,11,-10,4,51,-72,-44,3,-19,1.770472186
14.981258,-20,10,2,-27,68,24,-33,58,1.770472186
14.981273,24,-12,3,27,45,-16,26,3,1.770472186
14.981276,-20,41,1,-13,-33,-27,14,-4,1.770472186
14.981347,-13,35,1,-7,48,57,-32,-3,1.770472186
15.003075,44,-31,-5,5,-73,-83,10,9,1.770472186
15.003106,-19,-3,-2,-1,11,35,1,-38,1.770472186
15.005120,13,-10,-7,-42,-15,-13,-20,17,1.770472186
15.005135,-58,34,13,49,49,19,2,16,1.770472186
15.017943,17,-41,-13,-20,-25,-7,45,-29,1.770472186
15.017961,11,16,-6,-24,-48,21,-1,16,1.770472186
15.018622,-17,-7,-4,-13,-42,-22,-14,-12,1.770472186
15.018662,45,-5,-3,26,51,49,-9,60,1.770472186
15.040849,-11,-1,0,-20,-119,-7,-12,9,1.770472186
15.040873,-20,14,2,-4,16,-4,-1,-57,1.770472186
15.042113,24,28,3,23,18,41,6,65,1.770472186
15.042120,-25,-35,-4,-39,11,38,-4,-5,1.770472186
15.063018,4,-65,9,33,-10,21,10,96,1.770472186
15.063037,11,38,-3,22,28,-52,-22,45,1.770472186
15.063521,-12,20,10,-6,13,30,-11,-48,1.770472186
15.063533,22,-8,-9,-29,-48,-28,-10,-1,1.770472186
15.078015,18,18,5,-3,4,-42,-4,-29,1.770472186
15.078056,-100,-41,-4,-7,33,2,8,-19,1.770472186
15.079549,-67,-1,6,5,21,14,11,7,1.770472186
15.079560,39,-17,-8,42,42,7,-16,-43,1.770472186
15.100524,-14,-18,-2,-7,-27,-26,2,-20,1.796746196
15.100548,9,5,6,-36,18,11,6,-20,1.796746196
15.102977,12,-3,0,21,-8,16,12,4,1.796746196
15.102984,-6,22,6,-9,-36,-60,-42,4,1.796746196
15.122939,2,5,-9,-18,-5,40,19,-53,1.796746196
15.122946,27,-20,3,17,-14,-30,-21,-15,1.796746196
15.123475,36,-8,-6,-3,-59,54,-3,44,1.796746196
15.123509,11,5,0,-15,79,16,11,15,1.796746196
15.138114,-52,45,9,-10,-98,-16,-14,14,1.796746196
15.138133,-32,-26,-9,9,67,69,-3,-2,1.796746196
15.139250,32,-7,-12,0,-12,-82,1,-64,1.796746196
15.139256,-49,-19,4,6,24,-4,-7,2,1.796746196
15.160494,48,15,-8,-5,45,-4,-10,-30,1.796746196
15.160519,-1,14,6,25,-14,16,21,2,1.796746196
15.162489,-5,7,6,-16,-12,-52,-1,-1,1.796746196
15.162501,8,12,-1,-45,-80,20,22,-19,1.796746196
15.184088,1,39,1,39,127,66,-18,0,1.796746196
15.184097,-53,-38,-1,11,4,-20,-8,-20,1.796746196
15.184100,53,-21,-8,-14,17,1,-4,9,1.796746196
15.184102,-16,18,1,-1,-50,16,14,5,1.796746196
15.200161,1,12,-2,-19,-55,-92,1,77,1.796746196
15.200168,3,-17,8,-3,71,67,3,34,1.796746196
15.205981,53,18,3,34,-10,9,10,-6,1.796746196
15.205998,-45,-27,-13,-38,-60,-28,-51,-17,1.796746196
15.220444,25,-15,3,14,11,-27,8,75,1.796746196
15.220462,65,34,-2,15,-35,27,-6,-19,1.796746196
15.221226,-78,-1,-1,-17,-35,-37,-2,-1,1.796746196
15.221231,30,3,5,36,60,25,18,-17,1.796746196
15.243003,22,-5,1,-20,-8,29,41,48,1.796746196
15.243036,28,-14,0,24,-23,-21,-2,-53,1.796746196
15.245386,-11,52,1,-37,-29,6,-2,7,1.796746196
15.245404,-34,-35,-7,14,88,-28,5,-12,1.796746196
15.261987,-9,41,0,-24,37,10,-8,-45,1.796746196
15.261999,33,-32,5,27,27,5,20,33,1.796746196
15.265542,-7,18,2,-1,41,0,-1,-12,1.796746196
15.265564,2,19,-1,4,88,-6,-1,8,1.796746196
15.280550,4,-9,2,-6,36,8,31,-51,1.796746196
15.280571,43,20,-4,-29,-106,15,-2,90,1.796746196
15.281175,-55,-31,2,24,87,80,2,10,1.796746196
15.281183,115,2,0,-8,-101,-49,-24,20,1.796746196
15.303359,-113,-24,-9,7,-25,-16,-2,-52,1.796746196
15.303376,24,-15,-4,-32,-63,6,7,-63,1.796746196
15.305036,34,-10,-5,-6,-16,-35,-14,-12,1.796746196
15.305042,11,18,-1,3,-6,23,25,-2,1.796746196
15.317650,-5,24,2,-2,-26,-19,-6,-45,1.796746196
15.317683,-26,-18,-1,20,80,-21,-2,56,1.796746196
15.325489,-10,-44,6,27,27,-30,-6,-2,1.796746196
15.325516,-75,-2,-5,-15,8,-9,-4,-26,1.796746196
15.340934,40,7,-1,-39,-113,3,15,-5,1.796746196
15.340943,-84,1,-6,34,79,-37,-53,-26,1.796746196
15.341101,5,17,-5,-5,73,34,27,29,1.796746196
15.341137,-22,28,7,33,-62,43,29,27,1.796746196
15.362892,-73,-44,-12,-6,-80,-68,12,-10,1.786227577
15.362915,43,3,-4,-37,76,29,-6,-44,1.786227577
15.364496,24,-17,-9,-27,-23,-64,-21,-1,1.786227577
15.364504,12,39,5,-3,-26,-21,15,-24,1.786227577
15.377251,20,-19,2,14,10,-6,-33,33,1.786227577
15.377276,50,29,4,13,-17,1,17,6,1.786227577
15.387430,-55,-26,-7,-10,-56,-28,-10,-55,1.786227577
15.387437,5,51,13,23,87,13,21,54,1.786227577
15.403130,49,-62,-11,7,-9,14,-30,-24,1.786227577
15.403137,16,-1,-8,-35,-88,20,10,9,1.786227577
15.403143,14,57,5,4,-16,-40,-1,10,1.786227577
15.403148,-7,-51,-4,-23,42,-46,0,42,1.786227577
15.423338,10,26,3,43,103,55,-12,-1,1.786227577
15.423361,-20,-1,0,-30,18,-53,19,4,1.786227577
15.423564,-17,25,-4,-32,-97,12,-15,-2,1.786227577
15.423585,25,7,6,22,25,-34,-5,15,1.786227577
15.437583,9,-22,-8,-3,-22,58,-7,-5,1.786227577
15.437614,-97,24,-10,-6,25,-33,-9,-37,1.786227577
15.445385,21,-68,4,18,-26,20,-8,7,1.786227577
15.445413,27,19,-6,-15,-53,-24,-8,69,1.786227577
15.460690,7,0,4,-5,80,11,-6,-57,1.786227577
15.460716,-11,18,6,11,40,4,3,3,1.786227577
15.462064,-6,1,2,22,12,-3,4,-21,1.786227577
15.462072,-1,6,-8,-7,-125,9,-11,-58,1.786227577
15.483120,-14,-29,6,-5,90,9,8,4,1.786227577
15.483167,2,-10,1,7,-76,-21,8,-27,1.786227577
15.483571,1,-8,-10,-1,-33,-92,-6,-20,1.786227577
15.483585,35,-27,-10,-21,109,112,10,-18,1.786227577
15.497345,9,5,-2,-5,-55,-45,-15,-2,1.786227577
15.497369,15,16,2,1,-11,30,7,48,1.786227577
15.505944,-21,-60,1,19,90,-85,-10,0,1.786227577
15.505970,-20,-6,-2,3,55,99,-8,-35,1.786227577
15.520488,7,21,2,-8,-24,16,3,-52,1.786227577
15.520513,4,-21,2,2,18,-8,-9,-3,1.786227577
15.523083,6,127,12,34,-85,-18,6,39,1.786227577
15.523122,6,-59,-7,-10,42,-9,-13,2,1.786227577
15.542870,16,-22,-11,-16,-8,-19,7,11,1.786227577
15.542890,-2,-15,6,16,38,-1,-7,-4,1.786227577
15.545276,14,0,-2,-4,66,77,5,54,1.786227577
15.545288,-64,9,-1,4,-45,-76,22,-77,1.786227577
15.566153,42,18,-2,7,-30,-28,-60,50,1.786227577
15.566185,-20,12,-1,-4,-56,12,24,20,1.786227577
15.568815,-24,-39,-5,-7,69,29,26,-12,1.786227577
15.568828,-28,7,3,-2,-120,-11,7,-16,1.786227577
15.580456,-18,11,12,8,26,-46,-18,12,1.786227577
15.580487,11,-17,-16,-36,-106,2,22,18,1.786227577
15.582270,2,-11,-4,23,43,3,-19,-51,1.786227577
15.582284,17,20,-3,-9,-75,-13,1,86,1.786227577
15.603197,-24,9,8,23,41,-4,13,-48,1.769633941
15.603221,0,-17,1,-5,-63,3,-18,-17,1.769633941
15.605333,35,12,-6,-19,72,-5,-1,-8,1.769633941
15.605344,-22,5,10,4,16,2,5,-39,1.769633941
15.626313,5,-36,-5,-6,60,38,12,22,1.769633941
15.626338,12,-11,1,34,-50,-49,-16,27,1.769633941
15.626941,15,6,-4,-20,12,-20,-12,-12,1.769633941
15.626965,8,-24,1,-19,-53,58,17,-47,1.769633941
15.641210,-2,58,-4,-17,-36,-21,-34,-42,1.769633941
15.641233,40,20,-4,20,-58,-35,13,-30,1.769633941
15.641403,2,-69,-4,-22,-40,-15,-51,12,1.769633941
15.641423,-4,21,-3,-6,20,-20,17,21,1.769633941
15.663116,-50,56,-2,5,-29,17,28,-1,1.769633941
15.663148,2,-51,4,-5,40,6,-13,18,1.769633941
15.665673,29,23,-6,10,-45,17,2,-36,1.769633941
15.665680,17,6,-10,-13,-16,3,-15,-2,1.769633941
15.686273,0,-20,14,48,8,-1,14,34,1.769633941
15.686319,22,32,4,-27,84,2,-7,6,1.769633941
15.686863,-30,-10,5,-15,-108,24,-1,34,1.769633941
15.686870,4,-8,-14,-15,-21,-42,-20,-27,1.769633941
15.700425,76,-11,-3,28,84,-60,-5,34,1.769633941
15.700460,-51,0,2,6,30,12,18,55,1.769633941
15.700994,60,16,7,17,11,41,28,54,1.769633941
15.701027,3,-37,-15,-50,-58,66,-28,3,1.769633941
15.723196,24,21,-3,-22,-85,-36,-2,-14,1.769633941
15.723228,-36,9,-3,14,19,2,-11,-5,1.769633941
15.726937,29,22,8,-12,-12,1,4,-21,1.769633941
15.726949,-47,-37,-2,43,36,-52,-2,7,1.769633941
15.746293,23,-34,-9,-17,18,36,9,43,1.769633941
15.746304,15,23,-2,-2,-7,3,-5,-66,1.769633941
15.746682,-59,3,-5,-15,19,7,3,-6,1.769633941
15.746691,49,16,7,49,-73,4,35,10,1.769633941
15.760409,-35,11,6,-5,-7,2,-10,27,1.769633941
15.760440,-25,-29,-7,-36,4,-16,-1,7,1.769633941
15.762473,-26,17,-3,39,-23,-42,-2,-68,1.769633941
15.762486,-6,-26,6,13,93,-19,-16,50,1.769633941
15.782850,-17,-40,-9,-58,-60,94,52,-10,1.769633941
15.782870,7,44,12,38,60,-7,16,-10,1.769633941
15.783493,-6,-52,-11,-6,-35,-32,-49,78,1.769633941
15.784246,-8,49,5,-4,-61,-78,-5,-9,1.769633941
15.806617,20,-29,-2,-8,71,-10,-41,2,1.769633941
15.806659,-5,1,-3,-7,-80,20,6,9,1.769633941
15.809337,-35,5,8,1,30,20,21,-45,1.769633941
15.809351,-64,-17,-4,-23,-95,-8,-6,-61,1.769633941
15.820783,3,24,-8,0,-74,-10,3,-24,1.769633941
15.820816,-5,-27,2,41,113,27,-30,-20,1.769633941
15.822933,-3,21,1,-4,-84,-36,-6,13,1.769633941
15.822945,23,-55,6,13,118,19,-7,-30,1.769633941
15.842867,19,41,9,-7,-56,-33,23,75,1.769633941
15.842890,1,14,2,10,72,79,-13,-11,1.769633941
15.843859,33,-20,-13,-34,-32,-13,15,-24,1.769633941
15.843884,42,19,2,5,124,-2,0,25,1.769633941
15.866078,19,17,-6,16,58,14,-5,-29,1.752292188
15.866098,16,-63,-1,-2,-83,7,15,20,1.752292188
15.867458,-5,-5,4,-1,49,40,-8,62,1.752292188
15.867470,-7,81,-6,-27,-100,-27,-10,-9,1.752292188
15.880823,10,-53,3,-2,61,-16,-5,22,1.752292188
15.880855,-62,-4,1,22,-24,-25,-2,-3,1.752292188
15.883372,5,58,-5,-17,29,34,11,-79,1.752292188
15.883379,23,-61,-9,-7,-85,-7,5,18,1.752292188
15.903184,-43,0,0,8,64,55,4,-33,1.752292188
15.903192,8,12,1,-13,20,-26,-22,-3,1.752292188
15.903469,63,-15,2,-8,23,30,38,57,1.752292188
15.903503,-75,36,14,11,14,-32,-34,-21,1.752292188
15.926264,45,15,-8,-19,-74,-3,-14,-33,1.752292188
15.926304,-39,-45,-4,1,57,38,-5,16,1.752292188
15.928955,50,-11,-15,2,5,-84,-22,-57,1.752292188
15.928967,13,49,7,9,116,97,39,29,1.752292188
15.940658,-41,-48,-10,-14,-116,14,-22,-42,1.752292188
15.940682,-14,24,0,16,63,-71,-11,-29,1.752292188
15.941816,-23,13,6,-13,-49,86,-12,15,1.752292188
15.941823,18,-46,-8,-7,-33,-44,2,-1,1.752292188
15.962876,-11,49,-4,-8,89,22,0,-58,1.752292188
15.962901,32,-32,-2,-14,-68,-35,7,14,1.752292188
15.964590,-41,-4,4,18,16,-36,-2,19,1.752292188
15.964602,23,-11,-5,-17,-42,42,17,-5,1.752292188
15.986390,-18,9,8,18,-2,-12,7,2,1.752292188
15.986424,38,57,-1,19,-62,-3,-9,26,1.752292188
15.988065,-44,-46,-3,12,86,-18,-19,14,1.752292188
15.988071,6,7,-3,-18,7,8,16,18,1.752292188
16.000367,-6,11,4,5,-91,-26,5,13,1.752292188
16.001095,-73,1,-8,5,112,7,-4,-65,1.752292188
16.001181,54,-7,1,-4,34,8,13,21,1.752292188
16.001230,7,17,-3,3,-3,47,-12,15,1.752292188
16.023177,-25,-4,1,-7,-46,-25,1,-8,1.752292188
16.024709,32,-33,-3,-40,28,-67,-3,-9,1.752292188
16.024721,-3,12,9,38,-7,0,-2,-32,1.752292188
16.024770,-9,-4,-2,1,45,-44,-2,7,1.752292188
16.046010,1,8,-6,-3,19,15,8,34,1.752292188
16.046024,31,-30,0,-24,-70,2,25,12,1.752292188
16.046662,-11,-27,-3,14,-60,-43,9,-6,1.752292188
16.046676,-7,63,-1,-14,81,82,1,-22,1.752292188
16.060423,28,-69,-1,4,0,-19,-21,1,1.752292188
16.060443,-38,12,-6,-23,24,-18,-12,16,1.752292188
16.061175,-5,3,3,8,-58,-3,11,35,1.752292188
16.061185,20,-1,4,36,85,73,4,83,1.752292188
16.082999,-4,17,-1,5,57,-63,2,17,1.752292188
16.083030,-8,30,-5,-21,-90,11,-9,-44,1.752292188
16.085619,-19,22,4,-20,-15,-62,20,-13,1.752292188
16.085625,4,-20,-12,-14,-51,-61,-43,-32,1.752292188
16.106002,-5,-23,1,-5,19,3,6,2,1.752292188
16.106018,77,23,5,20,-36,19,2,8,1.752292188
16.106768,-21,1,-5,-2,24,-13,-5,7,1.752292188
16.106781,22,8,4,0,-27,-10,0,-56,1.752292188
16.128824,-8,41,-5,-1,21,20,15,43,1.762819822
16.128849,67,-14,-4,-6,-84,23,-9,-18,1.762819822
16.130759,-84,34,2,-8,-22,-20,-15,-17,1.762819822
16.130771,41,-32,3,17,80,29,21,-5,1.762819822
16.143103,-5,-24,-7,-10,-48,-63,-1,12,1.762819822
16.143131,-4,61,4,-4,44,14,-3,17,1.762819822
16.145118,17,-26,-7,19,40,20,-6,-3,1.762819822
16.145130,-26,-20,0,-24,-100,30,18,63,1.762819822
16.168690,-28,19,14,28,27,26,13,-6,1.762819822
16.168701,-31,-34,-7,-12,-86,-26,-20,-28,1.762819822
16.168703,-2,-25,-8,-9,75,57,26,9,1.762819822
16.168706,1,47,-9,-5,9,-47,-28,-8,1.762819822
16.179728,-21,-75,-2,0,-42,-25,-7,-50,1.762819822
16.179764,34,29,3,-12,11,17,15,88,1.762819822
16.188171,-35,-13,1,30,45,1,-17,-8,1.762819822
16.188184,1,2,5,-45,-62,-42,0,-41,1.762819822
16.203222,16,25,-4,6,-20,3,-22,-2,1.762819822
16.203243,-50,-8,-4,9,-80,-17,-30,-11,1.762819822
16.205514,44,-21,-8,-17,-43,15,1,-22,1.762819822
16.205528,15,-28,3,7,-43,-57,-2,-3,1.762819822
16.226143,-27,20,-1,-32,10,-12,9,14,1.762819822
16.226176,18,7,8,30,78,26,-5,-22,1.762819822
16.228886,-59,20,3,-10,-88,12,-11,17,1.762819822
16.228899,46,-34,-10,6,52,-41,-6,-9,1.762819822
16.239930,-26,-1,5,15,12,7,6,9,1.762819822
16.239954,1,-19,0,-10,-22,68,27,-36,1.762819822
16.248101,27,16,4,14,106,-52,11,44,1.762819822
16.248127,-40,5,8,28,50,10,-21,-42,1.762819822
16.262784,88,10,2,4,63,-83,32,15,1.762819822
16.262804,-1,-17,-7,12,-6,66,3,-78,1.762819822
16.263678,11,42,0,-6,-73,27,17,19,1.762819822
16.263697,-34,-48,2,3,-2,-9,13,-15,1.762819822
16.286140,21,47,1,13,-106,38,-9,62,1.762819822
16.286171,6,-29,-6,-2,84,-28,11,26,1.762819822
16.287481,33,6,-1,-6,-38,37,-3,-18,1.762819822
16.287496,24,30,2,5,4,16,-8,40,1.762819822
16.299737,-22,-22,-5,-10,-38,22,-2,-39,1.762819822
16.299762,-14,-13,5,6,9,-32,-6,1,1.762819822
16.308117,23,32,-1,-4,50,38,-23,-44,1.762819822
16.308142,-56,-40,-4,-27,-101,29,17,-35,1.762819822
16.324022,-1,6,-6,29,101,-1,3,3,1.762819822
16.324030,-16,-11,-7,-37,-93,-90,-24,-7,1.762819822
16.324033,25,-4,0,5,95,84,15,-49,1.762819822
16.324035,-28,11,5,-2,-27,-45,7,20,1.762819822
16.345992,-21,7,1,6,74,46,15,-17,1.762819822
16.346010,-21,-18,0,-41,-12,7,-7,-4,1.762819822
16.348207,19,-16,-2,18,-25,-83,-30,-10,1.762819822
16.348215,15,13,-4,1,-5,9,1,-27,1.762819822
16.359877,-54,-57,-5,-14,-50,27,-6,-3,1.762819822
16.359915,36,31,1,30,56,2,3,31,1.762819822
16.370372,4,0,3,-29,-5,8,12,68,1.757109842
16.370382,21,-21,-3,18,-52,-57,-34,-13,1.757109842
16.383138,34,35,-5,-20,-75,73,40,-3,1.757109842
16.383168,-7,-17,2,-6,73,-60,-5,-29,1.757109842
16.384863,12,14,0,-13,-85,-39,14,48,1.757109842
16.384874,-56,-56,-22,-7,67,-12,-37,-1,1.757109842
16.413589,3,2,0,16,-40,18,-8,-24,1.757109842
16.413611,-25,35,-3,-17,-66,31,2,11,1.757109842
16.415197,-18,-4,3,6,-6,56,1,10,1.757109842
16.415212,16,21,8,1,31,-12,30,25,1.757109842
16.419867,14,-8,-7,-12,-20,-51,-23,-9,1.757109842
16.419894,18,29,0,9,20,9,12,14,1.757109842
16.428194,-39,-79,-2,-5,-24,-8,-15,-51,1.757109842
16.428213,-7,2,-4,-12,-11,21,-4,21,1.757109842
16.442988,-11,-31,8,13,-29,-6,-6,1,1.757109842
16.443016,20,20,4,-1,-62,-15,9,-11,1.757109842
16.445514,-13,-1,-7,-7,1,9,-8,-6,1.757109842
16.445526,8,25,7,3,19,74,17,26,1.757109842
16.466119,56,1,13,51,116,-90,-12,44,1.757109842
16.466138,2,-38,-20,-20,-112,-22,-28,-23,1.757109842
16.466950,47,-25,-11,-51,-94,-13,-21,-27,1.757109842
16.466971,-11,21,0,41,74,-5,14,-11,1.757109842
16.489114,-1,55,4,-21,-4,-1,-7,2,1.757109842
16.489144,-8,-8,2,21,29,14,-4,4,1.757109842
16.491773,-50,40,4,9,32,4,9,0,1.757109842
16.491781,40,-9,-7,-16,-35,5,-9,40,1.757109842
16.503334,-18,23,-1,-5,-49,-5,-4,-63,1.757109842
16.503367,27,-9,1,11,23,0,15,56,1.757109842
16.506229,-9,10,-6,0,-78,-50,-5,10,1.757109842
16.506235,-2,-1,-2,13,72,20,25,-9,1.757109842
16.526036,-28,-9,-1,-29,-97,-41,6,12,1.757109842
16.526055,-19,-7,-3,-9,92,-26,-28,-55,1.757109842
16.526991,50,8,7,-1,15,80,59,29,1.757109842
16.527041,-43,-31,-4,9,-40,-43,-13,13,1.757109842
16.548519,57,-32,-15,-24,-69,36,13,-12,1.757109842
16.548539,-32,18,2,21,34,-3,-22,10,1.757109842
16.549371,15,-3,0,4,8,-50,-8,16,1.757109842
16.549377,-30,49,3,-16,-20,-10,-7,-21,1.757109842
16.563007,12,-35,-5,4,90,40,20,7,1.757109842
16.563024,7,14,10,-26,-115,-28,13,96,1.757109842
16.564763,26,7,0,71,127,46,8,-24,1.757109842
16.564778,-27,1,-2,-46,-88,6,1,12,1.757109842
16.587775,-38,-25,-2,22,40,-7,-18,-22,1.757109842
16.587787,-21,13,0,5,-8,16,20,4,1.757109842
16.587789,2,-28,-2,-34,69,-51,-27,-11,1.757109842
16.587792,5,35,2,-1,-4,-57,-1,-5,1.757109842
16.609183,2,-34,-1,11,-73,75,-1,9,1.757109842
16.609212,-8,-7,-1,16,122,18,0,-8,1.757109842
16.611951,-29,4,-3,-11,-40,-19,-6,4,1.757109842
16.611964,19,-42,-6,-13,13,-45,-6,-27,1.757109842
16.623114,65,20,-6,-31,4,-27,-37,-35,1.757109842
16.623130,-21,-15,-1,12,-48,-43,10,24,1.757109842
16.625291,-54,11,-3,-81,-57,28,18,-99,1.757109842
16.625301,40,-8,-7,79,32,26,-22,74,1.757109842
16.646176,-19,10,8,3,-44,-10,8,26,1.744802067
16.646201,56,9,0,21,-11,13,5,-6,1.744802067
16.648912,-72,-38,-1,-1,-62,-23,3,-19,1.744802067
16.648921,-1,-11,3,-11,-29,7,11,-20,1.744802067
16.668906,-45,-4,-9,-3,74,9,-2,15,1.744802067
16.668920,9,21,-1,-12,-48,8,10,-12,1.744802067
16.669318,12,-43,-4,16,31,-17,-13,41,1.744802067
16.670905,28,34,6,1,110,10,4,-3,1.744802067
16.682993,-50,13,4,-3,-20,48,-1,6,1.744802067
16.683014,33,5,5,18,-76,-9,-42,7,1.744802067
16.683582,30,3,-7,-10,71,-75,4,5,1.744802067
16.683660,26,-20,5,0,105,65,4,7,1.744802067
16.706437,-26,39,-6,-28,-86,-12,-3,26,1.744802067
16.706469,-34,-12,4,-1,54,-26,14,9,1.744802067
16.709028,-7,16,2,24,33,94,-7,37,1.744802067
16.709049,49,-1,-2,-6,-98,-29,-11,17,1.744802067
16.728576,-24,-23,1,4,91,-20,8,-20,1.744802067
16.728617,60,-1,-15,-45,-125,5,-1,83,1.744802067
16.729302,-26,-5,-2,24,35,-5,-10,-21,1.744802067
16.729309,-13,37,4,-2,25,-5,-1,3,1.744802067
16.744809,13,-6,3,15,4,21,26,13,1.744802067
16.744822,-10,-8,-1,-7,63,6,7,-59,1.744802067
16.744825,43,18,5,-22,9,1,5,12,1.744802067
16.744827,-3,7,-3,-2,-128,-8,-4,1,1.744802067
16.766276,2,16,2,12,46,-9,-14,-28,1.744802067
16.766300,-7,-10,-8,-44,-7,28,-9,-21,1.744802067
16.768906,10,14,3,25,77,-74,-3,19,1.744802067
16.768913,-32,-30,-3,-7,-39,-8,-1,59,1.744802067
16.789933,10,-3,-2,4,-54,-7,-32,-44,1.744802067
16.789942,13,-25,-3,-16,-42,61,32,26,1.744802067
16.789945,7,-19,-3,-6,-128,53,-29,-17,1.744802067
16.789948,-11,-13,-8,-9,-3,-13,-2,-52,1.744802067
16.804599,-12,11,-2,12,15,-42,-11,11,1.744802067
16.804610,22,4,-6,6,94,-9,1,-43,1.744802067
16.804613,35,19,2,0,-14,-20,-14,-17,1.744802067
16.804615,-22,-18,5,0,-10,12,16,-15,1.744802067
16.826185,11,12,0,-13,16,3,-3,-3,1.744802067
16.826205,-46,22,4,30,56,9,15,-29,1.744802067
16.828146,36,-29,-2,-6,-60,53,-22,15,1.744802067
16.828160,4,39,1,3,-22,-78,-8,-9,1.744802067
16.850121,39,-21,-5,10,-28,24,15,-6,1.744802067
16.850131,-58,43,7,19,63,4,3,13,1.744802067
16.850133,7,-28,1,5,-87,-29,3,26,1.744802067
16.850136,1,13,4,1,44,-48,-27,23,1.744802067
16.862964,-62,-8,-12,-37,-10,80,6,-36,1.744802067
16.862986,57,0,-4,5,-6,-27,7,56,1.744802067
16.864640,-18,3,-1,1,-80,53,0,62,1.744802067
16.864653,10,-23,-6,-9,91,-3,10,-29,1.744802067
16.893629,-14,33,-2,-18,11,-31,-5,-8,1.734301478
16.893654,14,-60,0,32,39,11,0,-14,1.734301478
16.895700,-11,58,-2,2,-37,-21,-3,-17,1.734301478
16.895716,28,-89,-7,-10,17,10,-1,13,1.734301478
16.912420,-1,-5,0,-18,13,1,-2,-34,1.734301478
16.912433,-14,2,-14,-18,2,-9,-27,-12,1.734301478
16.912436,-18,23,5,31,3,-10,3,-19,1.734301478
16.912438,9,21,-1,-20,-70,-1,0,-24,1.734301478
16.922391,-2,-18,9,21,0,-37,20,20,1.734301478
16.922414,11,26,-1,-30,30,67,-23,-17,1.734301478
16.931699,-1,-21,3,25,37,-70,-29,-36,1.734301478
16.931713,-17,-8,-4,-5,-86,-10,-5,13,1.734301478
16.946104,60,-13,-8,-22,65,62,22,64,1.734301478
16.946124,-22,3,1,26,58,-22,-6,23,1.734301478
16.947798,-7,8,1,-20,-30,-11,10,6,1.734301478
16.947825,0,19,6,24,84,98,10,13,1.734301478
16.969253,0,4,4,-30,-7,-87,-21,25,1.734301478
16.969293,-69,-16,-1,-9,-104,-25,-4,-22,1.734301478
16.972254,62,-7,-9,22,65,10,14,-6,1.734301478
16.972261,-48,-11,-6,-38,-54,26,-8,-24,1.734301478
16.982516,21,10,6,42,93,-28,-1,22,1.734301478
16.982548,-10,-4,3,1,-21,71,30,39,1.734301478
16.992728,-62,-14,-12,-28,-19,36,-17,-55,1.734301478
16.992742,30,-44,-5,4,-61,-4,21,60,1.734301478
17.005956,-27,8,-5,20,77,19,-7,-29,1.734301478
17.005969,26,-22,3,22,-64,-14,29,-3,1.734301478
17.007463,15,34,3,-21,-20,-28,-9,-2,1.734301478
17.007497,-36,25,3,12,0,36,2,-20,1.734301478
17.028776,2,-3,-8,2,-120,22,-2,4,1.734301478
17.028796,21,-12,1,4,80,-54,-13,-14,1.734301478
17.031310,-42,-26,7,-30,-87,79,67,31,1.734301478
17.031344,68,29,-10,25,127,-48,-35,-60,1.734301478
17.042692,10,-21,-9,-10,-98,-38,-28,0,1.734301478
17.042724,9,14,-2,-19,-78,-15,-12,-32,1.734301478
17.052786,48,-12,6,39,75,-2,3,30,1.734301478
17.052799,-40,-25,-1,-9,34,10,10,1,1.734301478
17.068976,-25,35,8,-7,33,-50,1,-7,1.734301478
17.068986,-10,6,-2,1,14,-42,-41,-17,1.734301478
17.068989,-27,5,-3,-12,20,11,38,12,1.734301478
17.068991,-2,9,9,25,17,-16,-23,46,1.734301478
17.089145,65,20,-5,-10,45,81,22,26,1.734301478
17.089170,-71,-49,-5,-35,19,-13,17,-74,1.734301478
17.091873,20,23,0,24,-16,-11,-11,45,1.734301478
17.091884,-6,10,1,15,26,-93,21,-28,1.734301478
17.102557,55,-8,3,8,-73,40,8,14,1.734301478
17.102579,-18,14,-6,-36,34,5,3,14,1.734301478
17.112758,-71,21,-8,-12,13,24,-16,-27,1.734301478
17.112768,13,-67,-7,1,-16,-25,10,5,1.734301478
17.126061,-59,-4,4,8,2,-19,1,-10,1.734301478
17.126088,82,17,-2,-7,-39,-5,3,-7,1.734301478
17.128006,-18,-27,3,6,-7,-16,-3,-12,1.734301478
17.128026,4,41,4,-7,-19,39,-7,-2,1.734301478
17.148691,-1,-5,2,14,37,29,-10,17,1.738776622
17.148782,-12,8,7,38,65,-47,13,15,1.738776622
17.150080,33,-38,0,-3,21,76,-20,64,1.738776622
17.150104,-21,9,-5,-56,13,26,26,10,1.738776622
17.162356,93,-10,-11,-6,-37,-57,-6,-24,1.738776622
17.162375,-30,-5,-9,-33,-128,50,13,34,1.738776622
17.171833,23,-9,3,25,-18,-110,-7,-45,1.738776622
17.171843,24,45,6,18,-19,103,19,38,1.738776622
17.186172,-69,-20,3,-1,-66,-2,3,1,1.738776622
17.186203,-3,-1,-1,8,7,-20,4,11,1.738776622
17.187449,-37,-9,-10,-18,7,-9,8,11,1.738776622
17.187459,0,-14,0,-13,-55,2,-20,-72,1.738776622
17.209510,-26,-9,1,-2,33,-32,-11,11,1.738776622
17.209526,10,57,10,28,22,25,-9,1,1.738776622
17.210190,-1,-43,-4,-17,15,-2,-9,-25,1.738776622
17.210206,5,22,2,-8,-100,-13,-8,-8,1.738776622
17.223621,-35,-17,-1,55,94,0,-3,-5,1.738776622
17.223629,5,19,5,-28,69,-14,13,42,1.738776622
17.231946,-16,28,1,-60,-66,40,-27,-20,1.738776622
17.231957,60,-32,-15,35,85,-10,-22,17,1.738776622
17.246106,81,57,7,17,84,12,5,-53,1.738776622
17.246124,-54,-127,-13,-5,-90,29,-8,-88,1.738776622
17.247678,23,28,-4,-1,5,-10,16,33,1.738776622
17.247719,-56,24,11,0,-19,-24,5,-31,1.738776622
17.271020,50,-12,-9,-49,-128,-36,-17,29,1.738776622
17.271027,13,24,7,51,89,24,-4,-35,1.738776622
17.271030,21,-1,-6,-1,-37,16,9,55,1.738776622
17.271033,-19,-25,0,-13,2,-27,-5,-84,1.738776622
17.282691,-37,22,-2,5,49,20,3,34,1.738776622
17.282723,-19,-10,-4,2,-2,-22,-20,36,1.738776622
17.294276,8,-20,1,0,-82,-73,15,-22,1.738776622
17.294290,4,32,-2,-4,56,93,38,21,1.738776622
17.306133,-56,-9,0,10,-90,-14,-65,-24,1.738776622
17.306169,24,8,-3,-22,-56,37,10,-3,1.738776622
17.307869,-10,-9,-7,7,58,38,20,4,1.738776622
17.307890,19,15,1,-10,-39,-27,9,16,1.738776622
17.328680,-114,-4,1,5,32,8,-4,50,1.738776622
17.328699,53,-11,-8,-10,28,18,-17,-10,1.738776622
17.330354,4,11,10,3,-41,-45,-9,65,1.738776622
17.330367,-11,5,-2,5,53,54,-11,-36,1.738776622
17.342283,30,-16,6,11,-77,-8,41,89,1.738776622
17.342304,-6,17,-3,-15,-48,-68,-24,22,1.738776622
17.353421,31,58,2,30,127,6,14,-58,1.738776622
17.353428,-87,-46,3,-15,-125,-36,3,0,1.738776622
17.366177,16,6,-3,-27,54,43,-46,-31,1.738776622
17.366224,6,26,6,17,-10,42,31,3,1.738776622
17.367459,-35,-7,-4,5,-25,-88,-38,-39,1.738776622
17.367466,31,31,2,21,72,-75,16,15,1.738776622
17.388649,26,-31,-7,-37,-56,74,24,-39,1.738776622
17.388669,-38,40,-4,0,55,16,-10,14,1.738776622
17.391589,-6,-30,-6,-1,-12,6,-29,-16,1.738776622
17.391596,10,-18,-2,-13,-33,-17,-9,-38,1.738776622
17.412437,-33,50,15,16,-23,-50,39,66,1.757664167
17.412451,58,-47,-7,14,2,-42,-15,6,1.757664167
17.412645,-41,19,8,5,61,52,-7,33,1.757664167
17.412652,15,-29,-11,-17,-98,1,-25,67,1.757664167
17.428105,-26,21,3,5,87,-74,-2,-40,1.757664167
17.428118,5,-15,3,8,-61,27,22,9,1.757664167
17.428121,-25,41,1,-13,33,-65,-17,-66,1.757664167
17.428123,-52,-35,-14,6,28,20,-12,6,1.757664167
17.448587,15,-68,-11,-48,-29,-52,-6,-14,1.757664167
17.448650,19,20,4,3,-73,-15,37,9,1.757664167
17.449935,-6,-16,2,22,10,60,25,59,1.757664167
17.450778,12,49,10,14,-20,14,-18,-47,1.757664167
17.471427,-15,-18,-3,6,81,-18,8,-27,1.757664167
17.471467,34,-2,3,9,127,-3,-11,5,1.757664167
17.477344,6,-4,-3,-18,-65,-11,24,7,1.757664167
17.477370,-12,-24,3,11,-28,-63,-12,23,1.757664167
17.486333,-47,74,11,5,33,111,20,-6,1.757664167
17.486363,22,-52,-26,-4,68,-35,-13,-19,1.757664167
17.488290,9,-17,2,-14,-28,-43,-10,-74,1.757664167
17.488305,13,-1,-6,-6,28,-2,-5,40,1.757664167
17.509284,-2,-9,2,-19,-39,-26,-2,-22,1.757664167
17.509308,-40,32,8,27,-45,34,32,-52,1.757664167
17.511170,40,-2,-3,-2,39,8,8,55,1.757664167
17.511183,-13,-3,-3,-22,-18,19,-9,12,1.757664167
17.531121,30,22,5,23,-2,-56,2,-17,1.757664167
17.536144,-35,29,6,-16,18,-69,-25,5,1.757664167
17.536161,16,-61,-11,-13,67,105,9,14,1.757664167
17.536209,-15,8,9,19,-78,-17,1,13,1.757664167
17.546224,-19,17,-3,-16,-86,23,-4,-27,1.757664167
17.546251,67,5,3,25,70,15,4,-5,1.757664167
17.547630,2,-17,-15,-47,80,-67,-77,-16,1.757664167
17.547647,22,16,-1,-11,86,-3,15,26,1.757664167
17.568642,20,-58,-9,1,-3,26,5,29,1.757664167
17.568667,-41,39,7,-13,-106,-27,-6,25,1.757664167
17.570053,-22,-43,3,-13,-57,23,9,-31,1.757664167
17.570075,17,-36,-2,47,62,82,6,-31,1.757664167
17.591286,-55,52,7,7,-67,-67,-22,11,1.757664167
17.591313,60,-57,-18,-36,52,57,-9,-47,1.757664167
17.592813,-16,19,-4,17,-5,-1,5,-9,1.757664167
17.592830,6,-5,-2,-25,40,0,12,77,1.757664167
17.605654,3,-47,-3,23,28,25,3,-9,1.757664167
17.605685,-14,24,7,15,14,-89,-6,33,1.757664167
17.612097,11,33,8,-23,-83,-1,-9,-78,1.757664167
17.612116,-28,-6,-2,-46,-78,-44,0,-68,1.757664167
17.628615,18,-1,-9,52,44,18,-6,10,1.757664167
17.628629,-20,-23,-7,-9,-10,-22,-29,-19,1.757664167
17.629914,39,29,1,26,-50,-14,13,20,1.757664167
17.629924,-12,-13,1,-11,-13,26,0,-21,1.757664167
17.651166,39,-8,2,-21,-19,-34,-4,27,1.754243587
17.651187,-42,-1,-4,-5,9,26,7,-29,1.754243587
17.653623,11,18,3,20,-14,-1,1,25,1.754243587
17.653630,-2,21,-3,4,38,18,-10,-5,1.754243587
17.665460,-5,-44,-6,-13,-28,-19,3,-93,1.754243587
17.666369,-12,26,10,4,26,28,-15,39,1.754243587
17.672564,6,2,6,13,45,10,16,58,1.754243587
17.672594,9,-5,-8,6,41,-14,3,-14,1.754243587
17.691134,10,4,-1,-19,-35,11,-7,43,1.754243587
17.691147,-39,14,-3,-15,-77,-9,-19,-72,1.754243587
17.691150,13,-27,-8,-10,40,-24,-21,25,1.754243587
17.691153,-40,-16,-5,48,-103,69,29,-8,1.754243587
17.711117,60,20,0,3,25,30,-38,54,1.754243587
17.711136,-73,-20,-1,7,-83,-6,25,14,1.754243587
17.713013,-32,4,-2,-8,31,43,15,-15,1.754243587
17.713026,59,23,-3,-16,17,-66,-7,11,1.754243587
17.725778,-13,-14,-4,-6,21,7,9,-5,1.754243587
17.725803,26,-16,0,18,-49,7,6,8,1.754243587
17.732750,-7,19,0,-34,48,-12,2,-29,1.754243587
17.732776,-20,7,6,4,-25,-11,-7,-5,1.754243587
17.749396,-6,-2,-3,-5,27,2,16,-5,1.754243587
17.749440,68,29,7,-10,-12,4,-19,19,1.754243587
17.752279,42,-59,-8,20,-24,-22,13,16,1.754243587
17.752294,-71,-29,-5,-14,21,-2,-3,-29,1.754243587
17.771822,28,-14,-3,0,65,43,-5,-46,1.754243587
17.771846,-28,20,3,14,-111,-61,-5,4,1.754243587
17.773216,12,8,-8,-28,47,-19,60,15,1.754243587
17.773226,5,15,1,4,-24,-76,-106,-16,1.754243587
17.785664,-9,-14,0,-15,107,22,13,-22,1.754243587
17.785696,-17,16,10,19,15,9,-2,16,1.754243587
17.792610,-11,12,2,22,-32,-9,3,74,1.754243587
17.792639,44,-9,-6,-11,-70,-7,8,-13,1.754243587
17.809206,-48,18,7,-10,13,-34,-17,-59,1.754243587
17.811748,25,-46,-16,-11,31,13,-6,61,1.754243587
17.811761,33,13,-4,1,-6,-2,-15,-4,1.754243587
17.811763,21,21,4,-2,-1,39,16,6,1.754243587
17.831142,41,-3,-3,11,-17,-1,2,23,1.754243587
17.831168,-50,3,-5,-44,-48,9,14,0,1.754243587
17.832565,-60,-11,6,27,-49,41,-15,0,1.754243587
17.832586,8,-20,3,7,100,7,28,-21,1.754243587
17.845466,64,19,-9,-10,45,-35,-2,-1,1.754243587
17.845484,6,-18,-1,6,14,48,47,-32,1.754243587
17.852388,-4,18,-1,3,-92,27,-50,-13,1.754243587
17.852406,-13,13,-10,-32,1,32,-13,-4,1.754243587
17.868869,-19,9,3,3,-45,-16,20,17,1.754243587
17.868893,-16,7,-2,-6,-2,-3,-1,46,1.754243587
17.869997,-5,-8,5,-20,-67,-63,28,-14,1.754243587
17.870007,58,18,4,40,88,8,13,52,1.754243587
17.890955,-13,4,-6,5,-40,2,-11,-59,1.754243587
17.890964,-5,20,6,-14,20,2,-12,-62,1.754243587
17.892650,-29,-73,1,15,7,4,-6,-31,1.754243587
17.892673,-21,0,0,19,76,-7,6,35,1.754243587
17.905318,8,-1,2,-32,-83,-1,15,5,1.754243587
17.905331,38,11,-1,13,59,-19,-22,-44,1.754243587
17.914203,0,12,-8,-33,-33,34,-32,11,1.750128980
17.914216,11,-2,1,29,40,-19,19,-7,1.750128980
17.928497,-57,4,0,23,-32,59,-6,31,1.750128980
17.928521,-55,-61,-7,-5,-37,15,5,-3,1.750128980
17.930656,33,7,-2,7,9,-18,-15,-24,1.750128980
17.930670,-64,2,2,-34,-32,14,16,-43,1.750128980
17.951418,-7,-3,-1,20,76,-23,-2,40,1.750128980
17.951426,17,-12,-4,-2,26,-32,-16,-1,1.750128980
17.952490,30,20,-6,-27,36,-5,5,68,1.750128980
17.952523,5,-75,-2,-25,-72,-21,-23,-1,1.750128980
17.967677,15,30,-6,18,6,42,33,1,1.750128980
17.967683,16,-22,5,7,58,-35,-4,24,1.750128980
17.974908,-13,6,1,12,58,-14,-1,-14,1.750128980
17.974922,22,46,5,-1,-125,18,-1,-19,1.750128980
17.988917,-61,-19,-10,-52,-4,-19,-17,24,1.750128980
17.988941,15,-34,-7,-10,-25,81,18,42,1.750128980
17.991043,-4,23,8,53,51,-37,-6,-12,1.750128980
17.991056,4,1,4,-18,-78,68,6,33,1.750128980
18.011072,-3,-40,-11,3,79,62,20,-16,1.750128980
18.011098,1,50,-1,-10,-55,-15,-3,-13,1.750128980
18.013610,-5,-6,-4,3,9,-27,10,3,1.750128980
18.013626,6,41,-7,-22,-36,-27,1,14,1.750128980
18.024918,15,-1,12,16,-38,-40,4,1,1.750128980
18.028191,-7,-2,-5,7,-31,53,-15,49,1.750128980
18.033664,-47,-17,-8,-15,44,-19,-4,-47,1.750128980
18.033750,27,14,-5,7,31,-13,-12,72,1.750128980
18.048898,-34,-4,-2,-18,28,-50,5,6,1.750128980
18.048916,11,-13,3,27,-79,-13,7,-7,1.750128980
18.050096,5,28,4,16,0,48,1,54,1.750128980
18.050113,-13,-6,0,3,42,-22,-6,-13,1.750128980
18.070976,4,-2,4,-1,-54,14,-10,-12,1.750128980
18.070999,6,16,0,-15,23,-22,0,-17,1.750128980
18.072660,29,16,11,29,-5,-76,20,-42,1.750128980
18.072666,7,-24,-20,-5,127,34,-30,-37,1.750128980
18.085123,95,-24,-14,-30,-128,-65,-47,0,1.750128980
18.085155,8,18,-8,-17,40,-27,-12,-6,1.750128980
18.094415,6,-45,-6,-5,-113,57,-10,6,1.750128980
18.094432,-11,18,11,24,-18,-35,8,-24,1.750128980
18.108550,-18,-2,4,1,-13,8,10,-25,1.750128980
18.108588,-2,32,3,14,61,-9,-5,-10,1.750128980
18.110099,-9,21,3,-14,8,43,-2,-42,1.750128980
18.110119,-2,-4,1,-9,-14,-14,18,17,1.750128980
18.131345,-17,-2,1,-2,-30,-6,-5,-4,1.750128980
18.131371,25,3,0,19,56,15,-4,1,1.750128980
18.133681,28,5,-5,-24,-13,0,7,-25,1.750128980
18.133688,-23,-60,-4,36,9,-58,-4,75,1.750128980
18.144815,-16,-2,-1,9,54,0,6,46,1.750128980
18.144834,-1,13,-2,27,-63,2,0,14,1.750128980
18.155042,-10,-22,-5,-72,56,33,31,-66,1.750128980
18.155052,7,40,4,27,90,-18,-28,8,1.750128980
18.170876,7,1,3,6,52,-7,7,-21,1.735351537
18.170883,-22,-30,-1,0,-41,11,-10,1,1.735351537
18.170886,-30,-13,-4,-17,-53,12,-21,1,1.735351537
18.170889,-6,-10,3,2,-5,10,6,-74,1.735351537
18.191219,-18,6,-2,28,-18,-43,-3,27,1.735351537
18.191242,0,-40,-9,-18,79,-21,7,-72,1.735351537
18.193430,-22,21,7,12,-104,-40,-23,11,1.735351537
18.193444,83,0,-4,-22,29,42,6,32,1.735351537
18.204977,-63,12,5,38,49,-18,6,-39,1.735351537
18.204999,45,64,-2,-69,-25,3,8,-3,1.735351537
18.215630,-17,-89,-11,32,-13,50,-19,-8,1.735351537
18.215639,-10,13,1,-8,-128,-15,12,42,1.735351537
18.228317,4,21,4,3,-11,12,-4,31,1.735351537
18.228342,-2,0,1,-10,-6,-23,4,43,1.735351537
18.238619,19,34,3,17,71,-14,5,0,1.735351537
18.238628,50,11,3,-8,20,16,8,-55,1.735351537
18.251076,-11,-21,-1,3,-28,23,6,57,1.735351537
18.251092,-89,-26,-2,-46,-57,4,-47,-19,1.735351537
18.252820,8,-5,-12,26,29,-33,-8,-2,1.735351537
18.252825,-37,6,-7,12,-84,-69,13,-5,1.735351537
18.264838,37,-15,-6,-33,-23,55,-6,7,1.735351537
18.264859,9,12,11,43,-60,-16,2,4,1.735351537
18.275696,-32,3,-1,-31,84,-66,18,-5,1.735351537
18.275715,0,4,0,1,93,28,-14,-4,1.735351537
18.288712,-23,19,-1,-4,-91,-17,3,-21,1.735351537
18.288744,-3,-15,1,12,16,23,8,23,1.735351537
18.290862,7,6,0,12,-33,20,0,86,1.735351537
18.290873,-9,-15,-4,-7,-40,-23,-7,-39,1.735351537
18.311026,26,11,2,4,18,-8,-4,-22,1.735351537
18.311040,33,-48,4,2,56,3,10,53,1.735351537
18.312568,9,36,8,6,13,1,3,30,1.735351537
18.312582,-44,-14,-10,-1,-28,-23,13,11,1.735351537
18.325012,8,3,-7,-52,-16,-9,-12,-49,1.735351537
18.325020,-2,18,-7,73,44,34,-14,-62,1.735351537
18.335755,-18,15,3,-10,31,-31,-3,-8,1.735351537
18.335761,3,27,9,-15,96,71,44,97,1.735351537
18.348902,-28,-11,-1,-6,-56,75,27,-35,1.735351537
18.348927,-10,22,-2,-19,-42,-49,-16,42,1.735351537
18.350895,61,-28,-7,10,-13,5,6,8,1.735351537
18.350903,73,17,6,-1,16,-14,-14,-27,1.735351537
18.372846,-13,15,-2,14,104,-11,-7,-1,1.735351537
18.372861,-54,-7,6,-1,-33,18,3,21,1.735351537
18.372868,23,56,-1,28,-12,28,8,14,1.735351537
18.372873,-30,-96,-6,-27,-8,-6,-6,-13,1.735351537
18.393696,42,9,2,9,62,-21,-6,0,1.735351537
18.393726,10,-9,-5,-22,47,25,-1,38,1.735351537
18.396609,-22,-8,-1,2,35,-40,-23,-10,1.735351537
18.396620,-7,-9,-4,10,-21,-4,5,-15,1.735351537
18.409428,2,-5,10,9,-51,7,-11,5,1.735351537
18.409476,12,23,-9,20,102,-29,23,-44,1.735351537
18.411875,18,-13,2,-33,-94,61,21,-73,1.735351537
18.411896,-7,-2,-5,-42,-88,-74,-35,22,1.735351537
18.431255,-15,-24,-4,47,14,12,-4,-51,1.729051181
18.431286,48,29,11,-7,-38,-10,3,-7,1.729051181
18.433546,-35,4,2,-2,61,13,-7,9,1.729051181
18.433555,13,17,4,14,89,-36,-5,-20,1.729051181
18.453960,-11,-11,-4,-4,-54,-37,-10,3,1.729051181
18.453971,-17,-63,-10,-44,-60,7,5,-8,1.729051181
18.455023,9,-6,4,46,45,-12,-1,-4,1.729051181
18.455044,-63,5,2,-21,-79,46,1,-5,1.729051181
18.468874,49,9,-4,-8,51,-10,-10,-23,1.729051181
18.468963,5,31,1,25,27,8,10,35,1.729051181
18.469983,-2,3,-9,-18,-36,-76,-2,88,1.729051181
18.470081,-9,-57,4,0,12,62,-8,-50,1.729051181
18.491661,23,-9,4,-5,-32,-40,-29,49,1.729051181
18.491694,1,1,0,14,-11,23,34,36,1.729051181
18.493949,-22,27,7,-1,-57,45,-9,-63,1.729051181
18.493961,-19,38,-8,4,33,3,-10,-41,1.729051181
18.513726,65,-37,-14,-8,73,-4,-1,50,1.729051181
18.513745,23,-13,-3,-40,-4,10,-14,-34,1.729051181
18.515055,-34,-13,-4,26,15,-7,26,0,1.729051181
18.515090,11,13,6,-18,-48,-73,-28,0,1.729051181
18.528968,-72,-23,-6,24,-17,97,17,-26,1.729051181
18.528976,5,2,-10,-27,88,-13,-32,-24,1.729051181
18.530022,32,-4,2,-11,-96,-22,6,7,1.729051181
18.530065,8,22,1,-1,-85,17,30,10,1.729051181
18.551023,-22,-9,3,1,24,-65,-37,-8,1.729051181
18.551041,-1,3,2,10,-42,-17,10,-18,1.729051181
18.552504,-16,12,-1,3,81,19,-2,-45,1.729051181
18.552541,2,4,-2,-1,-66,-21,-15,28,1.729051181
18.573662,-8,14,-2,-26,64,-10,-5,31,1.729051181
18.573685,9,17,9,-4,-51,20,35,-36,1.729051181
18.576569,-36,3,-8,25,94,12,-52,-81,1.729051181
18.576582,20,4,6,15,-20,27,38,44,1.729051181
18.588188,-53,2,2,4,58,-25,-11,14,1.729051181
18.588208,56,-15,-9,12,-30,-5,0,-27,1.729051181
18.594776,-50,-18,-6,-45,-6,3,-4,56,1.729051181
18.594793,6,5,-4,9,9,30,-5,-18,1.729051181
18.611153,-6,13,8,13,2,12,1,-1,1.729051181
18.611171,-15,8,9,22,80,-5,12,30,1.729051181
18.612494,-15,-20,-13,-47,-127,-7,10,-10,1.729051181
18.612519,7,-17,-10,34,127,-13,-34,-28,1.729051181
18.633597,22,11,2,-18,-112,-11,39,34,1.729051181
18.633615,-39,8,-6,-8,-36,32,-19,-33,1.729051181
18.635085,20,18,4,5,56,12,16,17,1.729051181
18.635096,-30,7,4,14,35,-21,0,-16,1.729051181
18.648401,30,11,-2,-20,-76,-28,9,-6,1.729051181
18.648433,-19,2,6,13,-47,37,23,25,1.729051181
18.654890,-31,-19,-5,0,15,-113,-22,-57,1.729051181
18.654918,-6,6,-3,-14,-20,35,-30,11,1.729051181
18.671979,1,-84,-1,1,83,-42,9,-6,1.729051181
18.671986,-7,4,0,-8,-78,-50,-25,62,1.729051181
18.672619,24,13,8,9,-47,46,23,7,1.729051181
18.672655,-11,9,-5,25,78,11,-10,-14,1.729051181
18.693644,50,15,-4,-22,-29,-80,-10,11,1.738722541
18.693663,-2,4,-8,-4,48,70,2,-1,1.738722541
18.695644,9,-29,1,0,-21,-8,-1,41,1.738722541
18.695654,-16,21,0,-1,-68,-13,18,10,1.738722541
18.708012,6,9,3,-23,-18,23,-8,-39,1.738722541
18.708026,32,-3,-13,-8,-35,-40,-6,-38,1.738722541
18.715198,9,-24,-3,5,-70,19,6,13,1.738722541
18.715234,20,13,0,0,-90,20,2,18,1.738722541
18.731876,-52,-16,2,3,-10,-3,-20,-5,1.738722541
18.731883,-15,1,6,-7,28,-55,-1,-3,1.738722541
18.732485,8,14,3,10,-57,21,-6,-3,1.738722541
18.732492,-2,-7,-4,-49,101,-18,-5,-3,1.738722541
18.753672,-1,-7,-4,31,-82,76,23,37,1.738722541
18.753693,-29,1,-2,-2,-19,-47,-33,-25,1.738722541
18.755859,-5,-12,-1,-14,66,37,19,16,1.738722541
18.755866,25,-35,-9,4,26,-40,-21,-11,1.738722541
18.767895,19,36,0,-5,-21,12,4,-57,1.738722541
18.767913,-76,-68,-9,4,-10,22,3,41,1.738722541
18.775129,89,51,9,15,-4,-59,7,66,1.738722541
18.775154,-71,-56,-11,-5,-70,117,5,-48,1.738722541
18.791506,-59,-18,-8,-14,59,48,29,-82,1.738722541
18.791538,54,26,1,-7,15,-32,6,-23,1.738722541
18.794042,9,19,0,-8,7,-2,-6,-22,1.738722541
18.794057,-11,-7,2,9,16,-5,27,7,1.738722541
18.813520,19,51,7,24,-52,-10,-4,24,1.738722541
18.813541,-2,-30,2,-42,-3,18,-19,0,1.738722541
18.815368,-10,-12,-9,-15,115,-38,-5,6,1.738722541
18.815388,21,75,13,43,38,28,8,5,1.738722541
18.827782,-27,-70,-8,6,45,-30,-41,-6,1.738722541
18.827799,11,27,8,11,-67,-11,14,29,1.738722541
18.837293,-25,-37,-10,-11,-12,-35,-28,-19,1.738722541
18.837305,-18,26,9,-17,-83,14,11,10,1.738722541
18.851381,11,27,6,17,13,-42,-18,27,1.738722541
18.851414,-35,-7,-4,3,86,20,14,-27,1.738722541
18.854305,24,-40,-6,-30,30,-1,-5,-27,1.738722541
18.854319,-23,-24,6,-4,-84,-79,-6,-50,1.738722541
18.873702,34,56,-2,-29,-43,20,40,35,1.738722541
18.873739,11,-11,-1,27,50,15,-53,21,1.738722541
18.874950,11,25,2,18,-14,27,15,-2,1.738722541
18.874974,-14,-16,-12,-23,31,-17,5,-4,1.738722541
18.887232,14,8,4,8,15,22,25,19,1.738722541
18.887266,11,12,4,23,59,-48,-4,-14,1.738722541
18.896405,-16,-36,1,9,-39,16,-1,-5,1.738722541
18.896416,12,0,-1,-10,22,19,-4,-8,1.738722541
18.911150,-28,3,-8,-5,-42,-9,-14,-18,1.738722541
18.911174,7,-51,-2,-7,-24,17,11,-6,1.738722541
18.912563,-21,5,4,11,52,12,-5,3,1.738722541
18.912577,70,14,0,-2,-71,-14,-11,26,1.738722541
18.934136,-71,9,2,4,74,-30,5,-60,1.715657292
18.934143,37,-2,6,2,55,-32,8,-7,1.715657292
18.934938,-45,6,-4,-7,90,-7,-17,14,1.715657292
18.934973,67,-49,-14,0,-58,53,-11,14,1.715657292
18.949674,73,-21,5,6,23,-19,14,66,1.715657292
18.949681,12,74,8,16,5,-23,-25,0,1.715657292
18.957266,11,4,-1,-8,-36,14,9,57,1.715657292
18.957271,-18,25,4,-10,47,-26,4,2,1.715657292
18.971427,19,-8,-3,27,27,36,-42,11,1.715657292
18.971452,-45,2,-1,-24,2,24,39,-22,1.715657292
18.973277,53,4,-4,-33,-69,-7,-29,-39,1.715657292
18.973330,35,14,1,45,83,-100,29,1,1.715657292
18.993589,-14,-71,-17,-23,-90,111,-58,98,1.715657292
18.993625,26,12,-3,-16,21,-22,14,-3,1.715657292
18.995956,-27,-44,-10,-1,-111,1,-2,-50,1.715657292
18.995970,3,11,7,-19,99,17,-1,22,1.715657292
19.007822,-24,54,2,5,6,-85,3,-53,1.715657292
19.007849,-10,-21,-2,7,-58,41,3,-20,1.715657292
19.018453,12,23,3,8,22,-7,8,26,1.715657292
19.018460,-16,-8,-4,-4,-25,10,-1,29,1.715657292
19.031074,-18,13,6,6,35,-18,7,-19,1.715657292
19.031098,57,-4,-5,-10,-92,-13,10,-34,1.715657292
19.032639,-2,15,4,10,46,47,12,-25,1.715657292
19.032692,-16,-12,-11,-13,-14,-27,-11,89,1.715657292
19.053669,-3,0,-10,24,-62,-85,2,-43,1.715657292
19.053686,10,4,5,-22,-85,-47,15,19,1.715657292
19.054917,-10,-8,-2,10,123,50,3,-11,1.715657292
19.054930,-11,-7,3,14,1,81,17,-22,1.715657292
19.067595,14,0,3,-3,-2,22,29,4,1.715657292
19.067619,-18,-7,-5,6,28,-25,-36,35,1.715657292
19.077435,-12,15,0,-1,-7,-32,-12,-51,1.715657292
19.077447,-17,12,6,-7,-97,3,-5,-13,1.715657292
19.091074,-56,68,6,22,-27,-18,1,12,1.715657292
19.091110,-54,-47,-2,-11,31,67,20,-30,1.715657292
19.092598,-59,-22,-2,31,49,2,38,-18,1.715657292
19.092626,7,34,-14,-55,7,-84,-80,-9,1.715657292
19.113730,6,-68,-11,-27,18,-44,6,-19,1.715657292
19.113753,-5,20,4,17,-81,26,-3,-30,1.715657292
19.115839,9,46,7,3,-75,11,2,90,1.715657292
19.115845,-3,-19,-1,4,80,19,21,53,1.715657292
19.127227,11,13,6,-30,-25,64,28,-42,1.715657292
19.127252,-37,-7,-4,28,57,-25,-46,24,1.715657292
19.142463,57,-2,0,6,68,-22,-8,31,1.715657292
19.142490,-4,9,13,6,-100,4,-26,-39,1.715657292
19.151753,29,-19,-10,-29,64,27,10,47,1.715657292
19.151758,-1,-6,2,30,57,4,22,-10,1.715657292
19.152498,6,61,3,-32,-62,-15,-9,-10,1.715657292
19.152512,25,-39,-1,36,7,-22,16,-2,1.715657292
19.173613,17,-29,-8,-8,-1,8,-18,0,1.715657292
19.173631,-32,-49,-19,-56,-97,-85,-36,-49,1.715657292
19.175738,24,9,-6,-5,5,63,-13,-5,1.715657292
19.175755,-5,3,-1,10,30,-42,23,-3,1.715657292
19.187523,21,7,4,-4,41,41,0,18,1.735338016
19.187545,14,31,6,13,59,-10,3,6,1.735338016
19.197026,-3,-16,-3,-22,-50,27,-11,-16,1.735338016
19.197039,-27,-21,-1,8,1,15,17,-38,1.735338016
19.211157,-6,14,6,7,17,0,-14,31,1.735338016
19.211183,11,32,3,0,-34,4,-16,44,1.735338016
19.212818,3,-104,-6,35,-5,10,10,-2,1.735338016
19.212826,-27,25,0,-10,67,-18,-1,34,1.735338016
19.233923,33,-33,-9,-13,2,-48,-24,-39,1.735338016
19.233947,-22,9,-5,10,10,7,10,24,1.735338016
19.236363,-5,23,4,2,2,-38,6,0,1.735338016
19.236378,-3,3,-4,-30,-63,-5,1,-77,1.735338016
19.247214,31,7,0,16,33,1,-31,6,1.735338016
19.247227,3,19,6,-7,-70,-14,44,12,1.735338016
19.258167,11,-58,-5,10,53,-30,-8,-68,1.735338016
19.258173,-73,-3,2,-3,35,3,-12,-14,1.735338016
19.271395,-16,31,-10,-16,-12,3,2,-39,1.735338016
19.271419,14,-89,-4,3,3,-1,-5,7,1.735338016
19.273310,-14,35,-3,-4,19,-5,4,-15,1.735338016
19.273316,29,-18,-3,-9,-99,-19,-32,-22,1.735338016
19.293688,-28,-18,5,6,-15,-5,9,22,1.735338016
19.293705,3,34,6,11,67,35,2,5,1.735338016
19.295144,-8,-1,-1,1,-21,-18,2,-38,1.735338016
19.295158,-15,-12,-1,-29,-13,22,31,11,1.735338016
19.307730,-9,5,-6,18,78,-17,-19,-76,1.735338016
19.307739,36,14,6,8,83,20,18,57,1.735338016
19.316326,-62,49,3,-10,-23,-43,-13,64,1.735338016
19.316333,33,-18,-3,28,-51,69,-1,22,1.735338016
19.331117,-2,5,7,16,-22,-10,9,4,1.735338016
19.331140,-53,-23,-11,-17,-31,-57,-12,-33,1.735338016
19.332780,-13,4,-8,-15,15,14,28,33,1.735338016
19.332795,5,11,4,-10,-27,-54,-16,-1,1.735338016
19.355097,6,5,3,-19,-19,20,31,32,1.735338016
19.355107,-14,-4,1,25,24,18,-46,-19,1.735338016
19.355110,11,24,8,12,-10,-1,3,-19,1.735338016
19.355112,19,15,1,3,-21,-5,-16,-10,1.735338016
19.376141,-30,-71,-5,-16,-51,19,16,-4,1.735338016
19.376161,17,55,3,-5,-96,3,7,-5,1.735338016
19.377734,61,-29,-14,-23,62,-32,-28,-32,1.735338016
19.377748,-52,-1,-5,27,96,51,-12,4,1.735338016
19.391377,5,23,7,-16,32,-88,-12,15,1.735338016
19.391399,21,23,8,26,127,85,12,18,1.735338016
19.393811,-6,-11,3,6,-26,34,1,-11,1.735338016
19.393824,-21,-2,-7,-5,-68,-52,1,11,1.735338016
19.421469,54,13,1,19,48,57,-1,-29,1.735338016
19.421496,-64,-19,-6,-35,-95,-29,-6,-7,1.735338016
19.422583,-16,-3,8,2,-32,30,-11,28,1.735338016
19.422607,13,-4,0,11,86,-32,14,-13,1.735338016
19.436237,-55,19,0,-19,-100,4,-8,3,1.735338016
19.436264,56,-10,-4,-30,25,-15,3,-11,1.735338016
19.437839,1,26,4,20,-18,1,-2,53,1.735338016
19.437861,-4,11,-3,-40,-18,1,1,10,1.735338016
19.451179,-16,-17,2,26,24,22,0,-11,1.746257732
19.451190,34,18,6,-1,-3,5,10,34,1.746257732
19.452455,-35,2,-2,-25,52,28,28,-10,1.746257732
19.452476,-17,-12,-2,27,103,-65,-18,-7,1.746257732
19.474150,-16,11,1,9,-51,-17,-5,106,1.746257732
19.474182,-27,-23,-21,-30,86,-19,5,-61,1.746257732
19.476250,68,-24,0,-7,-45,-21,-23,13,1.746257732
19.476264,15,3,-4,13,-10,27,44,6,1.746257732
19.496329,-1,12,4,6,59,39,0,36,1.746257732
19.496339,16,19,2,3,21,-18,-19,-1,1.746257732
19.497591,-36,21,-4,-18,-63,-30,-15,-43,1.746257732
19.497598,-11,7,3,-11,8,21,4,-39,1.746257732
19.511272,31,10,4,17,-40,0,-8,24,1.746257732
19.511284,-43,-38,-1,-3,20,9,-1,-15,1.746257732
19.517464,52,30,2,4,-24,-9,-4,-1,1.746257732
19.518337,-13,28,6,25,-6,-5,-48,61,1.746257732
19.533664,-13,-40,-7,-41,-22,29,18,-32,1.746257732
19.534453,2,4,-2,-12,27,-5,1,-11,1.746257732
19.535017,-26,1,1,44,64,16,19,16,1.746257732
19.535072,11,-5,2,8,-54,-14,9,-17,1.746257732
19.558023,16,-8,-7,-32,78,-9,4,-17,1.746257732
19.558040,-64,13,-1,-11,-10,71,-26,84,1.746257732
19.558047,-20,-36,-15,-12,49,-14,-14,-34,1.746257732
19.558052,5,-24,-2,-20,-9,45,23,-10,1.746257732
19.570545,2,10,-3,24,-4,-76,-29,-79,1.746257732
19.570577,-27,-4,5,15,-22,-13,52,-31,1.746257732
19.577371,2,32,0,0,3,62,7,-6,1.746257732
19.577397,44,-49,-6,-26,-61,-64,-30,14,1.746257732
19.593503,-10,51,3,27,-11,57,13,-15,1.746257732
19.593529,8,-21,3,28,110,22,14,-54,1.746257732
19.596487,-23,-22,2,-42,-97,6,-1,50,1.746257732
19.596500,64,28,5,59,-67,-16,33,-2,1.746257732
19.616094,-61,-13,-3,-28,88,39,-20,-9,1.746257732
19.616112,29,16,-5,-7,-28,-7,-16,-33,1.746257732
19.617515,1,21,2,-3,14,-16,14,9,1.746257732
19.617554,19,-21,-3,-26,5,30,-7,-9,1.746257732
19.630628,-9,46,-3,0,-86,-104,-4,18,1.746257732
19.630659,23,-35,4,7,-21,2,10,29,1.746257732
19.637475,-15,-30,2,7,14,-35,-18,-30,1.746257732
19.637506,-9,20,-1,11,68,26,-7,76,1.746257732
19.653748,9,-3,2,12,-41,-21,11,-28,1.746257732
19.653796,12,28,1,12,-91,66,-14,-2,1.746257732
19.654978,-15,-10,1,-2,-17,-86,6,-9,1.746257732
19.655011,21,23,-2,-9,49,9,14,42,1.746257732
19.676090,43,-41,-8,-35,11,47,44,62,1.746257732
19.676117,47,19,-12,-14,78,-37,-40,2,1.746257732
19.678601,-53,-32,-10,0,-24,7,-30,-63,1.746257732
19.678614,-58,8,-4,1,38,-15,17,-26,1.746257732
19.698554,26,-1,6,21,-40,-3,17,19,1.773595321
19.698582,-16,-1,7,17,-31,-40,5,72,1.773595321
19.699997,53,12,1,2,18,3,-11,-23,1.773595321
19.700006,-33,11,-1,-8,5,-5,-17,-41,1.773595321
19.713633,-15,-51,0,3,-50,2,-1,-10,1.773595321
19.713647,20,30,-9,-5,43,-18,-8,-7,1.773595321
19.715062,2,-30,-4,-2,-18,7,-18,13,1.773595321
19.715069,-19,6,-1,-1,-40,-54,-10,-34,1.773595321
19.736337,50,57,1,-20,-79,34,-3,-19,1.773595321
19.738023,-57,-61,2,14,48,-5,0,8,1.773595321
19.738037,38,28,5,7,36,-5,20,4,1.773595321
19.738043,1,-13,-3,24,-33,-4,4,-37,1.773595321
19.750727,44,-4,-3,-5,126,-7,-14,71,1.773595321
19.750759,-12,-5,-2,-9,-96,-1,-19,-6,1.773595321
19.757456,8,35,3,29,-104,5,35,11,1.773595321
19.757476,-50,-80,-7,-35,65,8,-30,-48,1.773595321
19.774003,-5,29,5,28,50,-35,-11,22,1.773595321
19.774040,61,-3,-13,-8,0,8,10,-69,1.773595321
19.776859,12,-55,-4,12,-8,14,-62,10,1.773595321
19.776871,60,26,-3,-28,-90,51,21,39,1.773595321
19.796087,-68,-27,-3,-15,-8,-30,0,-65,1.773595321
19.796111,37,52,5,3,21,-9,13,45,1.773595321
19.797618,-4,8,1,-4,-35,-9,14,2,1.773595321
19.798838,11,-7,2,-5,22,23,-5,-4,1.773595321
19.810654,-17,-7,2,8,69,-22,-20,-29,1.773595321
19.810680,-6,38,2,-10,-115,-13,18,-13,1.773595321
19.817401,-50,-55,-10,0,44,12,-2,-5,1.773595321
19.817422,-54,21,6,-21,25,-8,-10,25,1.773595321
19.834331,26,-28,-11,3,48,82,27,-10,1.773595321
19.834374,-8,-22,-8,1,-25,-19,-49,-53,1.773595321
19.837354,-38,2,2,-8,17,-27,-5,-10,1.773595321
19.837365,-23,38,7,17,42,38,6,-6,1.773595321
19.856382,11,-22,6,-4,5,-27,2,-2,1.773595321
19.856408,-6,-32,0,11,80,-7,-1,-24,1.773595321
19.857417,-74,36,6,-4,-38,-29,33,69,1.773595321
19.857431,44,-40,-19,-43,87,16,-19,-61,1.773595321
19.869769,14,8,1,41,6,-30,-9,-35,1.773595321
19.869805,-42,24,-1,-9,-60,-21,-13,9,1.773595321
19.879536,23,-23,7,21,50,67,13,51,1.773595321
19.879551,4,40,14,-19,-33,-119,30,23,1.773595321
19.893583,26,30,-18,2,-40,29,-12,12,1.773595321
19.893609,-3,-35,-1,2,-9,26,-8,-7,1.773595321
19.895709,25,26,1,1,3,0,11,-24,1.773595321
19.895717,24,9,3,12,-13,-3,0,5,1.773595321
19.917211,12,21,1,-19,-33,12,-21,-10,1.773595321
19.917229,-56,-27,5,-5,-61,-44,36,49,1.773595321
19.917696,107,-22,-25,-22,-6,50,-4,3,1.773595321
19.917710,10,-1,0,-17,117,39,-13,31,1.773595321
19.931219,-48,-32,3,-6,-57,2,-34,-26,1.773595321
19.931230,24,13,15,17,-57,-9,78,47,1.773595321
19.944708,-72,33,-2,-26,32,38,-57,-6,1.773595321
19.944733,29,0,-10,32,29,-72,3,-52,1.773595321
19.953963,40,41,-1,-19,-16,40,5,12,1.778480576
19.953986,-62,-93,-6,-9,92,17,6,-13,1.778480576
19.955081,75,28,7,13,-67,-61,-12,-52,1.778480576
19.955090,-16,-15,-4,1,52,90,-19,-17,1.778480576
19.976266,-31,25,3,-14,-26,-23,-7,-13,1.778480576
19.976295,36,47,6,7,-1,17,-4,-36,1.778480576
19.978707,11,-4,0,-26,-41,-33,11,-14,1.778480576
19.978720,-38,-30,0,29,-66,-11,12,15,1.778480576
19.989798,-26,-10,-1,-13,76,-23,-14,15,1.778480576
19.989815,39,19,-6,-8,70,-15,-35,-5,1.778480576
19.998893,-5,-10,2,7,127,9,11,-38,1.778480576
19.998909,-88,31,3,-19,-128,-73,9,24,1.778480576
20.013582,64,-69,-13,-23,68,-51,-11,70,1.778480576
20.013603,47,38,2,25,55,28,-7,-43,1.778480576
20.015297,19,-89,-3,5,6,-14,-13,5,1.778480576
20.015460,-34,-9,4,20,-44,14,7,7,1.778480576
