timestamp,emg1,emg2,emg3,emg4,emg5,emg6,emg7,emg8,label
2.010286,28,-20,-2,-6,-5,-3,-1,-5,4
2.010614,10,5,26,7,4,2,3,7,4
2.011014,26,15,-53,-7,-2,-4,0,-2,4
2.011031,-24,-51,9,3,1,-1,3,7,4
2.034029,-1,30,16,7,2,2,0,17,4
2.034057,18,-4,-20,-6,-5,-1,-1,-8,4
2.035953,25,59,-6,-2,-1,-1,-4,-10,4
2.035957,23,71,28,0,0,0,1,11,4
2.047247,-14,-43,-58,-15,-7,-3,1,-16,4
2.047269,-18,66,17,3,0,1,-2,2,4
2.055417,-31,-67,30,2,-2,-2,-1,-4,4
2.055437,-7,68,13,-2,0,3,8,19,4
2.070336,-6,-73,-38,-3,-1,-2,-4,-11,4
2.070359,20,32,-10,1,-1,-2,0,0,4
2.071043,21,-49,-9,1,1,2,0,0,4
2.071064,-34,-100,15,-1,-1,-2,-3,-11,4
2.093897,33,105,25,8,2,0,3,21,4
2.093923,-28,-126,-9,-7,-2,-2,1,-7,4
2.095481,-33,-53,-31,4,2,2,0,-11,4
2.095486,-29,-24,-19,-2,-3,-2,-4,-8,4
2.107140,74,4,11,1,1,-1,0,14,4
2.107158,22,-93,18,2,4,-2,-2,-14,4
2.115479,-5,25,-9,4,0,-2,2,-14,4
2.115495,-3,40,-3,-10,-6,-2,-2,-2,4
2.130781,-38,16,-8,-5,-3,1,-1,-6,4
2.130785,-33,-23,-24,9,4,2,3,1,4
2.131072,47,45,16,-3,-4,-3,-4,10,4
2.131081,-59,-107,11,-1,-1,-1,-4,-12,4
2.153553,-45,-39,-20,-1,-2,-2,-2,7,4
2.153573,7,42,0,-7,-1,-1,1,-2,4
2.155046,10,70,22,7,0,-2,-1,-1,4
2.155051,-50,-22,-19,-4,-3,-2,-6,-24,4
2.175989,10,10,8,3,2,0,3,5,4
2.176005,51,17,-1,9,3,2,2,-4,4
2.176688,-25,-22,-37,-2,-2,-1,-5,-12,4
2.176703,93,63,-4,1,-3,-5,2,-5,4
2.191925,79,28,13,7,3,4,4,8,4
2.191931,20,-87,-28,-11,-4,-4,-2,2,4
2.191936,78,28,36,1,1,4,4,13,4
2.191937,8,-35,20,-1,-1,1,2,16,4
2.213348,23,-64,12,6,2,-1,1,-21,4
2.213364,-48,-45,4,-7,-5,-4,-6,-8,4
2.214793,47,-81,-4,-1,0,1,2,9,4
2.214805,-116,11,3,-4,-3,-2,-9,-19,4
2.237552,59,-91,28,2,0,2,2,23,4
2.237557,-6,111,31,10,4,2,0,-18,4
2.237560,-24,-79,-11,-13,-8,-7,-5,-3,4
2.237562,-54,-33,-5,-1,1,1,-3,-5,4
2.250525,39,48,-46,-6,-4,-3,0,-13,4
2.252653,11,-37,4,-2,-3,-6,-7,-30,4
2.252657,-34,13,1,-3,1,-1,-1,11,4
2.252659,81,48,7,8,4,2,5,27,4
2.273620,-10,-26,10,-7,-2,-4,-2,-17,4
2.273636,-52,-23,-6,-3,-1,1,-2,7,4
2.274794,-2,108,15,-7,-3,-2,-1,-3,4
2.274799,75,45,-17,-1,1,0,3,-5,4
2.295850,18,-23,-11,4,1,-2,-3,-3,4
2.295865,-19,-13,-29,-10,-7,-2,-3,3,4
2.297081,18,-116,-20,-3,-1,-2,-1,-1,4
2.297085,77,1,-20,3,1,1,2,4,4
2.310692,-61,-26,11,-5,-2,-2,-5,-4,4
2.310719,23,90,9,2,1,-1,1,19,4
2.313422,18,83,-2,-5,-3,1,-1,-5,4
2.313428,-10,-65,2,-1,-2,-2,-4,-8,4
2.333374,-10,12,-15,0,-1,0,1,0,4
2.333397,-15,71,9,5,1,-1,-2,13,4
2.334357,-99,-20,10,-4,-3,-4,-8,-22,4
2.334363,2,-4,15,3,2,0,7,25,4
2.356212,-40,80,0,-6,-6,-3,-4,6,4
2.356230,5,115,21,4,2,0,-2,5,4
2.357223,8,-28,-22,-4,-1,0,-2,-12,4
2.357227,-67,15,5,-2,-4,-1,-2,-1,4
2.370312,82,31,-5,-1,0,1,5,5,4
2.370352,32,-87,1,4,0,0,2,-22,4
2.371595,81,83,-31,-2,0,-4,-3,19,4
2.371600,-22,-11,-5,-10,-4,-1,-3,-5,4
2.393487,-3,-44,-16,-2,-1,-1,-1,5,4
2.393511,-11,17,10,1,0,0,3,-1,4
2.394280,17,83,33,0,-1,-3,-1,-6,4
2.394300,13,-30,7,4,0,-1,-1,-7,4
2.415965,8,-16,4,-2,-2,-1,-3,-7,4
2.415993,-16,-39,-17,2,3,3,2,8,4
2.416916,-103,-54,15,-6,-4,-2,-5,2,4
2.416921,-1,-9,-3,-5,-1,0,-1,3,4
2.430316,67,1,27,12,6,4,7,21,4
2.430334,-25,-49,-13,-14,-6,-4,-6,3,4
2.431174,7,-112,-28,10,3,2,3,-9,4
2.431230,-51,26,1,-3,-3,-3,-5,-9,4
2.454036,-3,-46,-6,0,-1,-1,-3,1,4
2.454057,21,85,28,1,-1,-2,1,4,4
2.454840,46,-51,4,-2,-2,1,3,2,4
2.454867,-20,-4,0,1,0,0,-3,-11,4
2.476383,-107,-23,-34,-6,-5,-2,-1,0,4
2.476414,49,-82,14,4,1,1,1,-3,4
2.477977,28,-7,-16,-9,-2,0,-1,8,4
2.477980,10,-19,3,0,-1,-3,0,8,4
2.490331,-21,-2,38,8,6,3,0,-1,4
2.490350,10,65,-19,-3,-2,0,6,9,4
2.491490,-6,-49,28,3,-2,2,4,-3,4
2.491502,81,2,-2,0,0,1,2,9,4
2.513446,-78,-55,-9,-10,-6,-4,-16,-31,4
2.514067,58,5,-32,-1,-3,-2,-4,6,4
2.514300,8,-3,3,-5,-1,-2,-3,-16,4
2.514379,-28,53,1,-2,-2,-2,1,19,4
2.536288,0,0,-4,7,2,-1,4,-7,4
2.536332,-56,-18,-6,-11,-5,-2,-6,-7,4
2.538569,-36,31,-6,-2,-4,-4,-13,-9,4
2.538604,-54,-63,-13,3,-1,-2,3,2,4
2.550843,16,7,-33,-6,0,1,-2,-4,4
2.550866,45,111,4,1,0,-2,-1,-27,4
2.559044,12,34,-15,4,2,1,5,-3,4
2.559070,-58,-48,-2,-6,-5,-4,-11,-13,4
2.573515,-4,123,23,-1,-3,-4,-6,-15,4
2.573536,4,-70,-15,-7,-4,-1,1,8,4
2.574377,9,120,6,11,6,2,4,5,4
2.574381,-7,62,16,-1,-1,-2,-3,-19,4
2.595968,3,-87,-31,1,-3,-3,0,7,4
2.595988,-107,55,-35,-15,-10,-3,-11,-20,4
2.596737,-17,-101,-14,-10,-4,-5,-3,7,4
2.596800,37,-59,14,10,3,0,1,-1,4
2.618489,68,127,-20,-3,-1,2,8,17,4
2.618507,8,-128,20,2,1,-1,-5,1,4
2.619810,28,-3,-2,-1,0,0,3,-4,4
2.619818,44,-41,-4,2,2,2,-3,-12,4
2.633418,-43,-14,7,-12,-6,-5,0,6,4
2.633436,12,18,14,3,3,2,-2,0,4
2.634276,-6,89,18,2,0,-1,-4,-19,4
2.634282,8,6,-11,-2,0,-2,0,13,4
2.656079,45,-27,27,6,2,2,3,2,4
2.656100,-10,3,38,13,2,0,4,5,4
2.656750,-72,-43,-4,0,-1,2,0,19,4
2.656775,-80,-56,-10,-20,-6,-3,-5,-32,4
2.670345,-12,-10,8,1,0,0,1,-2,4
2.670406,-25,39,-19,-10,-4,-4,-1,1,4
2.671331,37,-13,22,5,1,1,3,8,4
2.671352,62,-29,15,5,1,1,3,9,4
2.693509,-31,96,16,-3,-3,-2,-3,-4,4
2.693531,18,-117,-13,2,3,2,3,0,4
2.695288,25,117,9,4,2,0,4,4,4
2.695299,68,18,6,5,3,2,5,25,4
2.716655,-103,-57,-17,-5,-2,-5,-10,3,4
2.716663,33,-26,-25,-6,-1,1,0,11,4
2.716667,14,-1,-6,1,-2,0,1,-4,4
2.716670,-67,-43,-29,-4,-5,-2,-4,-6,4
2.730649,10,4,13,-2,-1,0,2,-1,4
2.732455,-16,17,29,8,0,1,0,-2,4
2.732459,9,-8,-44,-7,-4,-4,-2,-2,4
2.732461,-8,48,4,1,1,0,-4,-8,4
2.753554,17,-44,-58,-3,0,-3,-3,-6,4
2.754592,-36,-43,4,-6,0,2,2,3,4
2.754596,39,-28,-7,-6,-3,-1,-3,-9,4
2.754598,-41,-17,0,0,-2,-2,-2,12,4
2.776040,-20,-15,-4,-2,-2,-1,-1,-1,4
2.776061,14,58,-2,-5,-4,-2,-1,4,4
2.777658,-31,-24,-11,-2,-1,-1,1,-4,4
2.777665,44,68,50,4,2,-1,1,-3,4
2.789989,5,-11,13,-5,-1,-2,-3,-5,4
2.792190,42,106,-4,-6,-3,-4,-7,-10,4
2.805512,-55,7,2,2,-2,-2,-2,-3,4
2.805535,28,-25,-2,-5,-1,0,4,12,4
2.813363,-5,-25,11,1,1,-1,1,13,4
2.813378,43,18,-22,4,1,0,-2,-25,4
2.814249,-20,-59,-8,-3,-2,-1,0,8,4
2.814252,35,14,20,8,4,3,1,-12,4
2.836149,-51,-2,2,-2,-4,-3,-3,4,4
2.836173,18,-61,-10,0,-1,-1,1,9,4
2.837908,4,-58,14,0,2,0,2,4,4
2.837916,18,20,-23,2,0,-1,-1,-5,4
2.849774,62,105,19,1,-1,2,4,4,4
2.849795,-17,-70,-2,-8,-1,-1,0,-14,4
2.857955,1,12,9,-2,-2,-2,-5,-6,4
2.858839,39,23,-4,4,0,0,3,17,4
2.873575,-21,10,4,-1,-3,-2,-6,-28,4
2.873593,28,-65,-41,-4,-2,-1,2,6,4
2.874293,-40,-21,5,-4,-1,0,-1,-1,4
2.874360,5,12,3,2,2,1,2,2,4
2.895924,38,-28,2,-3,-2,-2,-1,-2,4
2.895939,-68,22,23,5,-1,-1,-3,7,4
2.897362,-34,-25,-41,-4,-1,-2,-6,7,4
2.897374,-17,3,9,-3,-5,-5,-3,-10,4
2.909788,-12,-14,-13,-1,-2,-2,3,6,4
2.909811,23,71,13,4,1,-1,-1,5,4
2.917947,29,35,16,4,1,-1,0,-9,4
2.917962,-32,29,-12,-6,-4,-2,-2,9,4
2.933509,96,-49,-12,-3,-2,-4,-2,-28,4
2.933523,-45,8,17,2,-1,-1,-3,17,4
2.934222,4,13,-1,-6,-2,0,2,-7,4
2.934238,15,86,-26,1,1,4,1,7,4
2.956193,4,-128,15,6,3,4,1,-14,4
2.956217,-12,-48,13,-3,0,-3,-3,-2,4
2.957600,65,70,25,12,3,2,4,4,4
2.957609,-92,-128,-27,-9,-3,-4,-5,-26,4
2.969790,-43,42,1,-5,-1,-1,-3,0,4
2.969819,6,6,-1,3,2,0,3,-12,4
2.977882,50,68,3,-4,-3,-3,-3,5,4
2.977906,-13,-32,5,-2,-1,-1,-2,-7,4
2.994931,20,30,6,1,0,-1,0,10,4
2.994940,-17,-2,16,4,1,-1,-1,-10,4
2.994943,-3,-64,-15,-7,-2,-3,3,6,4
2.994945,-55,78,8,-2,-3,-1,-6,-5,4
3.016036,-25,-21,-3,-3,-1,1,-1,19,4
3.016143,27,32,-11,-4,-5,-1,-2,-1,4
3.017419,-10,45,-4,0,0,1,1,-9,4
3.017427,-26,51,46,9,1,0,1,-2,4
3.029791,-50,-95,-16,1,1,-1,-2,2,4
3.029825,60,65,-6,-4,-4,-3,-3,-5,4
3.037935,-18,-18,23,-1,0,1,-3,1,4
3.037959,28,63,-13,1,-3,-2,-1,0,4
3.053705,40,48,16,9,5,2,9,34,4
3.055389,-69,-39,-24,-9,-5,-4,-7,2,4
3.055397,24,-36,8,-6,-3,-3,-3,-6,4
3.055400,78,99,42,16,5,3,6,1,4
3.076057,-7,-85,-32,-11,-6,-5,-5,-5,4
3.076932,-36,15,-17,-8,-5,-4,-4,-19,4
3.076939,-40,-11,1,-3,-1,-2,-3,-4,4
3.076941,45,-17,-5,-3,0,2,2,21,4
3.089751,36,20,17,4,2,0,-3,-22,4
3.089770,-5,-48,26,5,2,2,4,10,4
3.097727,21,44,10,-1,0,2,-1,-5,4
3.097744,-12,-61,-35,-8,-2,-4,-5,-1,4
3.113444,-41,30,-11,-5,-1,0,4,-9,4
3.114497,42,12,15,4,2,2,-1,15,4
3.114501,-18,-98,-33,-7,-5,-3,-5,-14,4
3.114503,-66,-39,-2,-11,-5,-3,-3,3,4
3.136110,-2,27,-15,3,-1,0,-1,5,4
3.136128,-9,-21,-44,2,1,0,4,-4,4
3.136741,10,-27,2,10,1,0,5,16,4
3.136759,-103,-7,-8,-14,-6,-4,-12,-32,4
3.158603,127,127,32,14,5,4,4,-6,4
3.158628,-77,8,-37,-17,-7,-6,-5,4,4
3.159577,-2,67,16,-2,-4,0,-2,18,4
3.159582,14,12,-8,-4,-1,-1,6,12,4
3.172767,7,29,26,4,1,1,-1,9,4
3.172791,5,0,9,1,1,-1,-1,-37,4
3.174184,8,-14,14,6,2,-1,1,0,4
3.174192,10,13,-13,1,-3,-3,-3,-10,4
3.196813,-51,27,-8,-14,-5,-2,-3,1,4
3.196823,24,-100,11,3,-1,-2,0,15,4
3.196825,-39,4,-10,0,1,-1,-1,-12,4
3.196827,41,-19,-25,0,-1,-1,1,-3,4
3.218654,-22,-93,15,-2,-1,-2,-5,-24,4
3.220747,47,-30,-40,0,-2,1,0,12,4
3.220755,29,53,3,-1,0,0,-2,2,4
3.220757,21,-73,-30,-3,0,-2,3,2,4
3.233203,-46,52,0,5,1,-1,0,9,4
3.233228,-27,-43,4,-2,-2,-1,-6,-23,4
3.235117,-28,-31,1,-1,-3,-3,-2,-4,4
3.235121,26,-35,-13,-1,-2,-1,0,6,4
3.257177,36,43,33,-2,-2,-2,-3,12,4
3.257183,-81,26,30,6,3,2,-1,-20,4
3.257185,-6,46,-22,-7,-3,0,-4,-4,4
3.257186,17,53,64,7,4,0,3,11,4
3.279128,-34,-123,-22,-4,-1,-2,-4,-28,4
3.279155,-13,97,16,3,0,3,4,17,4
3.281527,-13,5,18,1,1,0,1,-3,4
3.281531,0,41,-11,-1,-2,-1,-3,-19,4
3.292981,0,-76,-16,6,3,3,3,1,4
3.293002,66,-2,-1,-4,-2,-4,-7,9,4
3.294937,-64,-44,-62,-8,-6,-4,-3,-19,4
3.294944,50,-45,31,3,3,1,0,2,4
3.316216,11,105,-19,-4,-3,-1,3,20,4
3.316238,-73,9,9,-7,-2,-3,-7,-18,4
3.318892,40,-27,1,3,0,-2,3,19,4
3.318904,-3,-11,16,-5,-1,1,0,6,4
3.338627,-34,23,1,-6,-6,-5,-7,2,4
3.338653,2,0,-23,1,1,2,4,16,4
3.339384,-21,-30,13,1,2,-2,0,2,4
3.339402,3,8,-17,-9,-4,-3,-5,-11,4
3.352052,28,36,20,6,0,1,4,-1,4
3.352067,55,10,23,6,2,-1,3,9,4
3.361707,-7,-54,10,2,0,0,0,-6,4
3.361711,-6,-28,-13,1,-2,1,0,6,4
3.376410,65,83,-20,-7,-3,-2,-2,-7,4
3.376438,-68,-61,-38,1,-3,-4,-4,-4,4
3.378823,-13,1,-9,-1,-3,-1,-3,-11,4
3.378829,19,37,13,0,0,0,0,-1,4
3.399177,49,-44,11,15,4,2,4,5,4
3.399183,63,16,-1,-5,-2,0,-1,14,4
3.399907,-10,-46,19,2,1,-1,-1,4,4
3.399914,-25,-24,-15,0,-1,0,-2,-4,4
3.413369,-28,-35,-11,-2,-1,-1,-2,-16,4
3.413380,-14,85,31,-6,-1,0,0,5,4
3.422386,-68,16,-14,-8,-2,-4,-6,14,4
3.422395,13,58,-1,-1,0,0,-2,4,4
3.436068,-31,-83,-13,-6,-1,-2,0,2,4
3.436086,-28,-48,-38,-13,-6,-4,-5,-37,4
3.438290,67,-63,40,6,3,0,5,22,4
3.438295,-2,-39,-4,-2,0,-2,-3,2,4
3.458793,-17,35,-3,-1,-2,-2,-4,-6,4
3.458799,32,-40,5,2,1,1,3,13,4
3.459982,45,70,-5,1,-1,-1,-1,1,4
3.459993,11,-19,19,0,0,-3,-1,-15,4
3.472217,-38,-46,-9,-10,-4,-1,-2,6,4
3.473792,73,100,27,9,5,1,3,27,4
3.481567,46,35,-5,-11,-5,-4,-9,-7,4
3.481572,-27,76,-24,8,1,2,3,-7,4
3.495891,-26,27,10,-12,-6,-5,-6,-3,4
3.495907,-8,0,-15,-4,-3,-2,-2,-11,4
3.497364,-1,-70,6,10,4,4,7,6,4
3.497396,46,26,7,-1,-2,-3,-2,-1,4
3.518610,-77,-10,1,4,0,-1,-2,8,4
3.518762,32,-74,-31,-7,-4,1,3,-3,4
3.521224,16,-2,1,5,2,-1,2,-9,4
3.521234,-105,-109,-52,-17,-7,-5,-7,-5,4
3.532535,79,54,-2,7,1,1,5,8,4
3.532562,-41,-1,10,1,1,-1,-6,13,4
3.541926,-21,20,-8,0,2,2,2,1,4
3.541930,-23,-8,9,8,3,1,6,4,4
3.556396,-32,-37,-22,-11,-6,-4,-11,-4,4
3.556470,64,30,11,-1,0,1,4,6,4
3.557649,66,83,-23,10,1,2,2,-3,4
3.557665,-61,-12,25,-6,-3,-2,-5,10,4
3.578971,-26,-38,30,2,1,0,2,0,4
3.579009,-13,36,31,4,0,-1,-2,-23,4
3.581596,-55,-61,-27,-8,-4,-2,0,8,4
3.581599,12,96,-27,-2,-1,-2,-3,-14,4
3.592550,-37,16,-3,0,0,1,-1,-5,4
3.592577,-62,7,-30,-7,-5,-5,-3,0,4
3.602801,-70,-38,20,-5,-2,-2,-7,-35,4
3.602807,60,43,-14,0,-2,0,0,4,4
3.616539,20,-15,1,-3,-1,0,1,-6,4
3.616545,16,-2,-13,3,4,0,1,-7,4
3.617419,-2,22,17,-6,-3,-2,-1,-5,4
3.617427,54,-2,19,7,3,1,0,-3,4
3.639418,-71,-93,-28,-10,-4,-2,-4,-14,4
3.639438,-27,67,38,6,3,4,5,14,4
3.641635,79,94,-2,-5,-2,-3,-7,-10,4
3.641645,-32,-106,-1,-1,-1,-1,1,3,4
3.652216,59,24,-30,3,1,-2,0,-9,4
3.652236,-30,-93,-38,-2,-4,-3,-3,-10,4
3.661409,-18,11,-3,-1,-1,-1,0,9,4
3.661413,13,-24,21,7,2,-1,-3,-18,4
3.677721,13,-63,-7,-9,-5,-2,-5,-17,4
3.677726,-19,-14,-2,-1,-1,0,3,9,4
3.677728,-52,-57,20,4,-1,-2,-2,-8,4
3.677730,45,28,5,2,0,0,2,6,4
3.698386,4,52,15,4,1,1,3,13,4
3.698400,-15,-10,17,1,-1,-2,-2,-7,4
3.699899,52,-103,-8,-9,-3,-1,-1,-2,4
3.699976,-24,19,6,-5,-2,-3,-3,-12,4
3.712361,14,62,8,0,0,-2,-1,-3,4
3.712382,13,28,10,5,0,0,3,7,4
3.723436,-57,65,0,1,-2,-1,-1,2,4
3.723444,8,-12,-17,-4,-4,-1,1,2,4
3.736237,18,-7,13,0,5,3,4,14,4
3.736263,-27,-23,12,4,1,-3,-1,-2,4
3.739113,88,111,-6,-9,-8,-3,-3,5,4
3.739129,40,64,-30,-1,5,0,2,10,4
3.758494,-12,-8,42,2,-1,-3,-3,-10,4
3.758509,34,1,-4,1,1,3,3,4,4
3.760053,28,44,4,9,5,3,4,7,4
3.760071,-71,-9,21,-5,-4,-1,-1,-10,4
3.772332,24,-8,-40,-1,-3,-1,-3,10,4
3.772364,11,-50,10,-2,-1,0,0,-15,4
3.782334,-63,-75,-26,-6,-4,-2,-6,1,4
3.782338,-3,-14,20,2,-1,-2,0,4,4
3.796518,-7,-18,-3,-2,-1,-1,-1,3,4
3.796545,2,17,31,1,-1,-2,-7,-23,4
3.798180,-2,49,-22,7,2,1,3,12,4
3.798184,24,-62,32,4,1,1,-3,-34,4
3.818478,53,55,-33,-1,-3,-4,-1,-1,4
3.818516,15,-34,-20,-7,-3,-1,0,13,4
3.820139,-12,55,26,-6,-1,-3,-3,-8,4
3.820167,-22,14,-11,0,0,0,-3,2,4
3.832218,36,51,29,6,3,2,8,23,4
3.832257,-68,15,9,-1,-3,-2,-7,-20,4
3.841643,24,-27,10,1,-1,-2,-2,-10,4
3.841655,2,28,-5,-2,-1,1,-2,-1,4
3.856229,15,-24,26,0,-1,-1,-2,-7,4
3.857574,19,-37,-20,1,1,-2,4,28,4
3.857647,-31,2,63,6,3,1,-5,-25,4
3.857653,-58,-64,-27,-11,-6,-5,-1,15,4
3.878469,19,73,-14,1,0,1,4,-2,4
3.878505,23,70,-7,-5,0,-2,-3,-7,4
3.879961,75,19,8,3,1,2,4,8,4
3.879970,-53,111,-4,-9,-6,-6,-11,11,4
3.893561,73,7,10,-1,-2,-2,-2,-2,4
3.893566,-15,4,-54,-6,-4,0,0,13,4
3.902235,8,-7,29,5,1,-1,0,-22,4
3.902241,-25,-4,-14,-5,-1,0,-2,18,4
3.916338,-45,-19,-10,-2,-2,0,-4,-2,4
3.916354,0,-4,12,-2,-1,-2,2,7,4
3.917475,-4,47,-23,-3,-1,-3,-5,15,4
3.917479,37,-112,-30,2,0,-1,3,16,4
3.938803,24,63,1,-4,-1,-2,-1,-16,4
3.938817,-63,20,1,-9,-4,-1,-8,-5,4
3.940030,25,1,7,-2,-4,1,4,10,4
3.940045,39,-128,-34,5,6,-2,-2,-42,4
3.954946,-20,3,-7,-5,-1,-1,-2,15,4
3.954953,13,23,13,6,0,-1,-1,0,4
3.962979,-10,-41,-31,-7,-1,0,0,-3,4
3.962984,-3,98,12,-4,-12,0,1,2,4
3.976445,-66,-80,-5,-6,12,-1,-3,-5,4
3.976473,22,15,1,5,2,-1,1,-2,4
3.978531,2,-4,-4,0,-4,-2,-1,2,4
3.978543,-12,47,9,4,-1,-2,1,-3,4
3.998858,-63,31,16,-3,-2,-5,-7,-10,4
3.998886,38,-37,-6,6,3,2,4,21,4
4.001112,-23,-113,-38,-11,-4,-2,-5,-14,4
4.001117,-58,-69,-33,-2,0,-1,-2,-26,4
4.012419,25,115,39,4,-2,1,6,18,4
4.012479,34,38,-20,-9,-6,-4,-9,-33,4
4.022941,-4,-28,4,4,1,0,4,2,4
4.022953,-9,-46,5,2,2,2,2,5,4
4.036332,53,-24,-2,3,-2,1,3,-1,4
4.036366,24,30,-1,-5,-5,-2,0,-10,4
4.038087,-9,-25,66,9,4,1,2,6,4
4.038091,60,-8,16,1,1,-3,1,2,4
4.058445,-23,17,-11,-3,-6,-5,-10,-38,4
4.058462,36,-4,-1,4,2,-1,1,6,4
4.060067,-57,90,-43,-10,0,-3,1,8,4
4.060084,44,38,14,-1,1,1,3,31,4
4.081798,-30,-71,-9,2,-2,-2,-1,1,4
4.081827,-13,18,36,7,1,1,0,-2,4
4.083886,18,73,-10,3,3,1,4,-1,4
4.083891,75,76,4,-5,-5,-4,-6,-18,4
4.096430,-8,-18,-9,-4,-4,-3,-1,1,4
4.096454,-2,9,38,-1,0,-3,-4,-4,4
4.097773,13,37,2,-3,-2,-1,1,20,4
4.097783,-29,99,1,3,2,1,0,5,4
4.118409,-45,-104,-22,-8,-5,-2,-2,11,4
4.118425,8,-34,-35,-1,0,0,5,5,4
4.120425,-44,-24,-3,5,-1,-2,-4,-3,4
4.120436,62,-23,-13,-5,0,0,3,-3,4
4.141046,-11,27,3,-4,-4,-3,-2,-3,4
4.141068,-56,-33,18,4,1,1,-4,9,4
4.142616,35,-48,-25,-11,-4,-2,-8,-35,4
4.142689,55,38,39,2,0,-2,1,12,4
4.156321,-5,-77,-16,4,-1,1,2,-5,4
4.156403,93,61,-12,-7,-3,-1,6,10,4
4.157724,-39,-48,7,-2,-4,-1,-6,-1,4
4.157744,-16,-26,-3,8,5,1,-4,-18,4
4.178365,11,70,5,-4,-2,-3,-2,-2,4
4.178380,-12,71,0,-3,-1,-2,0,-3,4
4.179863,-3,15,8,3,1,-2,-1,9,4
4.179898,-55,-81,-10,-9,-4,0,-1,7,4
4.201044,22,96,7,4,0,0,-2,5,4
4.201091,-29,-125,-39,-6,-1,-1,-5,-43,4
4.202462,95,85,15,2,1,1,6,26,4
4.202477,-30,41,10,3,1,1,-3,-12,4
4.217071,-4,-10,-36,-10,-4,0,-3,5,4
4.217076,-3,50,34,0,-3,-2,-2,-30,4
4.217430,4,43,-3,1,0,0,1,-3,4
4.217437,-28,-82,-20,-6,-3,-5,-7,-17,4
4.238736,-3,-75,8,6,1,3,5,5,4
4.238754,14,-32,10,3,1,0,0,18,4
4.240813,-15,-19,-12,-4,-2,-1,-1,-15,4
4.240823,15,73,18,4,-1,2,1,13,4
4.263240,-11,-18,3,-3,0,0,-3,-1,4
4.263249,-70,-86,-16,-6,-4,0,-3,10,4
4.263252,-1,-31,-20,-3,1,-1,-4,-29,4
4.263253,-104,66,-8,-14,-6,-5,-6,4,4
4.276017,35,-46,12,4,2,-1,4,-14,4
4.276055,46,85,12,8,5,3,9,35,4
4.282586,-7,-46,-29,-3,-3,-2,-2,-2,4
4.282616,18,-26,-45,-1,0,-3,-4,-4,4
4.298997,-79,57,10,1,-1,-1,-4,-5,4
4.299019,57,52,-7,1,1,1,2,22,4
4.300278,-11,-32,39,3,0,0,2,-11,4
4.300306,-2,66,9,5,3,0,6,4,4
4.321513,-37,23,-12,-11,-3,-1,-4,17,4
4.321532,-12,-71,-11,3,-2,0,-7,-24,4
4.323346,-12,-6,-6,-11,-3,-3,-2,13,4
4.323351,40,-36,1,4,-1,0,-1,-4,4
4.335725,24,11,-8,8,4,0,3,2,4
4.335756,-39,27,0,-9,-2,-3,-8,-17,4
4.342158,35,43,19,-1,-1,-3,-1,7,4
4.342181,-43,-28,3,4,1,0,1,26,4
4.358473,40,78,43,4,1,1,-2,-5,4
4.358488,-56,-58,-59,-13,-8,-6,-10,-16,4
4.360223,-24,1,-16,-3,0,1,-4,3,4
4.360245,23,-26,8,-9,-3,-1,2,4,4
4.381181,38,-22,4,10,1,-1,0,-3,4
4.381218,-26,-22,5,0,2,-3,-9,-31,4
4.382914,9,33,-2,-6,-3,-2,-1,-11,4
4.382918,40,-16,13,-3,0,1,3,9,4
4.395224,-10,-128,-25,-7,-4,0,-3,-10,4
4.395239,39,40,54,13,4,1,5,6,4
4.402807,-3,-56,-42,-1,-2,-1,-3,-7,4
4.402836,3,-27,-8,1,1,1,-2,-11,4
4.418865,-4,6,-16,-13,-5,-4,-3,-10,4
4.418878,48,64,18,-1,-2,-1,1,9,4
4.420219,-33,-105,-6,-7,-4,-4,-6,24,4
4.420239,19,71,24,7,1,-1,-2,-13,4
4.441142,-45,-86,-39,-14,-6,-5,-10,-11,4
4.441171,-54,22,-6,0,1,1,5,19,4
4.443855,-28,58,3,4,0,-1,-8,-53,4
4.443862,20,-112,13,-1,1,1,3,20,4
4.455678,-32,96,18,1,-1,2,1,-6,4
4.455701,11,39,5,-9,-4,-2,-4,-8,4
4.462070,17,87,5,6,1,2,4,13,4
4.462084,-47,-99,-45,-6,-1,-2,-2,-2,4
4.479078,47,106,24,8,2,1,0,24,4
4.479083,-25,-98,-16,-9,-2,0,3,21,4
4.479890,93,45,11,3,1,2,5,2,4
4.479897,10,38,4,-3,-1,-3,-4,-10,4
4.508793,-23,-112,-3,-9,-2,-2,1,7,4
4.508799,-52,-80,-35,6,1,2,1,-2,4
4.510050,-37,77,7,-6,0,-3,-9,-34,4
4.510071,-7,-11,-27,-7,-3,-1,-4,-7,4
4.515270,12,60,18,15,7,3,4,-2,4
4.515382,-29,-1,-21,-11,-6,-6,-10,-5,4
4.522221,10,26,10,10,1,1,3,20,4
4.522269,36,38,27,4,2,0,0,-13,4
4.540525,54,63,3,-1,-3,-1,-3,-10,4
4.540532,-53,-64,-4,1,2,1,1,-9,4
4.540534,5,-22,-48,-16,-7,-4,-1,33,4
4.540536,-24,-4,38,-1,-5,-1,-3,3,4
4.561571,-46,-97,2,2,-2,-3,-6,-2,4
4.561597,52,126,-19,2,0,-1,3,10,4
4.563024,-33,-118,4,-6,-2,0,-3,-2,4
4.563029,4,63,-11,1,0,1,3,18,4
4.574642,-21,48,2,4,3,0,3,5,4
4.574661,101,-32,-9,-8,-5,-4,-3,2,4
4.584195,-95,-9,-2,0,0,0,-1,25,4
4.584204,18,13,-27,-2,1,-1,-2,-26,4
4.598876,5,-19,70,4,1,0,3,23,4
4.598903,3,7,20,10,3,1,3,-10,4
4.600517,29,69,8,2,2,0,-1,-44,4
4.600524,-56,-14,-20,-6,-4,-2,-1,7,4
4.621095,108,13,-40,-3,-1,-2,2,-7,4
4.621117,-25,4,53,-6,-3,0,-3,17,4
4.622554,40,64,28,9,2,1,6,16,4
4.622693,76,59,34,2,1,1,-2,2,4
4.634745,23,-14,-18,0,-2,-1,-1,-13,4
4.634769,1,-60,-7,4,3,-1,0,2,4
4.644847,16,-63,-9,-2,1,0,2,8,4
4.644854,48,69,10,4,0,0,0,7,4
4.658530,-17,-83,-10,-9,-3,-3,-5,-3,4
4.658545,18,42,6,-1,0,0,1,-15,4
4.660097,-28,-118,-5,1,1,1,0,13,4
4.660117,-37,19,0,-3,-2,-2,-5,-1,4
4.682861,-12,-15,-7,-7,0,-1,-3,-10,4
4.682865,9,89,57,18,5,1,3,15,4
4.682867,-1,-104,-44,-3,-3,-3,2,-17,4
4.682869,-30,-85,-16,-8,-6,-7,-14,-25,4
4.694799,58,48,-36,3,3,5,10,24,4
4.694820,-72,-43,17,-8,-4,-4,-7,4,4
4.705483,7,-55,-5,1,1,-1,3,15,4
4.705489,-17,103,11,-4,-4,-4,-4,12,4
4.718927,-17,69,15,3,-1,-2,-1,-8,4
4.718955,20,-111,-15,-6,-2,-1,2,5,4
4.721636,-12,104,28,6,2,0,-2,-9,4
4.721643,-33,-80,-13,-4,-2,0,2,2,4
4.742643,-50,-53,-31,-3,-2,-2,-2,-13,4
4.742651,29,95,13,2,1,0,-3,-1,4
4.742653,-41,-37,-29,-8,-3,-2,-6,-12,4
4.742655,41,56,3,3,0,-1,0,2,4
4.754866,-9,-65,-42,-5,-3,-2,-1,9,4
4.754886,-19,48,-3,6,-2,-2,-1,-14,4
4.764743,-24,0,-45,-4,-2,-5,-7,-11,4
4.764748,24,-51,2,4,2,0,0,-35,4
4.778707,-44,-74,-67,-14,-3,-3,-5,-5,4
4.778791,62,-68,66,8,1,-1,-1,0,4
4.779923,-22,2,31,-8,-4,0,-2,3,4
4.779937,35,3,34,1,0,2,11,39,4
4.801233,18,127,90,9,2,0,-3,-44,4
4.801248,30,-33,-62,-12,-3,-3,-10,-16,4
4.802589,48,66,19,5,1,0,1,11,4
4.802629,-45,-92,-2,-2,-6,-1,-3,-14,4
4.814640,9,-10,14,0,2,1,2,3,4
4.814654,-30,-5,-24,-5,1,2,6,11,4
4.824285,33,6,31,10,9,0,1,-13,4
4.824289,-41,-10,-23,-5,-4,-5,-6,-11,4
4.838622,30,-62,4,5,-2,1,2,22,4
4.838650,-40,93,-2,-5,-3,-1,-13,-61,4
4.839983,29,8,-60,-16,-7,-1,0,-7,4
4.839999,20,39,-27,2,3,3,5,-2,4
4.860938,-42,-71,91,19,4,0,-5,1,4
4.860952,51,19,-13,0,0,0,1,32,4
4.862472,-45,46,13,-6,-4,-2,-3,-13,4
4.862483,8,-80,-43,-4,1,-3,-2,-6,4
4.874554,101,121,24,3,-1,1,2,7,4
4.874570,-72,-64,-29,-15,-6,-4,-2,6,4
4.885388,-8,-4,20,0,-1,-1,-1,4,4
4.885392,13,46,3,4,0,-2,1,2,4
4.898810,10,73,-28,-2,0,-2,-3,12,4
4.898817,-34,40,3,6,2,2,3,2,4
4.899905,-18,16,8,-5,-4,-3,-4,15,4
4.899915,-9,-49,17,0,0,0,-1,-3,4
4.921103,8,-68,-34,-8,-3,-1,3,0,4
4.921124,96,111,36,4,4,2,1,-3,4
4.923052,20,-49,9,4,-1,-3,0,5,4
4.923058,-13,-33,-41,-10,-3,0,-3,5,4
4.934715,38,-43,69,10,2,-1,2,8,4
4.934760,-34,-57,-12,0,0,0,0,1,4
4.945087,23,4,-8,4,1,-1,-2,-9,4
4.945091,25,50,29,-1,0,-2,0,20,4
4.959081,-66,-69,-41,-10,-5,-3,-10,-29,4
4.959110,-5,-38,-16,-5,-3,0,3,9,4
4.960722,-7,49,44,11,4,2,6,5,4
4.960726,-62,-33,-3,-6,-3,-5,-9,4,4
4.981470,49,58,12,-2,-1,1,1,-4,4
4.981492,-12,-57,-12,0,-2,-1,-7,-5,4
4.982730,23,-59,-26,-4,0,-2,2,12,4
4.982838,100,4,18,4,0,1,8,19,4
4.994577,-57,48,-16,-12,-6,-7,-7,-3,4
4.994604,29,-59,-12,1,0,1,-1,-16,4
7.008333,-7,-2,-2,0,-2,-1,0,0,0
7.008541,1,-1,-3,0,-1,-2,-1,-1,0
7.008544,1,-2,-1,-2,-1,-1,1,-2,0
7.028524,-2,-2,-1,-1,-1,-2,0,2,0
7.028542,1,-1,-2,-1,0,-1,-1,0,0
7.029916,1,1,-2,-3,-1,-1,1,-1,0
7.029929,-2,0,0,-1,-1,-1,-3,-2,0
7.043449,2,0,0,0,0,0,0,2,0
7.043492,-2,-2,-2,1,-1,-2,-1,-2,0
7.044936,-3,-2,-3,-2,-1,-1,0,-1,0
7.044953,1,0,-1,-2,-1,0,0,-2,0
7.066584,-2,-4,1,0,-2,0,0,-1,0
7.066610,-1,0,0,-1,-1,-2,-2,2,0
7.068113,-1,0,0,-1,0,0,0,-1,0
7.068116,-1,-1,-3,-3,0,-2,-1,-1,0
7.088934,0,0,-2,-2,-1,-2,-2,0,0
7.088940,0,-1,-1,-3,0,2,-1,-1,0
7.090029,-1,-1,0,1,-1,-2,0,-2,0
7.090089,-1,-2,-1,-1,0,-2,-2,-1,0
7.103681,-1,0,-1,0,-3,-1,-2,0,0
7.103691,3,0,0,0,-1,-1,0,0,0
7.109955,-8,-3,-2,-2,-3,-1,-2,-5,0
7.109981,-1,-1,-1,-1,0,0,0,9,0
7.126448,-4,1,-1,-2,0,-1,-3,2,0
7.126480,16,-1,-1,-2,-1,-2,-2,-4,0
7.128240,-31,-5,2,0,-1,-1,-2,-4,0
7.128245,-3,-2,-3,-2,-1,0,-2,2,0
7.148856,-1,-1,-1,-1,-1,-1,0,3,0
7.148870,-2,1,2,0,1,0,0,1,0
7.151394,12,0,-1,-1,-1,-1,-1,2,0
7.151399,1,-1,0,0,-1,-1,-2,-3,0
7.163198,-6,-2,0,-2,0,0,-2,-4,0
7.163224,0,-1,-1,-1,-2,-3,-1,-2,0
7.169678,4,0,0,0,-2,-1,1,1,0
7.169705,-4,0,0,0,0,0,1,-1,0
7.186174,6,-1,-1,0,0,1,-1,-1,0
7.188358,-2,-1,-1,0,-1,-2,0,1,0
7.188369,-1,-2,-1,-3,-1,-1,0,0,0
7.188371,-1,-2,-1,-2,-1,-2,-1,-4,0
7.208468,-1,-2,-2,-2,0,-1,-1,-3,0
7.208483,-4,-3,-2,0,-2,1,-1,2,0
7.210313,4,-1,-1,1,-1,0,-1,2,0
7.210320,3,-1,0,-1,-2,0,-1,-5,0
7.222851,-1,-1,0,1,0,0,-1,1,0
7.222867,-9,1,-1,-2,-2,0,0,-4,0
7.229672,3,-1,-2,-1,-2,0,-2,1,0
7.229686,-2,0,0,-2,0,-1,-2,1,0
7.245747,2,0,0,0,-1,-4,-1,3,0
7.245783,-4,-3,0,0,-2,-1,-1,-3,0
7.252066,4,0,-2,-1,-1,0,0,1,0
7.252088,1,-3,-1,0,-1,-2,0,-1,0
7.268599,-1,1,0,0,0,-2,-1,-5,0
7.268617,-5,-5,-2,-1,1,0,-2,0,0
7.271098,5,-2,-1,-1,1,0,-1,3,0
7.271103,-2,0,-2,-2,-2,0,-2,-2,0
7.283130,2,1,0,-2,-2,-1,0,0,0
7.284967,1,-2,0,0,0,-2,0,-1,0
7.289714,-1,-1,-1,-1,-2,-1,-3,-5,0
7.289731,-5,-3,-2,0,-1,1,0,-6,0
7.307961,0,1,0,-1,-2,0,0,4,0
7.307965,0,1,-2,1,-1,0,0,-2,0
7.307967,-1,1,-1,-2,-2,-1,-3,-1,0
7.307969,4,5,3,1,1,-2,-2,2,0
7.328602,-4,-6,-2,-1,-1,0,-5,-17,0
7.328650,-6,1,-2,-2,0,-1,-3,4,0
7.329972,0,1,-2,-1,-1,-1,-1,-6,0
7.329978,-4,-2,-2,-1,-1,-1,-2,0,0
7.343077,2,-1,-1,-1,0,0,2,10,0
7.343242,-4,-4,-2,-1,-1,-1,-3,-13,0
7.349909,-5,0,-1,-1,-1,-2,0,11,0
7.349931,-1,1,0,-2,-1,-3,1,0,0
7.366433,-4,-3,-3,-1,-1,1,0,-5,0
7.366460,4,-4,-1,-2,-1,-2,-2,-1,0
7.369150,0,-2,-1,-1,0,1,0,0,0
7.369157,0,-2,-1,0,-3,-1,-1,-1,0
7.388641,-2,1,1,-2,0,-1,-1,3,0
7.388658,2,2,1,0,-1,1,0,5,0
7.390001,0,-1,-1,-1,-1,-1,0,-6,0
7.390037,0,-2,-1,-2,-1,-2,-2,1,0
7.402169,-2,-1,-1,0,-2,-2,-2,-1,0
7.402184,-3,-1,-1,-2,-1,-2,-2,0,0
7.411282,-2,-1,-1,-1,-2,-2,-1,-2,0
7.411286,-1,1,1,-1,-2,0,-1,-2,0
7.425919,-3,-2,-1,0,-2,-2,-1,-3,0
7.425934,-2,1,-1,-1,-1,0,-1,2,0
7.427632,-1,-2,-1,0,-2,0,-3,-1,0
7.427645,-2,-3,-2,-1,0,0,-1,0,0
7.448340,-1,0,-3,-2,-2,1,-1,-2,0
7.448370,-2,0,-3,1,-1,0,0,2,0
7.449871,-1,-1,-1,-1,-2,0,-2,-3,0
7.449880,-1,-2,-3,-1,0,-1,-1,0,0
7.463754,1,-2,0,-1,0,-1,-1,0,0
7.463764,-1,-2,-1,-1,-2,-2,1,-3,0
7.472888,1,1,-1,1,0,-2,-1,-3,0
7.472897,-3,-3,-1,-3,-1,-1,-1,-3,0
7.486115,-2,-2,-1,-2,0,-3,2,0,0
7.486134,1,1,0,-1,-1,-1,0,-1,0
7.488346,0,-1,-2,-3,-1,-1,-1,1,0
7.488357,-3,-3,-2,0,-2,-1,-2,-6,0
7.509068,5,1,0,0,0,-2,-1,1,0
7.509103,-2,0,0,-3,-1,0,1,-1,0
7.510613,1,-5,0,0,-1,0,1,0,0
7.510617,-3,-1,-1,0,0,0,-2,-2,0
7.522277,-3,-2,-1,0,-2,0,-2,-4,0
7.522297,-2,-1,-3,1,1,1,-3,-1,0
7.531047,-3,1,-2,-1,1,0,0,-1,0
7.531065,0,-3,-1,-1,-3,-2,0,2,0
7.546260,-2,-1,-1,0,0,-1,0,-1,0
7.546457,-1,0,0,-2,-1,-2,-1,0,0
7.548581,-1,-1,-2,-2,1,1,-1,0,0
7.548584,-1,-1,-1,0,0,0,0,0,0
7.568446,1,-1,-2,0,0,-2,0,0,0
7.568461,-4,-1,-2,-2,-1,-1,-1,1,0
7.571046,-2,-1,0,-1,-2,0,-1,-2,0
7.571052,2,1,0,0,-1,-2,-1,0,0
7.582480,0,-1,0,-2,-2,-1,-2,3,0
7.582513,0,-2,0,-1,0,0,0,-2,0
7.592233,-1,-3,0,0,-1,0,-1,-1,0
7.592241,0,-1,-2,0,-2,0,0,2,0
7.606205,-3,-1,-1,0,-1,-1,0,-1,0
7.606227,-2,-5,-2,-1,-2,-4,-2,0,0
7.607649,0,0,0,0,-2,-3,-2,0,0
7.607666,-1,0,-3,-1,1,-2,-1,-1,0
7.628237,-2,0,-1,0,-2,-1,-1,-4,0
7.628252,1,0,1,0,-1,-1,0,0,0
7.636873,2,0,-2,-2,-2,-2,0,1,0
7.636877,-1,1,0,-1,0,-1,-1,-1,0
7.642202,-1,-1,-2,-2,0,-2,-1,0,0
7.642217,-1,-2,0,0,-2,-2,0,-2,0
7.651544,-3,0,1,0,0,-1,-1,-4,0
7.651549,0,0,0,-1,-2,0,-2,2,0
7.665896,-5,0,-1,-1,-1,0,-3,-1,0
7.665927,2,1,0,-1,-1,-2,-1,1,0
7.667423,-5,-2,-1,-1,1,-1,-1,-2,0
7.667439,2,-2,-1,-1,-2,-1,-1,-2,0
7.689200,1,-1,0,1,-2,-1,-1,0,0
7.689218,0,0,-4,0,-2,-1,-1,-2,0
7.691371,-1,0,-1,-1,-1,-3,1,-1,0
7.691376,-3,-1,-1,0,0,1,-1,-3,0
7.702185,-2,0,-1,-1,0,-2,0,-1,0
7.702205,0,-1,0,1,2,1,0,-2,0
7.711933,-1,-3,0,-2,-1,0,-1,-2,0
7.711937,-2,-2,-2,0,1,-2,1,-3,0
7.726853,2,1,0,-1,0,-1,-1,1,0
7.726859,-3,1,-1,-2,-1,-1,0,-2,0
7.727441,-2,0,-1,-1,-1,0,-1,0,0
7.727451,1,-5,0,-1,0,-3,0,2,0
7.749163,-1,-1,-2,-1,-1,0,-2,-1,0
7.749188,-2,0,-1,-1,0,-1,-3,-1,0
7.751432,2,-1,-1,-1,-2,-1,0,-1,0
7.751435,-1,2,0,-2,-1,-1,0,-1,0
7.762687,4,-2,-1,-1,-2,-2,0,-2,0
7.762707,1,-2,0,-3,-2,-2,0,-2,0
7.778832,-1,0,-1,-1,-2,-1,-1,0,0
7.778854,0,-1,1,-1,-1,-1,-3,-2,0
7.786507,-1,-4,0,0,1,0,-1,-2,0
7.786546,-1,0,-1,0,0,-1,-2,-1,0
7.788795,-1,-1,-1,-1,0,-1,0,1,0
7.788800,-3,-2,-1,-3,0,-1,-1,-1,0
7.808728,-1,0,-2,-1,0,-1,-2,-3,0
7.808748,-2,-1,1,0,0,-1,-1,1,0
7.810128,1,1,-1,0,1,-1,-1,0,0
7.810143,1,0,-2,0,-2,-1,-2,-1,0
7.822422,0,-2,-1,-1,-1,-3,0,0,0
7.822437,-2,-1,-2,-2,-1,-2,-1,-2,0
7.831663,2,-2,-3,-1,0,-1,-1,-1,0
7.831667,0,-1,0,0,0,-1,-1,1,0
7.845850,-2,-2,-1,-4,0,0,1,1,0
7.845865,-1,-3,-1,1,0,-1,-1,-2,0
7.847420,0,-1,1,-1,-1,-1,1,-2,0
7.847455,-1,0,-2,-1,-2,-1,-1,-1,0
7.868512,-3,0,-1,-2,0,-2,0,0,0
7.868597,4,-1,0,-1,0,0,-2,-2,0
7.870095,2,-1,-2,-3,-1,0,-2,-1,0
7.870117,-2,-2,-1,-1,-1,0,-1,-1,0
7.891052,-2,-2,0,-1,-2,-2,-2,0,0
7.891070,-1,-2,-1,1,-3,0,1,1,0
7.892450,-1,0,-2,0,-1,-1,0,-1,0
7.892496,2,-1,0,-3,-1,-1,-2,-1,0
7.914378,-1,0,1,-1,-2,-1,0,-1,0
7.914388,-2,0,-2,-2,-2,-1,-1,1,0
7.915028,-1,0,0,-1,-1,-1,0,-1,0
7.915035,-1,-4,-3,-1,-2,-1,-2,0,0
7.928571,-3,-2,-2,-1,-3,-2,-2,-3,0
7.928619,0,-2,-2,-2,-1,-2,0,-1,0
7.929843,-2,-2,-1,1,0,0,-2,0,0
7.929851,-2,-1,-2,-1,-1,-1,0,-2,0
7.951071,2,0,-1,0,0,0,-2,-1,0
7.951091,-1,-2,0,-2,-1,-1,0,0,0
7.953600,-3,-2,0,-2,-1,-2,-2,-2,0
7.953614,-2,-4,1,-1,-1,1,0,-2,0
7.966387,-2,0,0,0,-2,0,-2,0,0
7.966417,-2,0,-1,-1,0,-1,-2,-2,0
7.967910,-1,0,1,-1,-1,-1,-2,-1,0
7.967914,-2,1,0,0,0,-2,0,2,0
7.988908,0,-1,-1,-3,0,0,1,-1,0
7.991357,-1,0,-1,0,-2,-3,-1,-2,0
7.991363,-2,-2,-2,0,0,-1,0,0,0
7.991364,2,0,-1,-2,-1,-1,-2,0,0
8.011345,-3,-4,-2,0,1,-1,-3,-1,0
8.011366,1,-2,0,-1,-1,1,0,-2,0
8.014037,-1,2,-2,-1,-2,-2,-2,1,0
8.014042,0,1,0,-2,0,-1,0,2,0
8.025361,1,-3,-1,1,-2,-1,-2,-1,0
8.025377,-2,-1,0,0,0,-1,-2,0,0
8.032114,-2,-2,-1,-2,-1,0,-2,-1,0
8.032140,-1,1,-1,0,-1,0,0,-2,0
8.049069,0,0,-2,-1,1,-1,2,-1,0
8.049105,-1,-1,-1,-1,-1,0,-1,-1,0
8.049989,0,1,2,-1,0,-1,0,0,0
8.049992,-1,-6,-1,0,0,-2,-2,-3,0
8.071447,0,-1,-1,-3,-1,-1,-2,-2,0
8.071458,-2,-1,-1,-1,0,-1,-1,0,0
8.080324,-6,-1,-4,-1,-1,-1,-1,-6,0
8.080328,-1,0,-1,-2,0,-2,-1,1,0
8.085619,-1,-1,0,0,-2,1,0,-1,0
8.085639,-1,-3,-2,-2,-3,-2,0,-2,0
8.092093,0,-2,-1,0,0,0,-1,-1,0
8.093531,-2,1,0,-1,0,-2,-2,-1,0
8.108362,0,-1,-2,-1,-1,-2,0,-3,0
8.108380,-2,0,-2,-2,-2,-1,-2,1,0
8.110032,-2,-1,2,-1,-2,0,0,1,0
8.110044,0,-1,-1,-1,0,-1,-2,-3,0
8.131572,1,0,0,-2,-1,0,-1,0,0
8.131576,2,-1,-1,-1,-1,-1,-1,1,0
8.132417,-1,-1,0,-1,-2,-2,-1,-2,0
8.132426,-2,0,-1,-1,-3,0,-1,-2,0
8.147127,-1,0,0,0,-1,-1,-2,-1,0
8.147132,-4,-1,-1,0,-1,-3,-1,-2,0
8.152714,-2,-2,0,-1,0,-2,-2,-1,0
8.152728,2,-1,-2,-1,-2,0,-2,-1,0
8.168543,-1,-2,-1,0,-1,-1,-1,-1,0
8.168562,-3,-1,-2,-1,-1,-1,-3,-2,0
8.170605,1,0,-1,0,0,-1,-2,1,0
8.170610,-3,-1,0,-1,-1,-2,1,-1,0
8.191932,1,0,0,-4,0,0,-1,1,0
8.191937,0,-2,-1,-1,0,-1,-1,-1,0
8.192528,2,-2,0,-1,-2,-1,-2,-1,0
8.192540,-2,0,-3,0,-3,-2,0,-2,0
8.205403,0,0,-1,-2,-1,-2,0,1,0
8.205427,0,-1,2,-1,0,-1,-1,2,0
8.212159,-3,-1,-4,-2,-1,-1,0,-2,0
8.212176,-2,0,-2,-1,0,1,-1,0,0
8.228543,-2,-2,-2,-2,-1,-3,-1,-3,0
8.228561,-1,0,1,0,0,1,0,-4,0
8.229973,0,-2,-2,-2,-2,-2,0,-1,0
8.230032,1,-1,-2,-1,0,-1,-1,1,0
8.251057,0,0,0,0,-2,-1,-1,0,0
8.251077,-1,0,-2,0,-2,-1,-1,-1,0
8.252778,0,-2,0,-1,-1,-1,0,0,0
8.252785,-1,0,2,0,-1,0,-1,-2,0
8.265273,-2,-1,-1,0,0,-2,-1,-1,0
8.267007,-2,-1,-1,1,-2,-1,-1,-1,0
8.272204,2,-1,-1,0,-1,0,0,1,0
8.272223,0,-1,0,-2,0,-3,-1,-1,0
8.288418,0,1,1,-2,-1,0,-2,0,0
8.288433,-3,1,1,-2,1,-1,-1,-1,0
8.290041,-2,-3,-1,-1,-2,-2,-3,0,0
8.290085,-1,-1,-1,-2,-1,-1,0,-2,0
8.311247,-3,-1,-1,-1,-2,-2,-1,-2,0
8.314037,0,-4,-3,0,-2,0,1,3,0
8.314041,-1,-1,2,-2,-1,-1,0,-2,0
8.314042,1,-1,-1,-1,0,-2,1,0,0
8.325399,-2,-2,-2,0,-1,-1,-1,-1,0
8.325419,2,1,-1,-1,-1,-1,0,-2,0
8.332293,-3,1,-1,-2,0,-1,0,-1,0
8.332315,-2,-1,-1,0,-2,-2,-2,1,0
8.348336,-1,0,0,-2,-1,0,0,-3,0
8.348340,-2,-2,-1,-1,0,-1,0,1,0
8.354615,-1,-1,-2,-2,1,-1,0,0,0
8.354640,-2,-2,1,0,0,1,-2,-1,0
8.370994,-1,-1,-2,-1,0,-1,-1,0,0
8.371013,0,0,-1,-2,-1,-1,-2,-2,0
8.373221,1,-1,-2,0,0,-1,-1,0,0
8.373230,0,-1,-3,1,0,0,0,1,0
8.394474,0,-1,-2,-1,0,0,-2,2,0
8.394480,-2,2,-2,-1,0,-3,1,-3,0
8.394953,-1,-1,-1,-2,-1,0,0,-1,0
8.394964,-2,2,0,1,-2,-1,-3,0,0
8.410548,-5,-1,-1,0,0,-1,-1,0,0
8.410552,0,-2,-1,0,-1,0,0,-1,0
8.410554,1,-1,2,-2,-3,-1,-1,-1,0
8.410555,-2,0,0,-2,-2,-2,-1,-1,0
8.431282,-1,-1,-1,0,-2,-2,0,-1,0
8.431308,-2,-1,-1,-3,-1,-1,-3,1,0
8.434005,-2,-2,-2,-1,0,-2,-3,-2,0
8.434010,1,-2,1,-2,-1,0,-2,-3,0
8.452756,-1,-1,0,0,-1,0,-2,-2,0
8.454433,-3,-3,-2,0,-2,-3,0,-2,0
8.454438,0,0,-1,-1,0,-1,0,0,0
8.454440,0,0,-2,-2,0,-1,0,0,0
8.467892,-3,-2,-1,-1,1,0,0,-3,0
8.470038,2,-1,-1,-2,-2,0,-1,-1,0
8.470044,-1,-2,-1,-1,0,-3,-2,-2,0
8.470046,-2,-1,-2,-1,0,-1,0,-1,0
8.490109,0,-1,-1,-2,0,-2,-2,0,0
8.490124,-2,0,0,-1,-1,0,0,-2,0
8.497930,-2,0,-1,-1,-1,-1,-1,-1,0
8.497945,0,-3,-1,-2,-2,0,0,0,0
8.512911,1,1,-2,-1,-2,-2,-1,0,0
8.512931,-1,-1,-1,-1,1,-3,-1,-4,0
8.515043,0,-1,-2,0,-1,-1,0,-3,0
8.515047,-1,-1,-1,-1,-1,0,-1,-2,0
8.528329,0,-1,-2,-2,-2,-2,-2,1,0
8.528354,-1,-1,0,0,-1,1,-2,0,0
8.529798,-4,0,-2,-1,-2,-1,-1,0,0
8.529802,1,0,0,0,-1,-1,-2,-2,0
8.552095,-1,-1,0,0,0,0,1,-1,0
8.552102,0,-1,-1,0,-2,-1,-2,0,0
8.552104,-1,-1,-2,0,-2,-1,0,0,0
8.552105,-3,-2,0,0,-1,-3,-2,1,0
8.573040,-1,-2,-1,-2,0,-1,0,-3,0
8.573063,-1,1,-1,-1,1,-2,-2,-1,0
8.575344,-2,1,-1,-1,0,-1,-1,0,0
8.575355,-2,-1,-2,-2,-1,0,-2,-2,0
8.587872,1,0,0,0,-1,0,-1,3,0
8.587896,0,0,-1,-1,-2,0,0,0,0
8.590011,-1,0,-1,-2,0,-2,-3,1,0
8.590018,-1,-2,-1,-1,-3,-1,-1,0,0
8.612776,-2,-2,-2,-1,-1,-2,-3,-2,0
8.612781,-1,0,-2,-1,-2,-2,0,-2,0
8.612783,2,-1,0,-1,-3,-2,-1,0,0
8.612784,0,0,0,1,-1,-1,-2,-2,0
8.633273,2,-2,-1,-1,-1,-1,-4,0,0
8.633291,-3,-1,0,-1,0,-1,1,0,0
8.635772,-4,-1,-1,-1,-1,-1,0,-2,0
8.635783,-1,1,-1,0,-1,-2,-1,0,0
8.648058,0,-1,-1,-2,-1,0,-1,-2,0
8.648164,1,-1,0,-1,-1,-1,-2,-3,0
8.649777,-2,-1,-1,-1,-3,0,-2,-2,0
8.649780,0,-1,-2,-2,1,-1,1,0,0
8.670422,-1,-1,-2,0,-1,-2,0,2,0
8.670451,-2,-2,-1,-1,-1,0,-2,0,0
8.672655,-1,-1,-1,0,-1,0,1,-1,0
8.672660,0,-2,-1,0,-2,-1,0,-3,0
8.692837,-1,0,2,-1,-2,0,0,1,0
8.692877,2,-4,-1,-2,-1,0,-1,-1,0
8.693452,-2,-1,-2,-3,0,-2,-2,-2,0
8.693469,-5,0,-1,-1,-1,-1,-1,0,0
8.707807,-1,-1,-1,-2,0,-2,0,-4,0
8.707828,-3,0,0,0,-1,-2,-1,-1,0
8.709683,0,-1,-1,-1,-2,0,-1,1,0
8.709686,1,0,-1,-1,0,-1,-1,-1,0
8.730164,-1,-1,0,0,-2,1,-2,2,0
8.730177,-4,-2,-3,0,-1,-1,-2,-1,0
8.732238,1,-2,-1,-2,-1,-1,-2,-3,0
8.732242,-2,2,0,-1,-2,-2,1,1,0
8.754101,-2,-4,-1,0,-2,-2,-2,-1,0
8.754105,-1,-1,-2,-1,-1,-1,0,-2,0
8.754107,0,-1,0,1,-3,-1,-2,1,0
8.754109,-3,-2,-1,-1,1,0,0,-2,0
8.770241,-1,2,-3,-1,-1,-1,0,0,0
8.770246,0,-1,-1,1,-1,-2,-1,-1,0
8.770248,0,0,-1,-2,0,-1,1,-1,0
8.770249,1,-3,-1,-1,-1,-3,0,1,0
8.790237,-2,-1,0,-2,0,-2,-1,-1,0
8.790256,-1,0,0,-1,-1,-2,0,2,0
8.791082,-3,0,-2,-1,-2,-1,-2,1,0
8.791096,-2,-1,0,-2,0,0,-1,-1,0
8.812733,-1,-1,-1,-1,-1,-1,-1,-1,0
8.813826,2,-1,-2,-1,-2,0,0,2,0
8.813832,1,0,-2,-1,-1,-2,0,-3,0
8.813834,0,0,-1,-1,-1,-2,-2,-1,0
8.828371,-3,0,0,-2,-5,-1,-1,-5,0
8.828396,-1,-1,-1,-1,-1,0,1,-2,0
8.830835,-1,-2,1,-1,-1,-2,-1,-2,0
8.830840,1,-1,-2,-1,-1,0,-1,0,0
8.850324,0,-1,-1,1,-1,-1,-1,0,0
8.850335,0,-4,-1,-1,-3,-1,-2,-2,0
8.850959,-2,-2,0,-2,-1,-1,-1,1,0
8.851022,0,-1,0,-1,-2,0,-1,-2,0
8.872741,-2,-2,0,-1,0,0,0,1,0
8.873711,-1,2,-2,-2,-1,-1,-1,0,0
8.873717,2,0,1,0,0,2,-1,-1,0
8.873719,-3,-2,-3,0,-1,-2,-2,0,0
8.888037,-1,-2,-1,1,0,0,2,-1,0
8.888058,-2,0,0,-1,-1,-2,-2,-3,0
8.890422,0,-1,-1,0,-1,-1,-2,-3,0
8.890429,-2,-1,0,-1,0,1,-1,-1,0
8.911113,1,-1,0,-2,-1,-1,-2,0,0
8.911119,-1,-3,-1,-1,-1,0,0,-4,0
8.911121,-1,-1,-2,-1,-1,0,0,0,0
8.911122,0,-4,-2,0,-3,0,-1,-1,0
8.932697,-1,-2,-1,-1,0,-1,-2,0,0
8.932711,0,0,-1,-1,-1,-1,0,-2,0
8.935055,-3,1,-1,-1,-2,0,-1,0,0
8.935059,-1,1,0,0,-1,-1,0,-3,0
8.947782,2,0,-2,-2,1,-1,-1,2,0
8.947808,-3,0,-1,2,-1,-1,-1,0,0
8.949612,0,-2,-3,-1,-2,-3,0,-2,0
8.949620,-2,0,-1,-1,0,-1,0,-2,0
8.970420,-1,-1,1,0,-2,1,0,-3,0
8.970444,-1,-1,-1,-1,0,-1,-1,-1,0
8.971789,-3,-3,-3,-1,-1,-1,-1,0,0
8.971796,-2,-1,-1,-1,-1,-1,-1,1,0
8.992806,0,1,-1,1,-2,-1,-3,-2,0
8.992824,-1,-2,0,0,-1,-1,-2,2,0
8.993605,-2,-2,0,-1,-1,-1,-1,-4,0
8.993626,1,0,-1,1,-1,-1,0,1,0
9.007900,0,-1,-3,0,-2,-3,-1,-1,0
9.007924,-3,-1,0,0,-1,-1,-1,-1,0
9.009116,-1,0,0,0,-3,-2,0,-1,0
9.009125,-1,-2,0,1,-1,-1,1,-1,0
9.030274,-1,0,-1,-1,-1,-1,-1,-1,0
9.030295,2,1,0,-1,-1,0,-2,0,0
9.031351,0,1,-2,-1,0,-2,-1,0,0
9.031357,-2,-4,-1,-2,0,-2,0,-5,0
9.052897,-1,-2,-1,-1,0,-1,1,0,0
9.052924,-5,-1,-2,-2,-2,0,-2,-1,0
9.053743,-2,1,0,-2,-2,0,-2,-2,0
9.053773,1,-1,-1,0,-1,-1,-1,0,0
9.067794,2,-1,-2,0,-1,1,-1,-1,0
9.069288,1,-2,-2,-2,-1,-1,-2,1,0
9.069293,-1,-2,-1,-3,0,0,-1,-1,0
9.069295,-2,-1,0,-1,0,0,0,-2,0
9.090291,-3,-1,-1,-2,-2,-2,-1,-1,0
9.090306,1,0,1,-1,0,0,0,0,0
9.092146,1,0,0,-1,0,-1,-2,-1,0
9.092150,-3,-1,-1,-2,-2,-3,-2,1,0
9.113694,-3,-1,0,-1,0,0,-2,0,0
9.113700,-1,-3,-1,1,0,-2,-1,-5,0
9.113701,0,-1,-1,0,-1,-3,0,-2,0
9.113704,0,1,-2,-1,0,0,-1,1,0
9.128461,-5,0,-1,0,-2,-1,-1,-3,0
9.128468,-2,-4,-1,-1,-1,1,0,-1,0
9.128470,-2,-3,0,-2,0,0,-1,-1,0
9.128471,-1,-2,0,-1,-2,0,-1,1,0
9.150536,-1,1,-1,-2,-1,-2,0,2,0
9.150577,1,-1,-2,0,-1,0,0,1,0
9.151140,0,-1,0,-1,-2,0,2,1,0
9.152885,0,-1,-1,0,-2,0,0,0,0
9.174274,1,-2,0,-1,1,-1,-4,-3,0
9.174281,0,2,2,-1,0,-1,-1,0,0
9.174283,0,-1,0,0,-1,-1,0,0,0
9.174284,-2,0,-1,-2,-1,-2,-2,-1,0
9.187765,1,-1,-1,-2,-2,-2,-1,-1,0
9.187787,-1,-2,-2,-2,-2,0,-1,1,0
9.188935,-1,-1,0,0,-1,-3,-1,-1,0
9.188939,2,-1,-3,-1,-1,-1,0,0,0
9.210268,1,-2,0,0,0,-1,-1,-1,0
9.210297,-1,-1,-2,-1,-3,-1,0,-2,0
9.211052,-4,0,-2,1,-1,0,-1,-1,0
9.211074,-3,-1,0,-1,0,-1,0,-4,0
9.232851,0,0,0,-1,-1,0,-2,-1,0
9.232871,1,-5,0,1,-2,-1,-2,-1,0
9.233801,1,-2,-2,-1,0,0,-2,-3,0
9.233805,-1,2,0,-1,-1,-2,0,-1,0
9.248103,-11,-6,-2,-1,-2,0,-1,-1,0
9.248143,0,0,-1,-1,0,-1,0,-2,0
9.249025,-2,-1,-2,-2,-1,-1,-2,0,0
9.249029,2,-1,0,-2,0,-2,-1,-1,0
9.270301,-3,0,-2,-1,-1,0,-1,-2,0
9.270318,-4,-1,-3,0,-2,-2,-3,-1,0
9.271099,-2,-1,-1,-2,0,-2,0,0,0
9.271118,-4,1,-1,-1,-4,-2,-1,-1,0
9.293214,-5,1,0,-1,-1,-1,1,-3,0
9.293241,3,0,1,-3,0,-1,-2,-2,0
9.294855,1,0,-1,0,-1,-2,1,-1,0
9.294862,-1,-1,0,-2,1,0,-1,-2,0
9.307925,0,-1,-1,-1,-1,1,0,0,0
9.307946,-4,-2,0,0,-2,-1,0,-5,0
9.309519,-1,-1,-1,-1,-1,0,-2,-1,0
9.309529,0,-2,-1,0,-2,0,-1,-1,0
9.330360,3,-2,-2,-1,0,-2,0,-4,0
9.330368,-5,2,-1,-2,-1,-1,-2,-2,0
9.330972,-1,-2,2,1,1,-1,-2,1,0
9.331009,6,-2,-1,-1,-1,-2,-2,-2,0
9.353053,1,0,-1,0,-2,-1,-1,0,0
9.353071,2,2,0,-1,-1,-2,1,-2,0
9.354633,1,-3,-3,-2,0,-1,-1,-3,0
9.354638,-2,-1,-1,2,-1,-2,-1,-1,0
9.367247,0,0,0,-1,-1,-1,0,-1,0
9.367261,0,-1,0,-2,0,-2,0,-1,0
9.376413,-3,0,0,-1,-3,-2,-1,0,0
9.376420,-1,-2,-1,-2,-1,-1,0,-2,0
9.392766,0,0,-1,-2,-1,-2,-1,-4,0
9.392772,-3,-1,-1,1,-1,0,-2,0,0
9.392773,0,0,-1,-1,0,0,-1,0,0
9.392774,-2,-1,0,-3,-2,-1,-1,-1,0
9.412700,-3,0,-1,-2,-1,0,-1,-2,0
9.414188,0,-2,-1,0,0,0,0,1,0
9.414197,-1,-1,-1,0,1,-1,0,-4,0
9.414200,3,0,-1,-1,0,2,-1,-1,0
9.427819,-3,-2,-2,-1,0,0,-2,-1,0
9.427856,2,2,-1,-4,-2,1,-1,1,0
9.435749,-1,-3,0,0,-2,-1,-1,0,0
9.437834,-5,1,-1,-1,0,-1,0,1,0
9.451348,-1,-1,0,-1,0,-2,-1,1,0
9.451363,-1,-1,-1,-1,-1,-2,0,0,0
9.453285,-5,-1,-1,-4,-1,-1,-2,-2,0
9.453297,-6,0,-2,-2,-1,-2,-1,0,0
9.472787,2,-2,-1,0,-2,0,-1,-1,0
9.472805,-1,-2,0,-1,0,-2,-2,-2,0
9.473964,-3,-1,0,-1,-1,-1,-1,0,0
9.473968,-1,-1,-1,-3,0,0,1,-4,0
9.487188,3,1,-1,-2,-1,0,-4,-1,0
9.487205,-6,-2,1,1,-1,0,-1,-1,0
9.495221,7,1,-2,0,-2,0,-2,0,0
9.495235,-2,-4,-3,-2,0,-1,-2,-1,0
9.510420,4,1,1,0,1,0,0,-1,0
9.510440,4,-1,-3,-2,-1,-2,-1,-2,0
9.512365,5,0,-2,-1,-1,-2,-1,1,0
9.512368,-1,0,-2,1,-2,-1,-2,0,0
9.533753,0,-1,-1,0,-1,-2,1,0,0
9.533759,-2,-2,0,-1,-1,0,0,0,0
9.533761,-2,-1,-1,0,0,0,1,0,0
9.533762,1,-1,1,-1,-1,1,0,1,0
9.547117,-1,3,-1,-2,0,-1,0,0,0
9.547145,2,-2,0,1,-2,-1,-1,0,0
9.556137,-2,-2,0,-1,-3,0,-2,-3,0
9.557380,-2,-1,-3,-1,-3,-1,0,-1,0
9.570554,-2,0,-2,-1,-2,-2,-1,-1,0
9.570585,-3,-1,-2,-1,-1,-1,-1,-1,0
9.572157,-2,-4,-3,-1,0,0,-1,-2,0
9.572161,2,0,1,-1,0,-2,-1,0,0
9.593123,-5,-4,-1,-3,-2,0,-1,-1,0
9.593139,1,-2,-3,-2,-1,-2,-1,1,0
9.595773,-1,-1,-1,0,0,-2,-1,-3,0
9.595781,-2,-1,-1,0,0,-2,-1,-2,0
9.607299,0,2,-2,-2,0,-1,-1,-2,0
9.607317,-4,-1,-1,-1,-1,-1,0,-2,0
9.615671,-4,2,0,-2,-1,-1,-1,0,0
9.615698,3,0,0,0,-1,0,-1,-3,0
9.630180,0,-3,0,-1,0,-1,-1,-2,0
9.630226,0,-1,-2,-1,-1,0,-1,1,0
9.630880,-1,-1,-3,-1,2,0,0,-2,0
9.630914,-1,0,0,-1,0,-1,1,-1,0
9.652892,-2,-1,-1,-1,-2,-2,0,-1,0
9.652921,-4,0,1,-1,-1,-1,-1,-1,0
9.654620,3,-1,-1,1,-1,-2,1,0,0
9.654624,1,-3,0,-2,-1,-1,-3,-1,0
9.667488,-7,-1,-1,-1,-2,0,-1,-1,0
9.667520,3,1,0,-1,0,-1,-1,0,0
9.675270,-4,-1,-2,-2,-2,-2,-1,-2,0
9.675281,0,-3,-1,-1,-2,-1,-1,-1,0
9.690178,-1,-2,-1,-1,0,-2,1,-2,0
9.690188,0,-2,-2,-2,-1,0,-3,-4,0
9.690916,-2,-2,-1,-1,-2,-1,0,-3,0
9.690951,-3,0,-2,0,-1,0,0,0,0
9.712892,-2,-3,-2,0,-1,-2,-1,-2,0
9.712906,1,0,-1,-2,-1,-1,-1,0,0
9.715692,1,1,0,-1,-2,0,-3,-4,0
9.715697,-4,-1,-1,-1,-1,-1,-1,1,0
9.727648,0,0,-1,-1,-1,-1,-2,-3,0
9.727668,0,-1,0,1,-1,0,0,-3,0
9.738144,-4,-1,0,-1,0,-1,-1,1,0
9.738148,-1,0,0,-1,-1,-1,0,-1,0
9.753104,1,-1,-1,-1,-2,-1,-1,3,0
9.753115,-2,-1,-2,0,-2,-1,1,-4,0
9.753119,1,-2,-4,-2,0,-2,0,-1,0
9.753122,-3,0,-3,-1,-1,0,-1,-1,0
9.772873,6,1,-1,-1,0,-1,0,0,0
9.772894,2,-3,-2,-2,-1,0,-1,-1,0
9.774641,0,0,0,1,-2,1,-2,-2,0
9.774645,-2,-3,-3,-3,-1,0,-2,-3,0
9.796372,-3,-1,-1,0,-1,-1,0,-1,0
9.796399,0,1,0,-1,-1,1,0,1,0
9.799288,-2,-1,-2,0,-1,-1,-2,0,0
9.799293,-1,-1,0,-1,-2,-3,-2,-1,0
9.810710,5,-2,1,1,-1,0,-2,0,0
9.810737,-4,-1,0,0,-1,1,0,-3,0
9.812337,-5,0,-1,-4,-1,-1,0,-1,0
9.812341,-4,-2,0,-1,-1,0,-2,-1,0
9.832925,0,2,-2,-1,-1,-1,-1,-1,0
9.833058,-3,-1,-2,-1,0,-1,1,0,0
9.833712,-2,-3,-3,-1,0,-1,-2,-3,0
9.833751,1,1,0,0,0,-1,-1,0,0
9.855999,-4,-1,-1,-2,-2,-1,0,-1,0
9.857959,0,-3,0,-1,0,-3,-1,0,0
9.857964,-2,0,-1,-2,-1,-1,1,-1,0
9.857966,4,3,0,1,1,-3,-2,-2,0
9.870296,-11,-6,1,0,-1,-1,-3,2,0
9.870315,1,2,-1,-3,-1,-1,-1,0,0
9.872879,0,0,0,0,-1,-1,0,-2,0
9.872884,2,-2,0,-2,-1,0,0,-1,0
9.894449,-3,1,0,-3,0,-1,0,-1,0
9.894454,2,-2,-1,0,-1,-2,-1,0,0
9.894456,0,-1,-2,1,-1,-2,-1,1,0
9.894457,-2,-2,-1,0,-1,1,-1,0,0
9.916117,1,0,-2,1,-2,1,-2,-2,0
9.916131,0,-1,-2,0,-1,-1,-2,0,0
9.917815,1,-2,0,-2,-1,-1,-1,-1,0
9.917822,-1,-1,-1,-3,0,-1,-2,0,0
9.930665,3,-3,-4,-1,-1,-2,1,1,0
9.930684,-1,2,-1,-3,-1,1,0,-1,0
9.932882,-6,-2,0,-3,0,-1,-1,-1,0
9.932886,-1,-2,0,0,-2,-1,0,-1,0
9.953063,-6,-2,1,0,-1,-1,-1,-3,0
9.953082,-2,0,-1,-2,-1,-2,-1,0,0
9.955693,1,-1,-1,0,-1,0,-2,2,0
9.955698,-3,1,-1,-1,-3,-1,-2,-2,0
9.975877,3,-1,0,0,1,0,-1,-1,0
9.975894,-5,1,-2,-1,0,-1,0,-3,0
9.976761,-5,-2,-2,0,0,-2,-2,-4,0
9.976780,-3,-1,-2,-1,-1,-3,-3,-3,0
9.990201,3,0,-1,-1,-3,-3,-1,3,0
9.990215,-6,-2,-1,-4,-1,-2,-1,-1,0
9.990938,1,2,0,-1,0,-1,-1,1,0
9.990976,-2,1,-2,-1,0,-2,1,0,0
12.015637,9,-2,0,4,5,1,2,-1,4
12.016555,-77,24,6,-3,-2,-2,-2,-21,4
12.022241,-2,116,64,-2,-8,-3,-11,-14,4
12.022266,-37,-28,13,-10,7,-4,-3,-20,4
12.038474,-11,4,-14,14,5,4,2,11,4
12.038500,26,-93,-27,-6,-3,-4,-6,-9,4
12.040038,27,-25,-44,-10,-5,-4,-2,-4,4
12.040056,15,-11,-4,-2,-5,2,7,-4,4
12.061171,-48,127,81,20,6,6,6,1,4
12.061200,-20,-26,-24,-15,-3,0,-3,-27,4
12.063400,-46,127,-35,-13,-10,-9,-8,11,4
12.063405,25,-128,-41,10,5,2,1,9,4
12.075285,26,119,72,16,8,8,3,-14,4
12.075304,-113,-52,7,-3,-3,-3,4,-32,4
12.082810,45,-30,-33,-32,-13,-11,-17,-5,4
12.082819,49,24,-31,-12,-7,2,4,-11,4
12.099199,98,32,23,30,17,9,4,-4,4
12.099207,-105,-98,-56,-23,-6,-3,2,34,4
12.099913,-1,73,8,16,7,6,10,14,4
12.099921,19,-34,29,11,-1,-5,-11,-4,4
12.121194,-55,-76,-29,-12,-4,-3,-2,16,4
12.121213,43,88,12,1,-2,3,12,-8,4
12.123098,6,-2,8,2,-1,1,1,22,4
12.123105,-12,127,-19,-17,-10,-2,0,12,4
12.135469,-23,-50,-6,15,1,-3,-8,23,4
12.135491,-29,21,43,7,1,-2,-4,-16,4
12.142106,45,-36,-38,-9,-1,-4,-3,24,4
12.143682,40,107,23,7,1,2,9,10,4
12.158646,-38,-76,-5,-15,-8,-9,-12,-12,4
12.158667,-21,59,-32,-11,-4,3,11,29,4
12.160948,120,65,18,29,13,10,9,8,4
12.160954,-95,-122,-49,-42,-15,-12,-10,-6,4
12.181312,-23,3,-49,-22,-10,-4,-5,-3,4
12.181340,71,64,1,11,1,-3,-6,-15,4
12.183270,6,22,26,10,9,2,3,-4,4
12.183274,50,-41,14,20,5,1,3,1,4
12.194599,16,-2,-18,-18,-7,-2,6,-6,4
12.194613,10,37,8,-1,-4,-5,-10,1,4
12.205187,-114,-104,-42,-12,-5,-5,3,-14,4
12.205195,7,127,15,7,3,2,5,5,4
12.218643,91,35,-6,-6,-5,-1,-8,-33,4
12.218666,-11,35,29,7,2,0,-6,-9,4
12.221385,-38,113,-27,-8,-9,-3,-7,-9,4
12.221400,15,-28,-5,10,18,5,-4,18,4
12.241016,9,105,27,5,0,0,8,47,4
12.241038,-31,-84,-13,-3,0,-3,-11,-34,4
12.242857,56,68,2,-8,-3,0,5,9,4
12.242906,-87,-52,-9,2,-2,-3,1,10,4
12.254824,53,109,13,7,5,2,-2,9,4
12.254834,-46,-74,-5,2,0,1,0,-25,4
12.263552,-46,-50,16,-1,2,0,3,45,4
12.263649,-8,107,19,-4,-12,-5,-13,-40,4
12.278460,21,-87,-7,1,5,4,7,5,4
12.278475,15,46,13,5,3,0,2,3,4
12.279838,-58,-66,15,1,-3,-2,1,-3,4
12.279870,127,127,38,9,2,1,5,-12,4
12.300974,-103,37,-14,7,-4,-4,-1,-34,4
12.300978,87,127,-59,-5,2,-5,-11,17,4
12.302388,-35,97,24,-11,-1,-1,-6,8,4
12.302404,34,30,15,24,6,2,6,26,4
12.315273,77,102,18,-8,-9,-3,-9,28,4
12.315285,44,-69,-38,3,3,6,4,2,4
12.324692,12,61,-39,5,4,1,8,-2,4
12.324697,-52,-51,25,2,-3,-3,-2,13,4
12.338991,-62,-128,-64,-41,-16,-7,-6,-34,4
12.339011,13,63,2,-2,-2,-1,8,10,4
12.341103,17,-32,-19,-3,-1,-1,-4,7,4
12.341114,10,-53,22,5,1,3,-7,-6,4
12.363870,3,-35,17,7,3,-4,-4,-26,4
12.363884,-31,-22,24,-5,1,-2,1,-32,4
12.363890,-50,-128,15,-1,-4,-2,1,-23,4
12.363894,-9,6,12,-5,-2,-2,2,0,4
12.374788,41,-49,-14,9,2,1,1,-53,4
12.374809,42,35,80,10,1,7,3,19,4
12.392298,-64,-101,-3,-5,-3,-6,-7,-11,4
12.392311,61,100,-15,2,-2,0,1,-6,4
12.398822,44,-11,-47,-4,2,5,12,29,4
12.400446,82,44,64,0,-2,-3,-5,14,4
12.400451,83,127,36,10,5,4,1,1,4
12.400453,22,-73,-74,-13,-5,-3,-7,8,4
12.421204,42,127,38,21,12,3,11,69,4
12.421230,-51,-3,-2,5,2,2,2,-19,4
12.422828,62,23,3,-10,-8,-3,-7,47,4
12.422836,-93,-3,62,8,2,-2,-4,-70,4
12.434731,12,-56,16,20,15,8,15,17,4
12.434747,-81,-128,-118,-39,-18,-17,-18,-3,4
12.444121,5,71,-18,-1,-4,-1,4,-7,4
12.444127,-24,-9,-36,-14,-8,-2,5,18,4
12.458368,17,29,-4,-4,-1,0,-16,-3,4
12.458377,-43,-44,17,-6,-5,-4,-4,-5,4
12.459910,46,-8,-14,-1,0,-1,-4,-34,4
12.459927,14,-107,-74,-31,-9,-5,6,9,4
12.481127,-45,67,72,8,-4,-5,-14,-16,4
12.481147,62,37,-17,-6,-5,-1,-4,4,4
12.483624,90,37,57,22,11,3,8,35,4
12.483630,-120,17,10,-2,0,-2,-7,21,4
12.494867,-59,100,22,-3,-11,-4,-1,4,4
12.494883,46,1,17,-1,5,1,-2,4,4
12.505163,12,-82,-16,-11,3,-1,-3,-8,4
12.505170,-10,74,54,8,7,2,3,25,4
12.521474,13,-85,-37,-5,-5,0,2,6,4
12.521481,44,82,37,8,-1,-4,0,8,4
12.521484,-18,-118,28,-9,-2,-1,-10,-55,4
12.521486,72,96,27,19,5,4,-1,-6,4
12.541547,-9,-50,-65,-18,-3,1,5,-7,4
12.541576,-81,-66,-15,-3,-4,2,9,27,4
12.544102,18,50,-3,0,0,-3,-8,-1,4
12.544108,-12,-12,0,-3,-3,0,-4,-54,4
12.554595,-16,-8,-1,3,2,1,8,16,4
12.554619,93,97,9,-2,-1,-1,0,-23,4
12.566315,-1,92,8,24,6,2,-5,-10,4
12.566320,-12,3,8,-13,-4,1,3,36,4
12.578868,59,61,87,39,11,2,-1,-4,4
12.578895,-50,-34,-52,-10,-3,-3,-2,1,4
12.581568,8,66,-40,-30,-14,-4,1,23,4
12.581574,127,42,100,34,5,-1,1,-42,4
12.601161,1,127,97,26,5,2,-3,-18,4
12.601921,-97,-37,-19,-7,0,-4,-4,34,4
12.602549,-80,-77,-30,0,0,0,-6,-48,4
12.602571,62,51,-22,0,-1,-1,9,14,4
12.623717,-89,-50,-49,-26,-10,-5,-9,0,4
12.623734,28,-93,62,15,5,6,7,17,4
12.624974,-32,-90,-13,-5,-10,-7,-8,-16,4
12.625004,17,-97,-47,-7,0,-3,-10,-5,4
12.638798,-15,-115,-33,-5,-1,2,3,-9,4
12.638815,-35,127,26,10,0,1,-1,-1,4
12.641066,37,-100,-39,17,10,1,4,-16,4
12.641071,-3,-81,-12,-5,-5,-3,-5,-14,4
12.660957,103,36,-3,-7,0,-1,12,45,4
12.660997,-5,-100,-38,-17,-5,-1,-9,-3,4
12.662560,-29,6,28,4,-2,1,1,-20,4
12.662635,-43,95,-21,-6,0,-3,-6,-11,4
12.684374,-15,86,25,3,3,-1,-2,-2,4
12.684394,34,-74,-7,-1,-2,-1,8,14,4
12.686858,-3,90,35,10,3,3,4,-4,4
12.686863,-10,-95,-77,-14,-7,-5,-9,20,4
12.698987,58,-36,34,-7,-3,-2,-1,-14,4
12.699015,-6,-27,-18,-7,-3,-1,1,5,4
12.700597,8,35,81,18,3,5,3,39,4
12.700603,-45,-96,-30,-6,2,0,1,-2,4
12.722178,-17,37,-29,-4,-4,-1,-1,-21,4
12.722183,61,60,-8,-3,-1,-3,-4,-2,4
12.722456,2,-4,33,12,4,-3,-4,-32,4
12.722462,37,58,-3,-12,-4,2,5,57,4
12.743758,-4,56,21,12,1,-1,-2,-5,4
12.743785,-29,-51,-38,-14,-4,-9,-9,11,4
12.746211,-6,103,11,-4,-3,-6,-5,14,4
12.746216,-4,-26,52,6,1,3,10,19,4
12.757720,27,78,-7,2,-3,0,-12,-1,4
12.757735,15,-25,3,14,5,3,15,10,4
12.764986,-9,-30,-34,-15,-3,-4,-3,5,4
12.765015,-65,-21,-7,4,3,3,-1,-3,4
12.780967,45,44,29,9,2,1,2,19,4
12.782956,-49,117,36,8,-1,0,-12,-41,4
12.782962,-52,-2,-29,-12,-4,-2,-1,4,4
12.782964,0,127,38,16,7,3,6,-19,4
12.803653,-56,-46,-51,-35,-11,-6,1,13,4
12.803676,-36,124,7,6,0,-1,-8,-12,4
12.805003,27,-99,10,3,-1,-2,-1,3,4
12.805022,-54,33,-21,-23,-13,-9,-7,8,4
12.817740,33,40,-55,0,1,0,-3,-12,4
12.817779,-6,-60,12,12,2,-1,5,-13,4
12.832013,-95,-73,-94,-26,-7,-2,-16,-57,4
12.832023,33,85,8,5,6,0,-18,0,4
12.841103,-36,-56,4,-27,-15,-14,-13,-80,4
12.841124,22,59,-6,-4,3,4,9,29,4
12.843917,53,70,-8,0,8,5,17,62,4
12.843923,-65,24,66,7,0,-4,-14,-94,4
12.863411,-3,9,14,10,2,1,0,10,4
12.863450,126,-16,-7,-3,-4,1,-3,-6,4
12.865088,-70,-16,7,-9,-5,-3,4,29,4
12.865161,-28,-38,-33,-2,-2,-1,-5,-59,4
12.877700,-31,-73,-28,-7,-3,-2,2,48,4
12.877714,33,20,34,23,7,2,-5,-43,4
12.884848,-63,-37,-25,-18,-4,-1,-2,-1,4
12.884870,73,-58,50,7,-4,0,4,24,4
12.901093,8,68,36,4,1,1,2,-12,4
12.901108,21,127,44,37,17,8,3,36,4
12.903287,19,9,-47,-21,-11,-6,-6,-35,4
12.903293,101,119,-67,-4,-6,-5,2,20,4
12.924323,-34,-14,-12,-5,4,1,1,6,4
12.924331,17,-32,-14,1,0,-3,8,0,4
12.924945,77,-10,-27,5,-6,2,-9,13,4
12.924954,-26,58,1,-5,6,-1,5,11,4
12.939510,24,-34,-25,-10,-4,-1,-3,13,4
12.939517,-49,32,-22,3,3,1,-5,-17,4
12.944942,35,118,35,7,2,0,7,4,4
12.944969,52,7,-21,-7,-3,1,-3,4,4
12.961287,-11,-59,2,6,0,0,0,-19,4
12.962117,-32,-104,-42,-26,-8,-2,4,-16,4
12.962532,26,99,22,2,2,-3,-3,10,4
12.962540,-24,-88,14,-4,-2,-3,-3,15,4
12.983501,0,65,-8,6,6,0,2,9,4
12.983517,-19,-65,-14,-12,-10,-3,-6,-6,4
12.985109,-25,-57,8,1,-3,-4,-6,-22,4
12.985119,65,38,-36,5,5,4,10,16,4
12.998139,-39,-96,-31,-15,-9,-3,5,3,4
12.998167,-85,-105,-5,-13,-6,-7,-22,-33,4
13.004758,1,25,-10,0,1,1,9,22,4
13.004785,21,41,-5,-1,1,1,5,8,4
13.021104,-92,-103,-49,-10,-10,-9,-17,-21,4
13.021204,105,97,0,-1,4,6,7,5,4
13.024310,-43,-68,20,0,0,-1,0,1,4
13.024322,-18,-88,1,-2,-5,0,7,16,4
13.043541,29,79,-6,-5,-1,-5,-11,-9,4
13.045119,-4,127,45,15,6,-1,4,14,4
13.045129,27,-104,-30,-2,-1,0,-7,-5,4
13.045131,-25,58,26,4,-3,-1,-1,2,4
13.057963,17,61,21,12,5,2,3,-9,4
13.057984,-80,-86,-22,-6,-4,-7,-14,-14,4
13.064951,41,127,81,13,4,1,5,3,4
13.064979,9,-122,-23,-10,-4,-3,-7,-4,4
13.080842,-6,77,16,-7,-4,-1,-2,-9,4
13.080885,92,99,27,-3,-4,2,11,57,4
13.082479,4,44,1,23,13,6,2,-32,4
13.083910,-117,-77,-4,-9,-3,-5,-7,35,4
13.103489,67,-63,23,1,-1,2,-3,6,4
13.105547,24,56,-7,1,-3,-1,2,18,4
13.105558,68,45,14,1,5,1,3,-4,4
13.105560,49,42,22,13,6,7,11,17,4
13.117242,-20,50,-26,-2,-2,-2,-1,-1,4
13.117259,-42,1,-16,3,2,1,8,-21,4
13.126540,-114,-25,-38,-15,-7,-5,-8,33,4
13.126545,2,29,2,-2,-4,-2,-5,-3,4
13.140984,36,-80,17,4,4,2,6,37,4
13.141016,-60,69,-36,-3,-5,-4,-6,-6,4
13.142399,37,-26,-41,-1,1,-2,2,1,4
13.142413,-62,-124,-15,-6,-6,-5,-9,-54,4
13.164039,77,104,39,9,-2,1,1,10,4
13.164066,17,-87,40,5,3,-3,-8,3,4
13.166402,13,57,7,12,4,4,9,16,4
13.166407,-45,-39,-28,-10,0,-2,1,0,4
13.177378,-26,127,25,12,8,7,10,34,4
13.177407,-45,2,6,-10,-6,-2,-7,-56,4
13.188659,-50,-7,-34,-2,-7,-5,-4,0,4
13.188667,21,23,-4,-1,2,3,-2,-2,4
13.201086,13,-101,22,1,-1,-3,-6,-23,4
13.201108,-63,50,10,-2,1,-1,-12,-9,4
13.203191,16,-51,-5,-6,-3,-5,1,-5,4
13.203198,70,77,6,6,4,-1,-10,-17,4
13.223543,-90,-128,-33,-3,-3,-4,-1,1,4
13.223566,59,75,5,1,0,2,4,27,4
13.224950,9,13,7,-7,-6,-2,-4,-22,4
13.224962,42,122,-11,14,3,0,4,18,4
13.237159,38,-64,55,6,4,-1,-4,-15,4
13.237173,-45,-120,-84,-16,-8,-6,-9,-8,4
13.247551,43,-43,70,11,6,2,4,51,4
13.247556,-55,-110,0,-16,-10,-5,0,9,4
13.261642,-85,120,-49,-13,-4,-1,-4,-3,4
13.261671,34,-87,25,-6,-2,-3,4,23,4
13.263252,-55,97,7,-2,-1,4,7,-17,4
13.263256,50,74,12,3,-2,0,0,-15,4
13.283416,-48,-49,-71,-17,-10,-7,-10,-32,4
13.283425,-20,44,-10,-9,1,-1,10,39,4
13.284843,71,78,-29,4,-1,-1,-10,-43,4
13.284855,83,56,13,17,9,1,7,5,4
13.299988,-110,-60,-33,-10,-6,-4,-12,-9,4
13.299994,80,37,33,10,2,4,3,-18,4
13.306468,53,-6,0,2,-1,-1,7,2,4
13.306485,-78,12,-21,1,-2,0,-9,5,4
13.321312,102,-75,-48,-17,-4,-1,-2,-20,4
13.323490,14,-75,24,12,5,0,-6,-25,4
13.323498,-64,36,-2,-17,-5,-3,-10,27,4
13.323500,71,50,43,4,1,1,3,4,4
13.344577,-44,15,-34,-17,-4,-4,1,2,4
13.344584,-48,-80,-34,-10,-5,-2,2,-2,4
13.344924,52,9,22,6,1,-2,3,-7,4
13.344933,63,86,54,-3,-3,-4,-5,3,4
13.358689,107,48,67,16,6,5,8,33,4
13.358694,115,72,60,32,7,-4,-4,-14,4
13.367556,-108,-2,-11,-27,-11,-1,-5,7,4
13.367561,-20,95,-26,10,8,2,6,-12,4
13.381307,34,-82,8,-1,1,1,4,5,4
13.381334,-15,-1,17,14,6,7,11,18,4
13.383440,-45,-49,-20,-8,-1,-5,-7,13,4
13.383445,11,-86,15,-16,-8,-3,-4,-9,4
13.403556,48,62,22,9,4,6,10,7,4
13.403586,-83,-17,-55,-18,-12,-10,-13,-62,4
13.405861,77,-89,-43,-12,-6,-4,-6,14,4
13.405870,16,13,47,13,5,3,4,-7,4
13.417630,-40,-33,-14,-11,-7,-5,-16,-7,4
13.419476,20,127,-11,-5,1,2,6,21,4
13.428936,47,19,-26,0,-2,-2,1,-18,4
13.428946,-51,-128,1,-7,-6,-2,3,-17,4
13.440872,71,71,-34,-7,-4,-3,4,24,4
13.440888,-75,-88,12,15,-2,-4,-10,-23,4
13.442476,40,-2,-27,-2,12,3,3,-12,4
13.442498,-18,95,-68,-19,-9,-10,-15,-4,4
13.463368,-53,-100,16,12,2,3,3,-14,4
13.463383,6,64,-34,-21,-1,-2,3,33,4
13.464843,-9,-90,11,5,-2,-1,-7,-58,4
13.464853,-63,104,35,9,1,3,9,15,4
13.477452,48,127,-7,-15,-7,-5,-13,-54,4
13.480350,-20,-1,-30,-8,-3,-2,1,15,4
13.487452,-7,41,48,10,3,3,0,10,4
13.487460,55,-98,-20,5,7,5,9,3,4
13.501306,-46,-35,40,-5,-6,-6,-5,2,4
13.501311,53,24,-2,-9,-5,0,-2,-8,4
13.502481,0,20,-4,-1,-5,-5,-8,-1,4
13.502500,-61,-120,-14,-8,-2,2,11,1,4
13.523658,42,61,-9,7,1,0,-6,-11,4
13.525868,21,-41,11,0,2,0,5,26,4
13.525875,-49,-22,42,5,-1,0,-6,15,4
13.525877,51,44,-39,-14,-2,-7,-8,-23,4
13.537275,13,127,47,16,5,1,6,14,4
13.537296,21,83,44,0,2,0,-1,14,4
13.547622,47,16,-1,10,-1,1,5,-6,4
13.547631,-34,-87,-42,-2,-2,0,-1,12,4
13.561993,-3,-92,-19,-1,1,-4,-6,-9,4
13.562005,-9,-84,-16,0,-2,-2,-6,-14,4
13.562469,65,127,32,8,3,3,9,0,4
13.562499,-92,-29,-30,-14,-6,-6,-15,-13,4
13.583755,-25,-23,-17,-10,-5,-2,-1,15,4
13.583780,-51,-72,-32,-8,-4,-1,0,4,4
13.586887,-65,-7,-33,-7,-5,-8,-9,-22,4
13.586894,-9,112,46,21,5,0,-2,7,4
13.606104,-48,-53,-2,1,-1,2,4,-12,4
13.607438,11,14,-38,-8,-2,-1,-13,-11,4
13.607535,53,9,7,-2,-1,-2,-2,5,4
13.607627,47,12,25,9,-3,1,-3,10,4
13.621028,-1,127,-19,-1,-1,-4,3,-11,4
13.621049,30,61,32,14,4,4,-1,0,4
13.622471,-17,7,-11,-8,-2,0,0,4,4
13.622481,63,114,6,10,3,3,1,12,4
13.643869,-53,-107,6,-2,0,-2,-7,-10,4
13.643895,1,-69,-25,-11,-4,-3,6,21,4
13.645246,-22,66,-27,8,-2,0,7,25,4
13.646550,45,-55,-30,-21,0,-3,-10,29,4
13.666533,20,48,-29,1,1,1,-8,-56,4
13.666560,76,127,32,17,6,5,11,-8,4
13.668916,-83,-128,-48,-32,-18,-10,-10,10,4
13.668922,3,-113,10,0,2,2,8,-8,4
13.681055,4,-51,38,8,5,2,8,19,4
13.681083,68,83,9,4,1,0,2,14,4
13.682859,-45,-89,-10,-5,1,3,4,10,4
13.682864,19,6,4,-7,-7,-5,0,-12,4
13.703582,-108,-21,-5,-8,1,0,-2,12,4
13.703603,-22,43,48,12,0,-3,1,5,4
13.705127,-8,74,33,2,2,0,1,16,4
13.705156,-53,10,23,-18,-14,-7,-13,-47,4
13.726182,119,108,-41,-2,4,2,10,9,4
13.726197,-82,-27,-17,-13,-1,-1,-6,17,4
13.727475,39,77,26,12,7,2,1,-4,4
13.727482,26,-55,-10,3,0,0,-3,1,4
13.740374,49,-14,-57,-14,-8,-4,1,7,4
13.742743,-71,-22,13,-3,-4,0,0,-13,4
13.746989,67,-59,12,12,8,5,1,2,4
13.747007,34,102,-17,-13,-2,-4,0,12,4
13.764222,-65,-128,14,8,0,0,10,42,4
13.764230,-79,87,-36,-7,-4,-5,-13,-12,4
13.765044,-27,-85,29,-2,-1,1,13,22,4
13.765052,89,-25,20,16,8,5,-15,-4,4
13.786140,63,-10,20,-4,-13,-12,-19,-43,4
13.786165,102,-38,-24,-7,-1,1,9,3,4
13.788451,-36,80,-13,-7,-6,-5,-15,-33,4
13.788461,1,57,-6,1,1,-1,11,39,4
13.800557,3,-11,-20,12,7,4,0,-45,4
13.800578,71,3,52,0,0,0,-3,-14,4
13.807025,64,-128,16,-3,0,-2,5,33,4
13.807041,-119,41,-41,-16,-11,-10,-22,-43,4
13.823614,0,-1,25,-3,-2,2,2,-5,4
13.823635,32,-74,-23,-4,-7,-2,-5,-7,4
13.826148,66,95,11,6,7,7,13,13,4
13.826154,-87,-89,-24,4,5,3,0,-26,4
13.845978,-21,127,37,25,9,6,8,25,4
13.846017,-95,-59,-33,-30,-16,-12,-15,-10,4
13.847807,105,8,-16,8,2,1,1,-12,4
13.848817,-44,31,11,0,-3,3,3,-11,4
13.860344,-102,-59,6,-16,-6,-8,-12,-2,4
13.860363,42,-14,-8,0,-1,0,0,0,4
13.867329,-13,107,-9,-4,-2,-3,-6,-2,4
13.867345,65,36,19,9,4,3,14,49,4
13.883557,-35,-78,-3,2,-4,0,0,15,4
13.883573,-45,48,60,0,-6,0,2,-6,4
13.885162,-55,52,41,15,11,-1,2,14,4
13.885170,13,-101,2,-1,5,-1,-4,-23,4
13.905981,84,94,-15,-2,-2,-1,5,-3,4
13.906005,-30,-116,13,4,2,0,-6,8,4
13.907452,62,-13,-9,3,-4,-1,-3,-54,4
13.907534,-13,-24,22,7,0,4,12,37,4
13.921649,-39,57,5,-3,-1,0,-3,-23,4
13.921654,126,-20,-56,-3,-2,-1,6,-6,4
13.927590,-40,-53,-20,3,1,2,-12,10,4
13.927619,-36,-94,-46,-30,-7,-8,0,-3,4
13.943613,83,-1,-38,-11,-3,-1,-9,9,4
13.943632,-7,-33,-6,0,1,-1,4,19,4
13.945068,-55,-28,-4,-6,-5,-3,-5,-36,4
13.945076,17,35,13,5,-2,-3,-1,-4,4
13.965869,-5,-3,7,-3,-1,1,4,22,4
13.965910,-8,4,1,9,5,3,4,-4,4
13.967311,-38,68,18,7,1,2,4,12,4
13.967320,-13,-26,-6,-26,-19,-11,-17,-53,4
13.983139,-42,18,64,6,14,0,-8,-4,4
13.983145,-97,-84,-16,-2,2,3,-2,23,4
13.987212,45,3,-15,-3,-1,0,-1,7,4
13.987239,110,127,78,31,9,7,12,22,4
14.003541,5,-91,-24,-7,-5,-1,4,17,4
14.003561,31,42,6,-4,0,-1,0,-10,4
14.005165,-28,-6,3,-2,-6,-1,0,4,4
14.005205,-27,-20,-19,0,6,1,1,19,4
14.028384,24,14,19,5,-3,-1,3,4,4
14.028389,-8,29,7,3,3,-1,-2,-2,4
14.028391,49,-128,-40,-9,-6,1,13,8,4
14.028393,-72,91,-15,-11,-4,-13,-26,-60,4
14.041015,81,21,15,17,4,5,4,36,4
14.043661,74,12,-31,-14,2,-3,-17,-38,4
14.047576,-76,-79,-33,-8,-7,-6,-8,10,4
14.047665,46,-43,-1,7,4,5,18,33,4
14.063823,-77,127,2,-14,-7,-4,5,9,4
14.063850,0,8,12,5,-2,1,-6,-7,4
14.065829,6,-14,36,-5,1,-4,-2,-15,4
14.065833,39,-99,-13,9,3,1,-15,37,4
14.086227,-30,-16,5,13,0,2,10,33,4
14.086250,-2,-4,11,3,0,2,9,-5,4
14.088819,-28,-31,23,-9,-2,-6,-10,-23,4
14.088828,18,41,35,-3,-1,-2,3,10,4
14.100196,-82,-37,-60,-25,-7,-10,-8,-23,4
14.100224,-42,-1,-19,6,0,-2,1,-12,4
14.108776,55,36,27,0,0,3,5,3,4
14.108875,-56,127,81,24,5,4,15,-2,4
14.123442,13,-116,5,-18,-9,-7,-16,-12,4
14.123458,-98,82,-4,-8,-2,-1,1,-12,4
14.125004,12,50,7,7,-1,1,0,6,4
14.125021,58,-103,-40,-1,-2,-2,1,-8,4
14.146064,-56,6,13,3,0,0,-8,-31,4
14.146085,18,18,47,8,2,1,3,30,4
14.147467,-63,-5,1,6,0,-1,-3,2,4
14.147482,66,56,3,7,2,-1,-1,8,4
14.159700,39,-80,-34,-8,-8,-2,3,5,4
14.160912,14,24,2,-6,1,-6,-8,-10,4
14.170212,42,-1,-37,-1,2,-3,-10,-4,4
14.170222,-8,12,-19,-9,-5,0,-3,-21,4
14.183349,33,89,39,11,4,2,2,3,4
14.183375,113,-18,-30,-2,-2,2,8,-1,4
14.185257,32,29,-6,-6,-8,-4,-3,-13,4
14.185268,-55,-103,-11,-12,0,-3,-4,14,4
14.206178,61,92,-3,5,5,2,9,20,4
14.206195,63,88,51,15,5,2,8,6,4
14.208299,-46,-53,1,-1,1,-3,-11,-28,4
14.208304,-76,-121,-20,-12,-10,-3,2,-14,4
14.219661,26,85,18,-2,5,0,-4,25,4
14.219688,13,68,19,5,2,3,9,22,4
14.228498,4,-40,-51,-12,-8,-8,-11,-1,4
14.228504,33,-34,-24,-8,-3,0,-2,7,4
14.244243,17,-24,-6,7,-1,1,-2,-16,4
14.244248,-78,14,-22,-10,-1,-3,-2,-4,4
14.244888,36,-21,-5,8,6,-1,-7,8,4
14.244895,6,127,-8,7,1,1,6,11,4
14.266383,59,-106,8,9,6,4,5,-10,4
14.266406,-46,49,33,-2,-10,-5,-10,-28,4
14.268601,-84,-17,-4,-21,-3,0,2,31,4
14.268606,14,-64,-14,1,-1,0,-2,-15,4
14.279652,53,42,-21,7,-1,1,6,-2,4
14.279691,50,51,0,14,3,2,-2,11,4
14.297459,-52,-3,2,-8,-1,-1,-4,-31,4
14.297465,59,44,8,8,4,0,8,26,4
14.303617,-93,50,-18,-15,-7,-6,-19,-4,4
14.303644,18,29,-17,-20,-7,-4,-1,2,4
14.306104,-15,127,-4,2,0,-3,4,-10,4
14.306109,8,96,-6,-2,-1,2,6,37,4
14.326513,17,-21,36,17,3,2,-8,15,4
14.326538,-42,-128,-27,-3,0,-2,4,-29,4
14.327443,11,32,-13,-6,-5,-5,-8,5,4
14.327479,41,120,24,2,3,1,6,-27,4
14.339816,13,87,11,-5,-2,-4,-5,-23,4
14.339840,-119,-128,-6,-17,-7,-2,-2,76,4
14.348700,13,94,39,24,8,8,15,10,4
14.348705,-23,-118,-7,-1,-1,-2,-15,-18,4
14.363356,-2,-62,-12,-17,-3,-4,7,19,4
14.364091,100,80,-16,11,2,3,-5,-9,4
14.364967,30,40,9,-14,-9,-8,-8,-12,4
14.365057,-116,7,-17,-9,-4,0,-3,19,4
14.387108,42,68,31,10,8,5,9,-23,4
14.387120,0,-58,-9,-4,-4,-3,-1,4,4
14.387517,23,-15,12,7,2,2,7,31,4
14.387529,-27,-64,-27,-16,-11,-6,-22,-55,4
14.400915,-11,15,-1,-11,-4,-4,0,11,4
14.400921,-24,-29,-9,9,3,-1,-2,-46,4
14.409501,66,85,9,9,4,6,12,14,4
14.409507,-78,-48,-18,-18,-11,-8,-18,-29,4
14.423473,-37,-15,-41,2,9,4,7,10,4
14.423491,71,-37,41,0,-1,-2,2,-45,4
14.424949,23,-59,0,-3,-4,0,-8,-30,4
14.424964,70,91,18,10,1,0,11,-16,4
14.446863,25,41,8,9,0,1,-6,-9,4
14.446868,7,-40,1,1,0,-3,0,2,4
14.447472,-41,-90,33,-4,-3,-2,0,26,4
14.447507,6,-25,22,5,1,0,6,12,4
14.461989,-12,-71,-34,-8,-6,-6,-9,-24,4
14.461996,-27,31,-15,2,3,1,-4,26,4
14.469927,-43,19,17,9,4,2,-4,2,4
14.469940,-8,-9,16,0,3,-2,-1,31,4
14.483713,17,-119,-49,-2,-5,-4,2,26,4
14.483729,-11,6,-24,-5,0,1,2,6,4
14.485576,-61,69,-11,-6,-1,1,1,-5,4
14.485581,57,70,14,5,4,2,3,49,4
14.506099,-23,-7,5,-7,-9,-6,-5,-87,4
14.506127,-65,40,34,-1,9,-2,-12,-10,4
14.507487,92,-99,-49,3,-2,-2,4,-18,4
14.507494,32,83,0,-10,-4,-3,5,17,4
14.528502,-59,55,17,-2,-5,-3,2,24,4
14.528524,41,92,9,10,2,6,4,3,4
14.529974,42,-77,-1,1,-1,-2,3,4,4
14.530020,-128,18,-53,-18,-4,-5,-11,37,4
14.543775,84,1,-16,7,2,0,-2,7,4
14.543805,-3,30,-14,-2,-5,-4,-6,-20,4
14.545617,-22,127,6,-2,1,1,-2,13,4
14.545622,51,-89,19,11,0,-1,2,-23,4
14.566324,-28,-14,20,-6,-1,0,-6,15,4
14.566352,9,77,6,7,-1,-1,3,-17,4
14.568585,51,-72,5,3,0,-2,-3,-29,4
14.568597,40,-87,14,-7,-2,-6,-13,-55,4
14.588665,-72,42,-11,-10,-6,-2,-4,-7,4
14.588683,78,-13,25,4,-6,-2,3,4,4
14.590081,15,3,-12,-19,0,-3,-3,-10,4
14.590099,-11,54,24,4,2,4,15,7,4
14.603465,17,73,-26,4,2,4,-4,46,4
14.603481,-61,-128,-2,6,3,1,8,52,4
14.605146,-128,-31,-14,-3,-1,-2,-25,-20,4
14.606377,17,-20,0,5,1,1,9,15,4
14.626254,-19,42,27,2,-1,-1,3,-15,4
14.626275,-1,-71,-69,-15,-5,-1,4,-2,4
14.627698,-29,108,-38,-13,-8,-3,0,0,4
14.627704,9,78,-7,14,9,4,-2,-5,4
14.648675,-2,93,10,5,1,0,3,6,4
14.648698,-1,-21,-13,-5,-2,-2,-7,10,4
14.650159,-38,-29,3,-11,-4,-2,1,7,4
14.650199,12,-113,-4,0,-4,-2,-7,-19,4
14.662704,14,-2,50,4,5,0,3,-42,4
14.662742,-8,87,-14,3,1,-2,-4,3,4
14.669779,95,77,22,6,-1,1,3,-9,4
14.669809,15,-80,-10,-5,3,0,0,-3,4
14.685923,81,35,8,-1,-4,-2,-2,-1,4
14.685941,-97,32,-1,4,-3,-1,-8,-1,4
14.687768,-65,-88,-24,5,1,-1,2,-14,4
14.687782,-15,-64,-7,-17,-12,-5,-5,-5,4
14.708472,-22,-89,47,-1,0,-1,-6,-8,4
14.708510,65,-43,3,-5,-2,-2,-1,-7,4
14.709884,102,-3,4,6,3,2,10,3,4
14.709929,-102,127,9,-9,-7,-6,-15,-9,4
14.722750,32,-3,-38,-12,-7,-4,-8,4,4
14.724490,63,48,7,-10,-1,1,0,-15,4
14.729580,-5,62,19,11,7,1,4,23,4
14.729601,-62,-47,-26,7,0,-1,5,19,4
14.745952,42,55,17,8,2,2,7,-1,4
14.745973,-19,70,-5,-9,-8,-8,-18,-17,4
14.747901,13,50,9,0,-3,-2,1,18,4
14.747905,19,-69,-48,-8,-3,-1,-7,-47,4
14.768837,29,61,7,9,1,1,0,9,4
14.768872,103,-101,-45,-13,-7,-4,6,49,4
14.770876,-84,-16,23,-2,-2,-3,-6,-31,4
14.770881,65,127,29,19,6,5,5,14,4
14.783157,-24,-126,-61,-11,-4,-6,-9,-15,4
14.783185,-32,-38,-22,-3,3,0,2,-18,4
14.789566,4,-91,-29,-13,-4,-2,-4,-5,4
14.789582,127,110,63,26,10,4,7,1,4
14.805942,-90,-66,-5,-7,-7,-4,-6,-13,4
14.805953,-82,32,4,-9,5,0,-3,-3,4
14.807438,35,-75,-39,-10,-7,-3,-2,-1,4
14.807453,80,102,74,11,7,1,6,26,4
14.828855,-18,55,21,9,3,-1,0,-40,4
14.828884,-66,-65,-11,-12,-6,-6,-11,6,4
14.830674,29,108,39,10,5,3,5,11,4
14.830681,24,-90,-41,-12,-3,1,4,29,4
14.842781,-39,-18,23,6,0,-1,-8,-32,4
14.842797,29,-66,-10,-11,-9,0,3,1,4
14.849752,47,113,69,32,19,12,25,40,4
14.849770,-126,-119,-63,-29,-13,-10,-24,-24,4
14.866052,-90,32,-13,-13,-3,-2,-9,-13,4
14.866086,74,120,-11,13,1,2,1,-6,4
14.867378,45,46,-11,-6,1,-1,-4,32,4
14.867387,-33,-84,3,5,6,0,11,16,4
14.888813,67,-95,28,15,6,6,10,27,4
14.888835,-3,-33,-2,1,-2,-4,-5,-6,4
14.890044,-53,-94,-28,-6,-9,-6,-11,-14,4
14.890100,-30,127,-20,-7,-6,-3,-5,-36,4
14.902921,60,-63,-20,-5,0,-1,3,15,4
14.902949,54,90,38,3,1,4,9,-9,4
14.909937,-118,-86,-44,-4,-6,-5,-4,-5,4
14.909958,37,18,34,13,8,0,5,1,4
14.927658,-8,-18,-41,-13,-6,-3,-6,48,4
14.927664,-17,122,7,11,4,-1,3,2,4
14.927666,-33,-9,-45,-20,-8,-4,-5,-5,4
14.927668,4,107,13,-15,-7,-1,1,17,4
14.948779,4,-51,88,28,10,6,9,-4,4
14.948806,-7,51,-12,9,3,-1,-1,28,4
14.950954,-26,-123,37,-10,-6,-2,-6,-27,4
14.950963,-24,-20,-59,-6,-2,-1,2,0,4
14.964147,22,124,9,14,5,2,8,2,4
14.964172,1,-35,-59,-16,-3,2,0,-11,4
14.969698,36,-31,57,25,4,0,-3,3,4
14.969722,3,2,47,3,-5,0,-2,5,4
14.985990,-17,-28,-60,-19,-5,-5,-5,-15,4
14.986014,-99,-59,12,4,-2,-4,-5,-21,4
14.987601,-26,127,-30,-11,-3,-6,-11,-47,4
14.987618,44,65,-5,7,1,3,6,9,4
15.008204,-18,-31,-21,-12,-6,-8,-6,-4,4
15.008223,20,85,28,6,6,3,1,9,4
17.033114,-1,-2,-3,-2,-3,0,-1,-1,0
17.033943,0,1,1,-2,0,-1,-1,0,0
17.036124,1,2,10,2,1,0,-3,-1,0
17.036130,-7,-4,-9,-1,-1,-3,0,1,0
17.047306,3,-3,-6,1,-1,-1,0,-1,0
17.048770,0,-1,-3,-3,-2,-1,-2,2,0
17.055533,0,-3,-1,-2,-2,-1,-2,-1,0
17.055550,-1,1,3,-3,-2,-2,-1,0,0
17.070257,-3,-1,0,0,-2,-2,-1,0,0
17.070275,0,0,-2,1,-3,0,-3,-1,0
17.071232,0,-2,-4,-8,0,-1,0,0,0
17.071245,0,0,3,7,0,0,-1,-2,0
17.100935,-1,-1,0,-3,-3,-2,-1,-3,0
17.100971,1,-1,-1,-1,-2,0,-2,0,0
17.101946,-1,1,-2,-5,-5,-2,-1,-1,0
17.102029,0,-1,3,-5,1,-2,-2,0,0
17.107109,-5,-3,-9,4,-1,0,1,-3,0
17.108298,-3,-2,-2,3,-2,-1,-1,0,0
17.115239,-4,-2,0,1,0,1,1,-1,0
17.117481,-3,-3,-1,-4,-4,-1,-2,-1,0
17.130152,0,3,4,-1,-1,-1,-3,0,0
17.130191,-2,-2,0,-4,1,-1,0,-3,0
17.130797,0,-6,-5,-1,1,-2,-1,0,0
17.130831,0,1,-1,-1,-1,0,0,-3,0
17.152980,0,-1,1,-1,-1,-1,0,0,0
17.153015,-2,2,-2,-8,-1,0,1,-2,0
17.155568,-3,2,1,6,1,-1,1,1,0
17.155573,-1,-1,0,0,-2,-1,0,-1,0
17.167552,-1,-2,0,0,-2,0,0,-3,0
17.167582,2,0,1,-1,1,-1,0,1,0
17.175389,-1,0,-1,0,-3,-1,-3,-1,0
17.175404,-2,-2,-6,-3,3,1,2,-1,0
17.190526,1,0,1,-1,-1,-1,-2,2,0
17.190538,2,0,2,0,0,-2,-2,-1,0
17.190871,-6,-2,-2,-3,1,0,-2,-4,0
17.190880,-2,2,3,4,-1,-4,-2,-1,0
17.212757,0,-5,-7,-5,0,0,0,-1,0
17.212780,-2,-1,1,5,-4,-1,0,-2,0
17.214785,1,2,-1,-3,2,1,0,-1,0
17.214791,-1,0,1,-5,-2,0,-1,0,0
17.227319,-1,2,5,-4,0,-2,-1,-1,0
17.228329,-1,-2,-9,-2,-1,-2,-2,-3,0
17.237961,0,0,-1,-3,-1,-1,1,-3,0
17.237967,0,0,-3,-3,0,0,-1,-1,0
17.250188,-1,-1,0,-1,-2,-1,-3,0,0
17.250203,-1,1,4,0,0,0,-1,0,0
17.250920,-3,-1,-1,1,-2,-1,-3,-1,0
17.250924,-1,0,-5,1,-1,0,0,-2,0
17.272752,0,-1,-6,-1,-1,-1,-1,0,0
17.272773,-2,0,-2,-1,1,0,-1,-2,0
17.273692,-1,1,3,-2,-2,-2,-1,-1,0
17.273708,0,-4,-1,-7,-2,-2,-2,-1,0
17.287114,-4,-3,1,7,-3,-3,-1,-1,0
17.287141,-3,-2,-1,-4,1,-1,-1,-3,0
17.295599,1,0,2,-1,0,0,-1,0,0
17.297508,-1,-1,-2,0,-2,0,-1,-2,0
17.310717,1,-1,-6,-3,0,-1,1,0,0
17.310745,-1,-2,-4,-3,-2,0,1,-1,0
17.312129,0,0,0,1,0,-2,0,0,0
17.312132,0,1,5,3,0,0,0,1,0
17.332683,-1,2,-2,-2,-1,-1,-3,0,0
17.332750,0,-2,-1,0,-1,-1,-4,-1,0
17.333483,0,-3,-5,-5,-1,-1,0,-3,0
17.333564,-2,0,0,1,-1,-2,-2,-2,0
17.356499,5,-3,2,0,1,0,-1,0,0
17.358545,-3,-2,-2,0,-3,-1,-4,1,0
17.358549,1,-1,0,-2,1,-1,-1,-1,0
17.358551,-2,-5,1,-2,-2,-3,-1,-2,0
17.370294,-2,2,1,-3,-1,1,-1,-3,0
17.370310,0,-1,-1,-1,1,-2,1,-1,0
17.372255,-1,-1,-1,-2,-2,-1,-2,-4,0
17.372262,0,2,-4,-2,-2,-1,-1,-3,0
17.393917,-5,-2,0,2,0,0,-2,0,0
17.393922,0,-1,0,0,-1,-1,-2,-4,0
17.393924,-2,-2,-2,0,-1,-2,0,-1,0
17.393925,-3,-1,-1,-4,0,-1,0,-3,0
17.415905,-2,-4,-4,-2,-1,-3,0,-3,0
17.415950,0,1,3,0,-1,-2,1,-1,0
17.417139,-3,-2,-3,0,-2,-1,-2,-1,0
17.417150,1,-2,-5,-2,-4,1,-1,0,0
17.430795,1,1,6,-5,2,-1,2,0,0
17.430817,-2,-1,-4,0,-1,-1,0,-1,0
17.432489,-2,-2,0,0,1,-1,0,-1,0
17.432493,1,3,3,1,0,0,-3,1,0
17.454171,-1,-1,0,0,-1,-1,-2,-2,0
17.454178,0,-2,-2,0,-1,-2,-2,-1,0
17.454180,-3,-4,-3,-2,0,-2,1,-1,0
17.454182,4,1,-1,-6,-1,0,0,0,0
17.476405,-4,-2,-1,3,-1,-2,-1,-2,0
17.476431,1,-1,0,1,1,0,0,2,0
17.479327,-4,-4,0,1,-3,-2,-2,-4,0
17.479333,-1,-2,0,0,0,-2,-2,-1,0
17.490462,2,0,-2,0,1,-1,-1,1,0
17.490484,-2,-1,-3,-1,-2,-1,0,-1,0
17.492400,-1,0,-4,-1,-1,1,-2,-1,0
17.492406,1,-2,-12,-3,-1,0,-1,-1,0
17.513111,-2,-4,-2,-2,-2,0,0,-2,0
17.513139,-3,-1,2,-1,-2,-1,-1,-1,0
17.516291,1,1,3,0,0,-1,0,2,0
17.516298,-2,-3,-6,-2,-2,-1,-2,-1,0
17.535965,-2,-2,-5,1,-1,-2,-2,1,0
17.535990,0,0,1,-2,-2,0,1,-3,0
17.536905,-3,-1,1,0,0,0,-1,-2,0
17.536994,-1,-5,-1,-1,-1,0,-2,0,0
17.550162,-1,-1,-2,-3,0,1,-1,-2,0
17.550255,-1,-1,-3,-2,-2,0,-2,-1,0
17.551641,0,-2,-1,-7,-1,-3,-3,1,0
17.551656,-5,0,2,7,-1,-3,-1,-1,0
17.572898,-1,2,2,-1,0,0,0,-3,0
17.572920,1,0,-2,2,-2,0,0,0,0
17.575721,4,-1,1,-1,3,0,-1,0,0
17.575727,-2,-6,-8,-1,0,-2,2,0,0
17.596995,-1,-1,0,-6,-1,-1,0,-1,0
17.597001,3,1,-2,2,1,-1,-3,0,0
17.597003,-2,-1,-2,-2,0,0,-2,-3,0
17.597005,-2,1,1,-1,2,-2,-1,-1,0
17.611907,1,-1,-1,1,-1,1,0,2,0
17.611911,-4,-1,0,-3,-2,-3,0,-1,0
17.611913,0,3,-6,2,-1,-1,-1,-1,0
17.611915,0,-1,5,-3,-3,-1,0,-3,0
17.633094,-1,1,-1,2,-1,-1,-1,-1,0
17.633130,1,-7,-8,-4,2,0,-1,0,0
17.634184,0,15,16,3,-2,0,-1,-1,0
17.634192,-1,6,1,-5,1,-1,-1,0,0
17.657870,-3,-2,0,-3,-2,-2,0,-1,0
17.657877,-3,0,1,1,-1,1,0,1,0
17.657878,3,-6,-8,-2,-1,-2,1,-2,0
17.657880,-1,-2,2,3,-1,0,-1,-1,0
17.672708,-1,0,-3,-3,-1,-2,-2,1,0
17.672714,-6,-3,-1,-5,2,-1,-2,-2,0
17.672716,-1,-5,-4,1,-1,0,-1,-2,0
17.672718,1,-3,1,-2,-1,0,-1,-4,0
17.693246,0,-2,-4,-1,-2,-1,-3,0,0
17.693269,1,1,0,-2,-3,0,0,1,0
17.695523,-1,-1,1,-3,-1,-1,2,1,0
17.695527,0,-1,1,3,0,-2,0,0,0
17.716353,-4,1,-2,-2,3,0,-2,-2,0
17.716381,1,-2,-2,3,-3,-3,-1,0,0
17.719354,-1,-1,1,-8,-2,0,-2,-1,0
17.719368,0,-1,-6,6,-3,-3,0,1,0
17.730938,-2,-3,-2,-1,-1,1,0,-1,0
17.730967,-2,-3,-2,-4,-2,-2,-2,-2,0
17.732685,-2,-4,-2,0,-1,-3,0,-1,0
17.732689,0,0,2,-2,-3,0,-2,1,0
17.753352,1,0,-4,-2,-1,-2,-1,-2,0
17.753385,-2,2,-1,-2,0,-1,-1,0,0
17.753704,-5,-4,0,3,-1,-2,-2,0,0
17.753741,2,-2,-2,-3,2,0,-1,-2,0
17.776372,3,-2,0,1,-2,0,0,1,0
17.776391,0,2,3,-1,0,0,-2,-1,0
17.777693,0,-2,-3,-3,-1,-2,-1,-2,0
17.777700,-5,-1,-1,-1,-1,-1,0,-2,0
17.790952,2,0,0,1,1,-4,0,0,0
17.790972,-2,-3,1,-3,-1,-1,-2,-2,0
17.792928,-1,0,-2,2,-2,0,-1,0,0
17.792932,-3,-5,-10,-8,0,-2,1,-1,0
17.814216,-2,0,2,9,-2,-2,0,-3,0
17.814221,1,3,0,0,1,1,0,-1,0
17.814223,-2,-3,-1,-1,0,-1,-4,2,0
17.814225,0,1,2,-3,-3,-2,-1,-3,0
17.836071,-2,-4,-4,-7,-3,-2,-2,-1,0
17.838522,-1,-2,-6,3,1,-1,0,-1,0
17.838533,1,-2,-3,2,-1,2,-1,-3,0
17.838535,-1,-1,-2,-1,0,-1,-2,0,0
17.850393,-3,1,3,-3,-1,-1,-3,-2,0
17.850408,0,-1,3,-1,-2,-1,-1,-4,0
17.852063,0,-4,-6,-4,-1,-1,0,-3,0
17.852068,-1,1,1,1,-2,1,-2,-3,0
17.873200,-3,-2,-3,-3,0,-1,1,-2,0
17.873219,0,1,-1,0,-2,0,-1,-1,0
17.875054,-1,1,4,-1,1,-1,-1,0,0
17.875060,-3,-3,-1,0,1,-1,0,0,0
17.895873,2,0,1,0,-1,-1,-2,-2,0
17.895891,-2,-4,-5,-3,-1,-3,0,-3,0
17.896843,-1,2,1,1,0,0,1,-1,0
17.896849,-2,1,1,0,-1,-1,-2,-3,0
17.910334,2,2,4,-3,-1,-2,-2,0,0
17.910349,-2,-4,-8,-1,0,0,-1,0,0
17.910941,-4,0,-3,-6,0,0,-1,-3,0
17.910957,-1,0,2,2,0,-3,-1,0,0
17.932646,-2,0,0,3,2,2,1,1,0
17.932664,1,2,2,-1,-2,-2,-1,-1,0
17.933580,-3,-11,-1,1,0,-1,0,0,0
17.933586,-2,4,-3,-3,-1,0,-2,-3,0
17.955985,0,-1,1,-7,1,-1,0,-4,0
17.956003,0,5,3,2,0,0,0,1,0
17.956726,0,2,-1,2,-2,-1,-2,-1,0
17.956740,-4,-5,-1,1,-2,-1,1,2,0
17.969637,0,1,-1,0,-2,0,0,-1,0
17.969656,-2,-2,-1,-6,0,-1,-2,-2,0
17.977729,2,0,-3,-2,-4,-2,-1,-1,0
17.977747,1,-3,-3,0,3,-1,-1,1,0
17.992803,0,2,3,0,-2,-2,-2,-2,0
17.992821,-4,-1,-2,-4,-1,-3,-2,0,0
17.993637,-2,-5,-7,4,1,0,0,0,0
17.993641,-1,7,2,0,-1,-1,0,-1,0
18.015995,-1,-13,-5,-1,-1,-1,-1,-1,0
18.016022,1,-3,2,-1,-2,0,-1,-1,0
18.016829,0,2,-1,-1,1,0,1,-1,0
18.016858,0,3,-5,-4,-3,0,0,-2,0
18.029663,-2,4,-1,-3,0,-1,-1,0,0
18.029684,-2,-1,1,3,4,1,-1,-1,0
18.037895,-2,1,-4,-1,1,-3,-1,1,0
18.037919,0,-4,1,0,-1,1,-2,-2,0
18.052831,-2,-8,-5,-1,-2,-2,0,1,0
18.052855,0,-3,-1,-3,-2,-3,0,-2,0
18.054318,0,2,2,-2,-1,-1,-3,-1,0
18.054327,1,-1,0,0,-1,0,-1,1,0
18.075930,-5,-1,-5,-1,-2,-1,-1,-1,0
18.075945,-2,0,0,0,-1,-2,1,1,0
18.076738,0,-6,-6,1,1,0,-1,-2,0
18.076745,-2,-2,3,-4,-3,-1,-2,-1,0
18.089746,-1,-2,-9,3,-2,-1,-3,0,0
18.089778,0,2,4,-3,-1,-2,0,0,0
18.097734,0,-2,-1,5,0,0,1,-1,0
18.097753,1,3,5,-2,1,0,-1,0,0
18.112800,0,2,0,-2,-1,-1,-1,-1,0
18.112822,0,11,-9,-3,-3,-2,1,-1,0
18.113471,0,-26,6,-1,-2,-1,-2,0,0
18.113490,-3,1,-1,1,-3,0,0,-3,0
18.136238,-1,13,1,-3,-2,-1,-1,-1,0
18.136268,-2,-7,2,4,0,1,-2,0,0
18.137655,2,16,14,0,0,-1,0,1,0
18.137659,-2,-10,-11,-1,1,-1,0,1,0
18.158504,-2,-8,-2,-1,1,0,0,0,0
18.158549,1,6,-6,-3,-2,-1,-4,-1,0
18.159041,-3,2,-6,-4,-2,-2,-2,-1,0
18.159076,0,-5,0,0,-1,0,-2,-1,0
18.172781,-4,2,-3,-1,-2,-3,-2,-1,0
18.172805,0,-4,2,-1,1,0,2,-1,0
18.173476,0,6,-5,-1,-3,-2,-1,0,0
18.173492,-2,-7,1,-1,-2,0,-1,-2,0
18.195877,-2,0,3,0,-1,-1,1,-3,0
18.195893,-3,-7,0,1,2,0,-1,2,0
18.196653,-1,0,-1,-4,-1,-1,-1,-2,0
18.196656,-1,7,-2,1,-2,-1,-1,-1,0
18.209632,0,-2,2,-1,0,-1,-3,0,0
18.209652,2,-7,-2,-1,-2,-1,-2,-2,0
18.218311,-1,7,-5,-5,-2,0,0,-4,0
18.218320,-1,-4,2,0,-1,-3,0,-3,0
18.234251,-1,0,1,2,1,-1,0,-1,0
18.234257,-2,-4,-5,-1,-1,0,-1,0,0
18.234259,-1,-1,0,-1,-2,-2,-1,-2,0
18.234261,1,-1,-6,-6,-3,0,-1,0,0
18.271667,-2,-11,-14,2,-2,1,1,-3,0
18.271697,-1,10,15,5,0,-1,-1,-2,0
18.274177,-3,-4,-3,-3,-1,-1,-1,1,0
18.274183,-2,-1,-2,1,-2,0,0,-1,0
18.274186,3,0,2,-2,1,1,-1,-2,0
18.274188,0,-6,-7,0,-4,-1,-2,0,0
18.278131,1,4,3,0,0,1,-2,0,0
18.278155,-4,-6,4,2,-2,-3,-1,-1,0
18.293164,1,0,1,-2,0,-3,-1,-2,0
18.293193,-2,-4,-3,-1,0,0,-2,-3,0
18.295667,-2,3,2,-1,0,-3,-2,-2,0
18.295672,-2,-5,-9,0,0,-2,-1,-1,0
18.323507,-1,13,6,-6,-1,0,0,-1,0
18.323524,-2,-11,7,-2,-4,-1,-1,-2,0
18.324400,-2,-4,-10,1,2,-1,1,-1,0
18.324404,1,0,0,-3,-1,-2,-1,-1,0
18.337733,1,-4,-7,3,-1,0,-1,-1,0
18.337757,-2,1,-2,-1,-1,-1,-2,-3,0
18.345715,0,0,0,-3,-2,0,-2,0,0
18.345742,-1,-3,0,-1,0,-2,-2,0,0
18.352963,-1,-2,1,-1,0,0,-1,1,0
18.352981,-4,2,-2,-5,0,0,-1,0,0
18.354626,-2,-7,-5,3,-1,-2,1,-3,0
18.354633,1,8,-1,-1,1,-1,0,1,0
18.375987,-2,0,1,-3,-2,-1,-1,-1,0
18.376009,-4,8,-1,-2,1,-2,0,-2,0
18.376719,2,-16,5,3,0,0,0,-2,0
18.376734,-2,7,2,-1,0,-1,-1,1,0
18.398725,-2,-3,3,0,-2,-2,-1,-2,0
18.399973,-2,-5,-7,-4,0,-2,-1,3,0
18.399977,-1,8,-5,-10,-1,-1,-1,0,0
18.399979,-1,-17,-6,6,-1,0,-2,-3,0
18.412645,0,7,8,0,-2,1,-3,1,0
18.412660,0,1,4,2,0,1,0,-2,0
18.413472,1,2,-1,-1,0,0,-2,2,0
18.413476,-1,-2,-3,-3,-1,0,0,0,0
18.436103,-1,-3,-5,-3,-2,-3,-1,0,0
18.436121,-3,-2,0,1,-2,-1,-1,0,0
18.436762,-2,3,1,-4,-1,-1,-3,-1,0
18.436780,0,1,1,2,-3,-1,0,-2,0
18.458575,-2,-5,-4,-1,1,-1,-1,-2,0
18.458595,0,0,-6,-1,0,-1,-2,2,0
18.460776,-6,-4,2,3,-1,0,-2,-3,0
18.460787,-3,2,-4,-2,0,0,-3,0,0
18.472789,3,-3,0,-1,1,0,-2,1,0
18.472804,2,-2,-3,-2,-1,-1,0,-2,0
18.473538,0,15,-1,-8,-2,-2,0,-1,0
18.475222,-3,-21,-3,3,1,-1,-1,-3,0
18.497513,0,3,4,0,-1,-1,1,-1,0
18.497522,-1,0,1,-1,-1,-1,-2,-1,0
18.497523,0,-10,-10,-2,-4,-2,-3,1,0
18.497525,0,12,2,-4,-1,-2,0,1,0
18.518904,-2,-8,-6,-1,1,-2,-1,1,0
18.518939,1,5,8,2,0,0,-2,1,0
18.521521,-1,8,7,1,-2,-1,-2,-1,0
18.521528,1,-21,-14,-3,-1,-1,-2,1,0
18.541021,-1,-3,2,-2,-1,1,-1,1,0
18.541039,-1,-3,-7,-4,-1,-2,-2,-1,0
18.543201,-2,-2,-1,-1,-2,0,-1,1,0
18.543207,-6,3,4,1,1,0,-2,-2,0
18.556180,3,4,3,3,-1,-1,-1,-1,0
18.556202,1,-2,-5,-2,0,-2,-1,0,0
18.558739,-2,-5,-3,1,0,-1,0,0,0
18.558745,3,9,4,-3,-2,-2,-2,0,0
18.578472,-1,-1,-1,-1,0,0,-1,-2,0
18.578512,0,0,1,1,-1,0,-1,1,0
18.579072,1,-2,-1,-1,-1,-1,1,0,0
18.579146,1,11,-3,-3,-4,-2,-1,-2,0
18.592730,-2,-13,3,2,1,0,0,0,0
18.592747,0,-3,-2,0,-2,-3,-1,-1,0
18.593654,-1,-2,-3,0,-1,0,0,-4,0
18.593702,-1,5,5,-1,-2,0,-2,-1,0
18.616288,-2,2,-4,-3,-2,-3,0,-2,0
18.616303,-2,-3,-3,-1,-2,0,0,-2,0
18.623132,1,5,3,1,0,-1,-1,1,0
18.624247,-2,-9,-3,1,1,-1,0,-1,0
18.638620,-1,-4,-10,-4,-3,-1,-1,-2,0
18.638635,-6,0,6,-1,1,0,0,-2,0
18.639204,0,1,1,6,-1,-1,-1,0,0
18.639238,-2,3,2,-1,-1,-1,-1,-3,0
18.653258,1,-4,-5,-3,-3,-2,-2,1,0
18.653276,-2,-2,0,0,-2,0,0,-1,0
18.653561,-1,0,1,-3,-1,-1,-2,-2,0
18.653596,-3,-1,-7,0,1,-2,-1,-2,0
18.676062,-1,4,2,-2,-1,-1,0,-2,0
18.676079,-1,-1,-4,-1,-2,-2,-3,-1,0
18.677884,-2,-5,1,0,0,0,-2,-1,0
18.677890,-2,0,2,-2,-1,-1,-1,-1,0
18.700904,0,4,-2,0,1,-2,-1,-3,0
18.700910,-7,-1,5,-1,0,-2,0,0,0
18.700912,0,-9,-11,-2,-1,-1,1,-3,0
18.700914,0,17,4,-3,1,1,-2,-3,0
18.715441,-1,-14,-4,-3,0,0,-2,1,0
18.715446,1,1,-3,-3,0,0,0,-1,0
18.715447,0,-3,0,-1,1,-1,0,0,0
18.715449,-4,4,6,7,-2,0,-2,-1,0
18.736161,-1,6,1,0,-2,-1,-1,-1,0
18.736186,0,-8,-5,1,-3,0,0,-2,0
18.738122,-1,1,-2,-6,2,0,-2,-3,0
18.738128,2,-1,0,-4,-1,0,1,-1,0
18.758860,-5,0,-2,0,0,0,-1,-1,0
18.758910,0,-3,-4,-2,-1,-1,0,1,0
18.761658,-3,3,7,1,0,-3,-1,-2,0
18.761664,-6,-6,-7,-1,0,-2,-1,-2,0
18.772831,3,5,9,3,-1,-1,1,-2,0
18.772901,0,-5,-7,0,3,1,-2,-5,0
18.774840,0,-1,0,-2,-2,-3,0,-1,0
18.774843,1,-8,-10,-3,-2,0,-1,1,0
18.795869,-3,15,3,1,0,0,-2,-1,0
18.795884,-1,-18,6,0,0,-3,-2,-1,0
18.796484,1,0,0,0,0,0,-1,-1,0
18.796511,1,-1,2,-3,-2,-1,-1,0,0
18.818759,-4,-3,-8,-6,-3,-1,-1,-1,0
18.818777,0,9,-7,3,2,-1,-2,-2,0
18.821163,-2,-7,-1,2,0,0,-2,-2,0
18.821170,2,-5,-3,-2,-3,-2,0,1,0
18.833016,-4,0,3,3,0,0,0,-2,0
18.833032,0,5,1,-4,0,-1,-2,0,0
18.834584,-4,-3,-9,-4,-3,-1,0,-1,0
18.834592,1,3,3,0,0,-1,-2,-1,0
18.855950,-3,-4,-2,2,-2,-2,-3,-4,0
18.855964,-5,0,0,0,-3,-1,-2,1,0
18.856513,3,-11,-7,-3,0,0,-1,-2,0
18.856522,-1,10,9,-3,-1,0,1,0,0
18.878399,1,-2,0,6,0,0,0,0,0
18.878414,1,4,2,-1,-2,0,0,-1,0
18.880097,-2,10,0,3,-1,-1,-2,0,0
18.880103,-2,-25,-14,-2,1,-2,-1,-1,0
18.901954,2,-4,-5,-6,-2,-2,-2,-1,0
18.901961,-2,5,2,-2,-2,-2,0,-3,0
18.901963,-1,0,-1,-1,-2,0,-2,-1,0
18.901965,0,4,2,-1,-2,0,-1,-3,0
18.916366,-6,2,3,-4,-1,-3,-1,0,0
18.916399,2,-3,-1,1,-1,-1,0,0,0
18.918316,1,-1,0,-2,-3,0,-1,-1,0
18.918322,-3,3,0,-1,-1,1,1,-2,0
18.938700,1,-6,-5,-2,2,0,1,1,0
18.938767,-2,3,-3,-2,-3,1,-2,1,0
18.939362,-4,0,1,-2,-1,-1,1,-1,0
18.939371,3,2,6,7,1,0,-1,2,0
18.961541,0,0,-5,-4,-1,0,-2,-2,0
18.961570,0,-2,-3,0,0,-2,1,-1,0
18.963072,0,-4,-1,-2,-1,-1,0,0,0
18.963075,0,-5,-3,-3,-2,-1,-3,-2,0
18.976394,0,-1,-4,-3,-3,0,0,-5,0
18.976421,0,5,7,-1,-1,0,0,1,0
18.978776,2,-8,-3,0,0,0,-1,-2,0
18.978781,-3,11,5,-3,-1,-1,0,-1,0
18.998376,-4,-3,0,0,-1,0,0,-1,0
18.998414,2,-4,-4,-3,-3,0,-1,0,0
18.999452,-1,10,5,0,0,-1,-1,-1,0
18.999468,-4,-13,-12,1,-2,-2,1,-2,0
19.012074,-1,-2,-3,-1,1,0,-1,-1,0
19.012089,1,-5,-1,-1,-3,0,0,-3,0
19.020392,0,5,0,-2,0,-3,0,0,0
19.020409,3,4,2,-2,0,-2,-1,1,0
19.043364,0,-1,0,4,-2,0,-1,-2,0
19.043378,-3,-3,-3,-3,1,0,-2,-3,0
19.044061,-1,0,-1,0,0,-1,0,-1,0
19.044098,-2,-2,-4,-2,-2,0,-2,-1,0
19.058422,0,-2,-3,-1,-1,-1,1,-2,0
19.058439,-1,2,1,1,-2,-2,-1,-1,0
19.059124,-1,-3,-2,1,-1,1,0,-1,0
19.059160,-1,-9,-7,-5,-1,0,-2,-3,0
19.073142,1,3,3,-1,1,-3,0,0,0
19.073152,-1,6,-4,1,1,-2,-2,-2,0
19.080189,-3,-3,-1,-6,-1,-3,-1,-2,0
19.081342,-6,2,3,4,-1,-2,-1,-1,0
19.095827,2,-6,-2,-6,-2,1,-1,1,0
19.095842,0,-3,-1,3,2,-2,-2,0,0
19.096630,-4,-3,-4,0,-2,-1,0,-2,0
19.096689,4,10,10,4,1,-2,1,-2,0
19.120067,-4,-12,-5,-1,0,-2,-2,-2,0
19.120081,-1,9,-4,-5,-2,-2,0,0,0
19.120083,-2,-16,0,-2,-3,-1,-1,-1,0
19.120085,0,3,-6,-3,0,0,-1,1,0
19.132004,-2,4,4,1,0,0,0,2,0
19.132019,2,0,1,2,0,-1,-1,-2,0
19.140146,-3,2,-5,0,1,0,-3,-1,0
19.140160,1,-5,-1,-3,-2,-1,-1,-1,0
19.156232,0,-1,-3,-4,-2,-2,-1,0,0
19.156250,-2,6,5,-2,0,-3,0,-1,0
19.156690,1,1,0,-1,1,-1,0,0,0
19.156705,-3,-4,0,0,-1,0,-2,-3,0
19.178862,-2,-4,-5,0,-4,-1,-2,-2,0
19.178890,0,-7,-6,-11,-2,0,-1,1,0
19.180806,-1,3,4,11,-1,-1,-2,1,0
19.180810,1,-4,-3,-4,-2,-1,-1,-4,0
19.192556,1,4,1,0,-1,-2,-1,1,0
19.192584,-1,-8,-4,-1,-2,-1,-1,0,0
19.200787,1,-1,-1,-3,-1,0,-1,-2,0
19.200815,2,-1,-3,2,0,-1,-1,0,0
19.216489,-3,13,4,1,-3,-1,-2,1,0
19.216517,-2,-28,-9,3,-3,-2,-1,-1,0
19.216906,-2,2,0,-6,0,0,1,-3,0
19.216929,-2,-1,1,0,0,0,-2,0,0
19.238469,-1,4,-7,-6,0,0,1,-1,0
19.238484,2,7,7,0,0,0,-1,-2,0
19.240260,-1,-3,-2,3,0,0,0,-2,0
19.240269,-1,-1,-5,-3,0,-2,-1,-2,0
19.260910,-1,-4,-2,0,0,-2,-1,0,0
19.260949,-5,0,0,-3,1,3,0,0,0
19.261647,6,-3,1,-6,-2,-2,-1,3,0
19.261681,-2,3,2,3,0,0,-1,0,0
19.275297,-1,-10,-6,-4,0,1,-1,0,0
19.275307,1,6,7,6,-1,-2,-1,-3,0
19.275941,-1,5,2,-5,-3,-2,-1,-2,0
19.275977,-1,-7,-6,-1,-2,-1,1,1,0
19.298675,-1,-1,5,-1,0,0,-1,-3,0
19.298705,0,2,-6,-4,0,-1,-2,-1,0
19.300640,-1,0,-2,1,0,0,-1,-1,0
19.300645,1,-2,1,-3,-3,-1,-3,0,0
19.321308,-5,-2,0,0,0,0,-2,-1,0
19.321318,2,17,2,-1,-2,-2,0,2,0
19.321789,-5,-30,-9,2,-1,0,-1,-2,0
19.321800,-1,3,-3,-2,1,-1,-1,-3,0
19.336887,6,-3,-3,-1,-1,-2,-1,1,0
19.336894,-3,5,1,1,0,0,-1,-3,0
19.336896,-1,10,1,-3,-1,-2,0,-1,0
19.336898,-1,-4,1,1,-3,-2,-1,-1,0
19.358355,-3,1,1,-2,1,-1,-2,-1,0
19.358373,0,-6,-5,-3,-3,-1,0,0,0
19.359908,-2,4,0,3,1,0,0,-1,0
19.359914,-1,-9,-5,-4,-2,0,2,0,0
19.382803,-1,9,8,4,-3,-1,-2,-2,0
19.382809,-1,-10,-2,2,0,-1,0,-2,0
19.382811,-3,4,3,-7,-1,-1,-2,-2,0
19.382813,2,5,4,1,0,-1,-1,-1,0
19.395622,-1,-13,-10,-1,-2,-2,-1,-3,0
19.395650,-2,7,3,0,-1,1,-1,-1,0
19.398570,-3,2,-11,-1,-1,-2,-1,0,0
19.398576,2,-12,1,-1,-1,-2,0,-3,0
19.418823,0,2,1,0,-2,-2,-1,-2,0
19.418846,-2,-9,-2,-1,-1,0,-1,-1,0
19.419311,1,11,2,-2,0,-1,-1,-1,0
19.419338,-2,6,-2,-2,-1,-1,-3,-2,0
19.440934,0,-6,-3,-3,-2,-2,-2,-3,0
19.440949,0,1,-2,1,-1,-1,0,1,0
19.442532,-3,-1,2,-5,-3,0,-1,-2,0
19.442549,-4,-3,-5,3,1,-3,-2,-2,0
19.455262,-2,-2,-1,0,-2,-1,1,-1,0
19.457484,-2,-1,-3,-5,-2,-1,-1,-1,0
19.464104,1,-5,3,6,3,1,1,-1,0
19.464112,0,-1,-1,-3,1,1,0,1,0
19.478402,-4,2,-1,-2,0,0,-2,1,0
19.478440,1,-9,-6,-3,-3,-2,-3,0,0
19.479938,4,8,6,-3,-1,-2,-2,-1,0
19.479947,-5,2,-2,1,-1,1,-1,0,0
19.500926,-5,-4,1,1,1,0,-1,1,0
19.500940,-2,-5,-3,-2,1,-1,-2,-2,0
19.503686,-3,-5,-7,-1,-2,0,0,0,0
19.503695,0,1,1,-1,-2,-3,0,-2,0
19.514713,1,0,3,-4,0,0,-1,-1,0
19.514730,0,2,1,5,-2,-1,-2,-3,0
19.524301,-2,-9,-6,-1,-1,-1,-2,-1,0
19.524305,-3,5,1,0,1,0,-1,-2,0
19.538545,0,0,1,0,1,0,0,-2,0
19.538563,-1,-2,-2,-5,0,0,1,-1,0
19.539963,3,9,1,0,-1,-2,-2,0,0
19.539976,0,-1,-1,-2,-2,-1,-3,-2,0
19.568707,0,-1,1,2,0,-1,0,0,0
19.568716,-3,3,1,-2,1,0,0,1,0
19.570093,3,-6,-3,-4,1,0,-2,-1,0
19.570114,0,2,4,-6,-2,0,0,-1,0
19.574645,2,0,-8,0,-2,-1,-1,-3,0
19.574661,3,2,17,7,1,-2,-1,-2,0
19.585586,-2,-5,-1,0,-3,-2,-1,0,0
19.585591,2,-4,-5,-7,-3,-1,-1,-2,0
19.601091,-1,14,2,5,-2,-1,-2,-2,0
19.601096,-3,-19,-9,-3,0,0,0,0,0
19.601099,-2,-2,2,-1,-3,-1,0,-2,0
19.601100,-1,1,2,-2,0,-2,-2,1,0
19.621216,-3,3,-6,-1,0,0,0,-2,0
19.621238,-2,2,0,-1,-2,0,-1,-1,0
19.623158,-1,-2,-2,0,1,-1,-2,0,0
19.623163,1,1,-3,-1,-1,-1,1,0,0
19.635060,-1,-5,1,1,0,-2,-1,-2,0
19.635085,4,4,0,1,1,-1,-1,-1,0
19.645967,-3,-5,-1,-1,-2,-1,0,-2,0
19.645973,-2,0,-3,0,-2,-1,-3,-2,0
19.658511,-2,-4,-1,-1,-1,0,0,-1,0
19.658534,-3,-9,-2,-6,-3,-2,0,0,0
19.660059,2,4,-3,3,1,0,-2,0,0
19.660089,-1,16,9,2,0,-1,-2,-1,0
19.680994,0,-17,-4,-1,1,-1,1,-1,0
19.681016,-2,0,-5,1,-3,0,-1,1,0
19.682589,-1,-5,-6,-5,-1,0,-1,-2,0
19.682597,-1,-6,1,-1,-1,0,0,-1,0
19.694545,-1,14,1,2,-1,-1,-2,-1,0
19.694561,0,-12,-3,-4,0,-1,-2,0,0
19.704093,-3,-2,-1,1,0,0,0,-1,0
19.704100,-4,-4,0,1,-2,0,1,-1,0
19.718606,-2,2,0,-4,-2,-2,-2,-2,0
19.718634,-2,2,-5,-2,2,-2,-1,-3,0
19.720990,0,2,3,0,-3,-1,1,0,0
19.720996,0,-2,-2,-8,5,-1,0,-2,0
19.740951,-1,-5,-2,5,0,-1,-1,-4,0
19.740969,-2,4,0,0,0,-1,-1,-1,0
19.742376,-1,-3,-1,-1,-1,0,-1,0,0
19.742413,-1,-3,-2,-3,-5,0,-2,0,0
19.763942,-3,-5,-5,-5,-2,0,-1,-1,0
19.763969,0,-2,0,0,-1,-2,0,-2,0
19.765827,1,16,1,-1,-3,-3,-2,-3,0
19.765831,2,-10,0,1,0,-2,-1,0,0
19.778389,-8,-6,-3,-4,-2,-2,-2,-1,0
19.778409,-1,1,1,5,0,-2,0,-2,0
19.779841,-3,-6,-6,-3,0,0,-1,-3,0
19.779849,1,6,-1,1,-1,0,-1,-4,0
19.801747,0,2,1,-1,-2,-1,-1,0,0
19.801754,-6,7,-4,-3,-1,-3,-1,-2,0
19.802550,-1,-20,1,-3,-1,1,0,0,0
19.802567,0,5,1,2,-2,-2,-1,-1,0
19.814711,1,-5,2,-7,-1,-2,-2,1,0
19.814742,-1,5,-1,0,1,-1,-1,-1,0
19.825009,-6,2,2,1,0,-1,-2,-3,0
19.825015,2,-3,-2,2,-2,-1,0,0,0
19.845897,-2,-3,-1,-5,-2,-3,-1,-3,0
19.845912,-2,-2,-5,-5,0,0,1,-1,0
19.847558,2,0,2,-2,2,-1,-1,2,0
19.847657,-7,-8,-9,-1,-1,-1,-1,1,0
19.860967,-1,4,1,0,-1,-1,-1,-3,0
19.862771,2,2,0,3,0,-1,-1,1,0
19.862776,2,8,-1,2,-1,-3,-2,-2,0
19.862778,-2,-19,-5,-3,-1,-1,0,1,0
19.875118,-1,8,3,-1,-1,-2,-2,-1,0
19.875150,0,13,6,-4,-2,-1,-3,-2,0
19.885961,-6,-22,-11,-3,-1,-1,-1,-1,0
19.885977,-1,4,-4,0,-1,-1,0,-1,0
19.898803,0,-5,-2,-1,-2,-2,0,-2,0
19.898829,-1,-4,3,1,-2,1,0,-1,0
19.901032,2,10,4,-4,-1,-1,0,0,0
19.901036,-2,-2,-2,2,2,-2,-1,-2,0
19.921233,0,-7,-1,0,1,1,-3,-2,0
19.923273,0,2,-3,-3,-3,-1,-1,0,0
19.923280,1,0,5,-1,-2,-1,-1,2,0
19.923282,-1,-3,-2,0,0,-2,-1,-1,0
19.934870,0,2,-3,1,-1,0,0,1,0
19.934888,1,-6,0,0,-3,-1,-1,-2,0
19.943581,-3,-4,-1,1,-3,-1,-1,-4,0
19.945282,-1,1,3,-3,0,0,-1,-1,0
19.959213,0,2,1,2,0,0,-2,2,0
19.959222,-1,-7,-6,-5,-2,-2,-1,-2,0
19.960047,1,7,2,1,-1,-1,-1,2,0
19.960061,-1,-12,-5,-3,-1,0,-3,-1,0
19.981517,0,7,4,0,-2,-1,1,0,0
19.981531,-1,-5,-4,-1,-2,0,-1,1,0
19.983325,2,3,-2,-6,0,-1,0,0,0
19.983329,-7,-1,-2,5,-2,-2,-3,-1,0
19.994990,0,-10,-6,-2,2,0,0,-2,0
19.995014,0,4,1,0,0,-3,-1,-1,0
20.004628,0,0,-4,2,-1,-1,-2,-1,0
20.004636,2,14,-1,-3,-2,-1,-1,1,0
22.029329,6,-14,-16,-10,0,1,-1,-2,4
22.029428,68,15,22,0,-1,-4,1,2,4
22.043925,-76,37,-6,6,3,1,-5,-7,4
22.043953,81,-43,11,5,-2,0,-4,-15,4
22.046186,26,25,-3,3,2,0,8,10,4
22.046190,8,113,12,-3,0,-1,0,1,4
22.067834,4,-128,-33,-2,-4,-6,-9,-24,4
22.067839,9,2,7,-14,-10,-7,-7,12,4
22.067842,-19,99,-8,8,3,2,1,6,4
22.067844,29,-49,10,2,2,-2,-1,7,4
22.087967,26,101,50,12,7,4,2,-8,4
22.088000,15,28,-44,-5,-8,-2,2,1,4
22.096007,-61,123,-1,-4,1,4,3,8,4
22.096032,94,106,64,29,9,1,0,-3,4
22.103555,-63,-90,-13,-18,-7,-4,-6,7,4
22.103576,14,91,7,7,1,2,1,-4,4
22.105127,37,47,25,0,-1,-2,0,1,4
22.105186,-27,59,11,-7,-2,-1,-4,-10,4
22.126326,33,63,45,10,0,-3,-1,7,4
22.126342,-4,-100,-44,-17,-8,-8,-6,-4,4
22.128401,-65,114,-16,5,-2,0,1,-10,4
22.128406,-52,-26,-24,-12,-4,-4,-8,4,4
22.148519,5,-18,3,2,6,3,6,1,4
22.148531,-102,-1,-7,2,-2,-3,-7,4,4
22.149920,-39,22,-2,-3,0,0,0,2,4
22.149933,43,-16,-45,-8,-3,-3,-4,-1,4
22.163361,-28,13,-4,-3,-5,-1,-2,-1,4
22.164533,17,127,24,14,7,5,6,-8,4
22.164990,24,-120,-14,-4,-2,-1,2,18,4
22.165064,-52,58,53,27,10,8,10,8,4
22.186104,30,-32,-54,-22,-11,-6,-10,-14,4
22.186146,41,-8,7,-2,1,2,5,9,4
22.187985,-18,54,11,4,-1,0,-3,-12,4
22.187990,-1,-52,-8,-4,1,-1,1,4,4
22.208880,-4,2,-5,7,3,1,3,-3,4
22.208905,-11,-88,-11,-9,1,0,-4,-5,4
22.209997,37,35,9,2,-1,0,5,5,4
22.210032,-33,-84,-37,-10,-5,-4,-13,-16,4
22.223445,-8,54,0,-6,-2,-3,1,20,4
22.223461,33,118,33,12,5,3,3,1,4
22.224937,6,32,10,1,-4,-5,-7,-11,4
22.224954,12,65,-13,-9,-2,-5,-5,-6,4
22.245877,-25,55,-11,-1,-5,0,-1,-5,4
22.245894,18,72,55,10,5,1,1,5,4
22.247337,66,-112,-32,-7,2,-4,0,-8,4
22.247369,32,69,14,6,-1,-2,1,7,4
22.275974,21,80,-2,-12,-8,-9,-13,-5,4
22.275992,-27,118,-4,3,-1,1,2,-13,4
22.277401,29,-55,2,2,-2,0,-4,12,4
22.277413,-45,-31,-21,-11,-2,-2,-3,7,4
22.282801,78,-120,-12,0,2,3,5,8,4
22.282817,-9,-32,-1,1,-7,-5,-8,-10,4
22.289702,-33,-45,-3,-13,-1,-3,-2,-1,4
22.289723,38,-60,-3,1,1,2,8,2,4
22.306033,51,-61,-17,-10,-5,-4,-9,1,4
22.306051,-24,91,6,3,-2,-1,-2,-8,4
22.307389,1,-69,15,-1,-2,0,-3,-2,4
22.307433,-13,-59,-4,-8,0,-1,0,-8,4
22.331426,-65,-19,-14,0,-2,-5,-3,6,4
22.331432,37,-25,-15,-9,-1,2,1,3,4
22.331434,-24,-12,7,6,2,1,2,6,4
22.331436,-47,-47,-38,-14,-5,-1,1,-20,4
22.343231,-7,48,29,3,-2,-2,1,0,4
22.343259,-36,-23,-4,-1,-1,0,-4,5,4
22.349817,2,127,5,3,1,1,-1,2,4
22.349838,92,124,22,10,4,0,3,1,4
22.366315,-99,-26,-39,-10,-1,0,-2,-9,4
22.366339,31,101,1,5,-2,0,2,3,4
22.367578,67,91,-10,-5,-4,-2,2,0,4
22.367591,15,127,21,19,4,3,-4,-1,4
22.388852,-58,-60,-22,-11,2,-3,-7,0,4
22.391127,1,-24,24,0,5,1,1,2,4
22.391148,-54,0,-8,7,0,1,1,-16,4
22.391151,87,88,28,9,0,3,10,8,4
22.402987,40,-23,-1,-14,-7,-4,-3,14,4
22.404449,3,107,-7,1,-1,1,-3,-34,4
22.409565,12,78,2,4,0,-3,-2,6,4
22.409586,-14,82,7,-4,-2,0,-2,-6,4
22.425934,40,-18,2,5,0,0,1,-2,4
22.425953,-11,40,-1,0,2,0,1,5,4
22.427499,22,18,7,-1,-5,-3,-2,-2,4
22.427519,-74,17,-18,-20,0,-3,-6,-10,4
22.448391,-44,107,40,29,6,6,3,1,4
22.448406,4,-128,-39,-24,-7,-7,-4,10,4
22.449903,-58,-24,-6,2,1,0,-2,0,4
22.449907,-10,-31,-3,-7,-7,-6,-5,2,4
22.462663,36,126,16,8,5,3,6,-4,4
22.462679,43,66,14,10,4,2,5,2,4
22.471871,-46,-91,-15,-21,-8,-6,-12,-4,4
22.471879,-28,24,5,6,0,0,2,7,4
22.488025,84,-6,6,-14,1,-2,-1,-2,4
22.488033,34,-53,19,7,-4,-5,-6,-12,4
22.488036,-28,125,-5,0,0,1,0,0,4
22.488038,14,110,9,-1,1,0,1,29,4
22.508841,-3,-74,-25,-3,-3,-1,-4,-24,4
22.508869,6,86,15,6,1,0,1,13,4
22.511299,31,-111,-27,-6,-5,0,1,2,4
22.511305,36,17,-18,-4,-2,-2,-5,-19,4
22.522900,4,127,31,11,3,-1,-1,6,4
22.522923,37,-36,-14,-10,-4,-3,-1,-5,4
22.530206,47,127,44,20,10,3,3,-13,4
22.530235,-29,-97,-39,-16,-9,-2,0,25,4
22.546107,-4,65,3,5,-1,3,2,-4,4
22.546123,15,93,5,7,5,2,6,6,4
22.547345,-13,55,-1,-3,3,2,-6,-1,4
22.547419,31,-43,5,2,-7,-7,-7,-4,4
22.568405,-75,97,-20,-7,-3,-5,-5,-21,4
22.568452,5,116,26,1,-2,-1,-2,-6,4
22.570086,10,67,4,7,5,-1,5,5,4
22.570103,-14,43,8,1,-1,-3,-4,3,4
22.582684,5,-37,-27,-5,-2,0,1,7,4
22.582706,-51,-13,-12,-1,-5,-1,-5,-4,4
22.590998,29,-61,-8,-1,-3,-3,1,14,4
22.591003,26,79,14,-4,3,0,-4,-23,4
22.605940,102,11,4,-2,-4,-1,2,13,4
22.607379,-1,2,7,4,2,1,-1,-8,4
22.607455,9,70,4,-4,-3,-1,-1,9,4
22.607486,-61,-117,-36,-5,-2,-3,-4,-17,4
22.629025,33,46,10,1,0,1,5,9,4
22.629056,-105,14,-9,1,2,0,-3,5,4
22.630225,44,-16,-24,-7,-1,-3,-5,-24,4
22.630237,46,59,19,0,-3,-5,-2,5,4
22.641999,-52,-24,9,0,0,3,0,-4,4
22.642011,-17,15,5,-1,2,0,4,9,4
22.653183,-40,72,5,6,-2,3,2,4,4
22.653195,55,61,1,-5,5,2,4,5,4
22.666294,4,-51,-18,-2,-2,-1,-1,-4,4
22.666322,-14,-57,-8,-8,-5,-1,3,-4,4
22.667929,-30,-84,-11,-9,0,-3,-13,1,4
22.667938,-24,96,-2,0,-5,1,0,9,4
22.688496,-46,-23,0,5,0,-3,-6,-20,4
22.688507,2,-34,-10,-2,0,0,0,1,4
22.690037,10,-29,-8,-5,-3,-3,-1,-4,4
22.690057,37,26,14,13,2,0,0,1,4
22.704349,51,-65,-29,-14,-5,-6,-8,1,4
22.704358,1,118,-7,-3,-1,-1,2,11,4
22.719657,0,88,7,-1,5,-3,-5,-16,4
22.719662,10,-23,0,2,0,3,1,1,4
22.726095,-5,109,23,9,3,4,6,8,4
22.726116,115,9,6,-4,-5,-2,-3,-3,4
22.727993,-30,-102,-9,-5,0,1,2,12,4
22.728001,-34,-34,-6,-10,-1,-1,-3,-19,4
22.750089,37,127,-1,0,3,1,6,18,4
22.750094,-32,-128,-23,-1,-3,-5,-7,-4,4
22.750098,29,91,11,3,-1,0,2,-8,4
22.750171,-22,80,9,2,0,0,0,-6,4
22.761958,-3,-97,-23,-9,-7,-6,-10,-18,4
22.761974,9,86,-1,-1,0,-4,-4,-5,4
22.772048,19,119,23,-1,-3,-2,-2,-8,4
22.772057,-51,48,-13,-6,-4,-2,-3,-11,4
22.786009,-27,10,-9,5,0,1,1,9,4
22.786030,41,83,-1,3,0,-1,3,12,4
22.787496,36,-56,-20,-2,-1,-2,-2,3,4
22.787513,-3,52,17,2,-2,-2,-1,4,4
22.808468,22,73,16,-2,-2,0,0,3,4
22.808491,-83,-110,-18,-4,-7,0,0,10,4
22.810452,-69,-27,-9,-4,5,-2,-3,-3,4
22.810459,-32,46,18,0,0,-1,-2,-7,4
22.822308,35,-41,-24,-4,-1,0,3,5,4
22.824471,8,-94,-8,-4,-3,-3,3,16,4
22.832401,20,86,7,1,-3,-2,-5,-35,4
22.832406,-67,4,-11,-6,-3,-3,1,21,4
22.845784,12,-34,13,1,-3,0,-4,-8,4
22.845799,3,56,16,3,0,-2,-3,-3,4
22.848437,-15,-27,18,5,-1,1,5,11,4
22.848448,94,-70,-4,-2,1,-1,6,19,4
22.868453,12,99,17,3,0,-4,-8,-23,4
22.868483,19,41,-4,-1,4,2,0,-14,4
22.871137,-40,-125,-13,-5,-7,-5,-5,6,4
22.871144,11,67,3,-2,1,0,0,-4,4
22.882413,-37,76,12,6,-1,1,-2,0,4
22.882440,-7,100,-11,-4,1,-2,-6,-5,4
22.892178,8,100,-1,3,3,1,3,1,4
22.892184,45,18,-25,-2,-6,-3,-3,3,4
22.906031,-105,-88,-5,-4,1,-1,-1,-5,4
22.906047,31,90,-21,2,1,1,-4,-12,4
22.907578,8,-15,0,-7,-4,-4,1,11,4
22.907596,-30,-36,-15,-5,-1,2,2,1,4
22.927577,10,50,11,3,1,-1,2,4,4
22.927596,-1,15,4,0,-3,-1,-3,-10,4
22.937925,-22,9,8,3,2,1,2,8,4
22.937933,-1,-109,-9,2,-2,6,5,-12,4
22.942364,63,125,9,1,1,-2,7,3,4
22.942386,-108,-9,11,-3,1,-3,-15,0,4
22.952555,-8,-72,-13,-1,-3,-3,-4,5,4
22.952565,13,-128,-12,-5,-3,-5,-9,-18,4
22.966939,-42,84,8,2,0,1,0,-12,4
22.966951,77,3,19,4,0,4,9,7,4
22.967566,-53,65,-15,-3,-4,-2,-3,5,4
22.967635,-36,52,-1,-2,6,1,-2,-18,4
22.988580,38,-58,-3,-1,-2,0,0,21,4
22.988605,35,90,4,-2,-2,-3,-1,4,4
22.990965,13,-54,-28,-7,-1,-1,1,-2,4
22.990971,-57,4,-8,2,-4,-2,-1,-9,4
23.002084,-14,106,8,0,-2,2,1,15,4
23.002103,-24,-41,9,3,6,-1,3,-11,4
23.013961,50,105,33,7,2,4,7,4,4
23.013968,-47,2,-31,-16,-8,-6,-12,-3,4
23.025212,20,-3,3,4,2,0,0,3,4
23.025227,-70,-40,-7,-1,-4,-1,-1,-6,4
23.032669,62,127,34,7,4,3,2,7,4
23.032695,23,-48,-9,-4,-1,-3,-4,-3,4
23.048827,-9,36,-10,-3,0,-1,-2,-7,4
23.048856,1,-7,-5,-6,0,-1,1,-10,4
23.050942,17,-15,6,9,3,2,2,10,4
23.050947,-39,-39,-2,-11,-10,-3,-6,2,4
23.071109,4,60,9,4,5,-1,-3,5,4
23.071129,-37,-6,-3,-8,-1,-3,-5,-37,4
23.073131,-24,27,1,3,-2,-3,-4,-5,4
23.073142,30,-5,8,6,3,3,5,25,4
23.086150,1,-16,9,-2,-1,1,-1,-7,4
23.086168,1,-24,0,-5,-4,-2,-1,10,4
23.087661,90,77,-4,9,-2,-1,-1,-10,4
23.087674,-54,6,3,-12,6,-2,0,9,4
23.108401,83,40,5,4,-1,-2,-1,-2,4
23.108420,22,46,-3,0,0,-3,-1,4,4
23.110071,5,71,8,0,-6,0,1,-1,4
23.110177,43,10,2,-2,0,-1,2,1,4
23.130832,-25,-126,-9,-1,0,-2,1,0,4
23.130847,10,-73,-18,-8,-5,-5,-8,-13,4
23.132746,-72,-39,4,-1,7,2,-3,-4,4
23.132809,-19,39,5,13,2,1,0,-6,4
23.146297,22,-128,-23,-17,-4,-3,-1,13,4
23.146325,54,102,4,2,-2,2,4,4,4
23.148934,-15,-83,-7,-7,-4,-5,-7,-5,4
23.148941,58,93,15,11,1,-1,0,-15,4
23.168399,39,74,19,10,3,4,6,5,4
23.168435,-39,-87,-40,-26,-10,-11,-11,-17,4
23.170019,35,58,-24,-9,-5,-2,-5,22,4
23.170036,11,117,12,6,3,4,2,-1,4
23.190985,-17,85,15,0,-3,-3,-5,-4,4
23.191001,23,19,15,7,4,2,2,1,4
23.192544,-9,-87,-12,-8,-3,-2,-1,-6,4
23.192570,-15,-52,-13,-7,-4,-3,-3,5,4
23.205363,-24,1,-7,0,-4,-3,-4,-14,4
23.205393,47,98,16,12,7,3,4,15,4
23.212170,-10,10,-3,-5,-1,0,2,-2,4
23.212187,85,89,25,7,-1,0,-2,10,4
23.228436,-29,-6,-18,-5,-2,-5,-7,-42,4
23.228441,86,14,12,6,2,4,6,19,4
23.229834,-31,-106,-34,-8,-1,-1,-2,-23,4
23.229844,-5,21,3,3,-1,0,2,8,4
23.250875,-6,43,15,-1,-3,0,-2,-4,4
23.250891,-58,-86,-16,-1,0,1,-3,-2,4
23.252814,64,-22,-43,-8,-6,-4,-3,-5,4
23.252829,-56,10,22,5,6,0,1,-5,4
23.265826,-2,90,6,2,0,0,2,4,4
23.265849,35,4,10,4,0,1,-2,-2,4
23.272113,3,-2,7,-6,1,-2,-5,5,4
23.272137,-46,-100,-17,-4,-6,-3,-1,-4,4
23.290104,-21,-11,-5,-5,-7,-2,-1,8,4
23.290113,-5,62,2,0,-1,0,3,1,4
23.290117,-6,46,9,2,1,2,2,3,4
23.290119,33,98,-1,-2,2,-2,-2,2,4
23.311244,-35,29,5,10,4,3,-1,-5,4
23.313327,-25,-104,-37,-25,-10,-7,-9,19,4
23.313340,-19,54,9,6,2,0,-1,3,4
23.313344,-49,77,14,-1,2,-2,-1,18,4
23.325412,53,45,-3,-2,-2,-2,-6,-34,4
23.325434,-63,-15,-5,-3,-1,-3,-1,8,4
23.331961,18,41,2,-3,-4,-3,-2,-1,4
23.331976,-25,-35,-14,-2,-3,-1,-3,-10,4
23.348544,1,-1,-2,-2,-1,0,2,22,4
23.348565,-18,34,24,11,4,2,1,-1,4
23.350606,49,85,27,10,0,1,4,0,4
23.350610,127,-85,4,-20,1,-7,-5,-1,4
23.371132,-72,-21,-18,-1,2,2,2,10,4
23.371157,-50,96,5,1,-1,0,-1,-7,4
23.372545,13,99,10,6,0,0,1,3,4
23.372596,0,2,-23,-1,-5,-1,0,-9,4
23.385354,11,-27,-2,-3,-3,-2,-2,16,4
23.385403,6,-67,2,-3,0,-1,-1,-3,4
23.391966,2,23,7,-3,2,0,0,-1,4
23.391983,-23,-12,4,6,-1,1,-2,-8,4
23.408345,-15,-54,-46,-15,-4,-4,-2,-6,4
23.408362,38,26,23,14,2,-1,2,-3,4
23.409963,-64,7,20,-3,-5,-4,-3,1,4
23.410015,-72,-94,-27,-9,-8,-2,-5,-16,4
23.431204,-61,87,18,-7,-1,-3,-4,8,4
23.431209,-62,127,0,6,2,0,-3,-28,4
23.432594,52,-32,-11,-2,1,0,2,9,4
23.432610,15,-31,-5,2,-2,1,-1,-7,4
23.447878,24,6,12,1,-2,0,-2,7,4
23.447885,15,26,1,0,-1,-2,1,-2,4
23.452239,-26,-63,-3,2,0,-1,-1,-6,4
23.452269,14,49,-4,1,-1,-1,2,5,4
23.468534,24,-53,-2,-3,-1,-2,0,-6,4
23.468554,50,72,-14,4,1,3,6,0,4
23.470893,-102,-76,19,0,1,-8,-17,-1,4
23.470900,-49,-53,-32,-6,-3,-3,-3,4,4
23.493155,33,8,6,-2,1,-3,0,-1,4
23.493161,-3,35,-7,-1,-4,0,-1,11,4
23.493164,51,26,-6,-2,1,4,7,-3,4
23.493165,60,-40,4,1,2,0,-1,-3,4
23.505367,-47,-24,-7,-4,-3,-3,-5,-1,4
23.507337,9,-26,8,-1,-1,-1,-1,-4,4
23.512701,8,5,-15,1,-5,0,-4,-13,4
23.512725,80,26,3,-2,3,-1,-2,5,4
23.528592,2,-15,-11,0,-1,1,4,-4,4
23.528607,27,-25,14,4,1,0,-1,2,4
23.529869,51,112,-22,-5,-2,-2,0,-7,4
23.529884,-31,-57,-8,-8,0,-1,-2,5,4
23.551027,33,77,2,7,4,1,5,8,4
23.551050,7,65,5,1,-3,-2,-6,-15,4
23.553514,-19,-18,2,-6,-1,-1,2,7,4
23.553520,100,127,19,13,6,4,7,3,4
23.564597,6,-69,-6,-8,0,-3,-6,-31,4
23.564612,-29,-75,0,-1,-1,0,1,1,4
23.574909,32,78,6,2,-2,-1,1,2,4
23.574913,-13,-80,-12,-6,-4,0,-3,2,4
23.588553,-29,35,7,2,1,-1,-3,-8,4
23.588572,-11,61,-5,-5,-3,-1,0,5,4
23.590026,-30,-128,-12,-1,-2,-3,-5,0,4
23.590046,-46,51,11,4,0,0,5,-2,4
23.611051,56,13,4,0,-2,-1,-6,8,4
23.611072,-51,-15,-5,-4,-5,-2,-3,-2,4
23.612466,-34,55,5,2,8,1,4,1,4
23.612470,-20,127,24,5,-2,-1,-5,-5,4
23.625106,-36,-66,-13,0,-3,0,4,7,4
23.625121,127,-29,3,-2,0,-5,-5,-4,4
23.636387,25,49,6,0,4,1,1,11,4
23.636400,-70,65,0,4,0,-3,-2,2,4
23.656083,-96,15,6,-5,-1,-2,-4,-22,4
23.656107,-21,-119,-38,-11,-6,-1,-4,-18,4
23.657727,17,-21,-6,-2,-4,0,0,-9,4
23.658729,7,32,-1,3,0,-1,0,-2,4
23.671046,28,39,1,-1,1,0,0,10,4
23.671076,-16,85,17,-2,2,-1,1,8,4
23.673377,-43,-125,-29,-4,-3,-2,-1,-4,4
23.673382,19,56,-6,-4,-2,-3,-2,-8,4
23.684612,16,-20,2,-2,-3,-2,-1,12,4
23.684629,-23,11,11,9,2,1,1,6,4
23.693958,44,31,6,-6,0,-2,-1,-9,4
23.693964,-34,0,-14,-3,-5,-2,-6,-22,4
23.708399,-1,43,0,-3,3,2,0,8,4
23.708417,-13,59,1,2,1,-1,1,3,4
23.710295,-11,2,1,-10,-1,1,0,8,4
23.710301,15,-108,-6,3,-2,0,-2,9,4
23.731381,65,6,2,2,-4,-3,-1,-5,4
23.731386,19,79,-5,-3,0,1,0,0,4
23.732335,-29,35,-4,2,-2,-1,-1,1,4
23.732345,91,-70,-23,-14,-4,-5,-6,0,4
23.747091,42,66,11,6,4,4,1,3,4
23.747099,-14,-128,-11,-5,-3,0,0,3,4
23.753591,30,12,-2,5,-1,-3,-3,-3,4
23.753612,12,59,13,-5,0,0,2,9,4
23.768530,-1,59,7,11,1,0,1,1,4
23.768550,-5,-55,18,-8,-3,-4,-3,-2,4
23.770736,-66,-48,-16,2,-4,0,-4,-4,4
23.770741,-68,-110,-11,-5,3,-1,-1,-4,4
23.791059,-9,15,-7,-6,-2,-1,1,-4,4
23.791080,28,74,-4,-7,4,1,4,8,4
23.794341,71,-83,27,11,-3,0,-4,-3,4
23.794347,2,-34,9,0,3,1,5,5,4
23.804835,-3,-44,-18,-10,-8,-5,-4,-6,4
23.804859,25,-118,-12,0,-1,-2,-1,3,4
23.822810,-11,63,-15,-4,0,-1,0,13,4
23.822820,10,127,29,11,2,3,4,8,4
23.828460,-7,-122,-26,-11,-3,-3,-4,-3,4
23.828475,-26,73,11,1,-2,-1,-1,-7,4
23.829828,67,127,1,-3,-1,0,0,-6,4
23.829837,-86,-36,-9,-2,-2,-2,-4,-3,4
23.850886,-9,27,3,1,2,1,-1,-3,4
23.850901,37,19,-1,0,-4,-4,-1,1,4
23.853519,-17,-23,-6,-6,-3,-3,-3,-10,4
23.853526,35,63,2,3,3,0,1,-2,4
23.873439,-8,-90,-4,3,-2,-2,-3,-3,4
23.873595,-39,-23,4,5,0,3,4,8,4
23.874817,-39,-94,-33,-18,-6,-6,-10,-30,4
23.874861,14,110,3,0,-2,0,3,5,4
23.888520,39,111,2,-5,-2,-3,-2,0,4
23.888541,-44,-35,-1,4,2,3,-1,-9,4
23.889956,19,27,11,7,3,1,0,-9,4
23.890037,-54,-128,-25,-7,-6,-4,-6,0,4
23.910853,41,23,-3,-6,2,-2,1,0,4
23.910882,57,125,26,11,5,3,3,2,4
23.913992,-63,-99,-20,-8,-9,-7,-8,-6,4
23.913995,28,87,9,-4,-3,-2,-3,-5,4
23.924534,35,80,9,9,0,1,-1,0,4
23.924550,46,-71,-29,-15,-1,-3,-3,4,4
23.933597,-23,3,6,6,3,2,5,7,4
23.933601,46,11,7,10,0,0,3,-4,4
23.948412,-106,-117,-15,-13,-7,-6,-6,12,4
23.948446,-104,117,2,-3,-2,-2,-5,-15,4
23.949762,10,-68,-3,-3,2,2,5,6,4
23.949802,53,29,-6,-4,-2,-3,-4,-12,4
23.971068,16,80,8,6,0,1,5,16,4
23.971093,40,45,-7,-7,-3,-2,-7,-6,4
23.972493,10,0,6,4,-1,1,0,12,4
23.972570,-45,4,4,2,-2,-1,0,-1,4
23.995893,-79,-49,-10,-12,-2,-3,-6,-1,4
23.995897,-33,-100,-15,-7,-5,-4,-4,-5,4
23.995900,37,72,17,6,3,1,3,-17,4
23.995901,-62,-85,-17,-1,-1,-4,-6,7,4
24.009013,15,59,1,7,3,4,3,-9,4
24.009052,-14,-74,14,2,-2,-4,-1,4,4
24.011014,-39,87,2,-2,-2,1,2,-2,4
24.011018,32,-3,6,-2,4,1,-1,-6,4
24.031190,45,-74,-19,-1,-1,0,1,-4,4
24.031216,-14,55,-4,-2,-1,-2,-1,3,4
24.032348,-26,12,-1,-2,-4,-1,-1,3,4
24.032364,35,75,9,2,1,-1,0,-2,4
24.053464,-15,-27,-3,0,-2,1,1,5,4
24.053488,99,33,-3,3,3,-1,1,2,4
24.055741,99,48,14,5,0,-2,-3,7,4
24.055748,-93,-102,-24,-12,-2,25,-1,5,4
24.068883,-67,-5,6,5,-6,-71,-3,-13,4
24.068907,46,72,-2,1,0,-2,5,13,4
24.070853,-34,-50,-7,-7,0,-4,-4,-12,4
24.070858,-1,127,0,6,0,-4,-6,-35,4
24.090924,51,-20,-7,3,0,19,5,8,4
24.090936,-60,-102,-21,-4,-3,-1,-7,-4,4
24.092407,46,127,21,4,3,-2,5,13,4
24.092424,111,-26,15,5,0,-3,-2,-17,4
24.113541,-12,-45,-1,-10,-2,12,-4,-13,4
24.113560,-31,-2,-11,-1,-2,-5,-2,-3,4
24.116227,-22,-55,10,-6,-1,8,-1,13,4
24.116231,-5,13,14,5,0,-5,2,13,4
24.127819,-21,69,2,-1,-1,5,-3,-6,4
24.127835,6,-28,-5,-3,-2,-1,-1,-7,4
24.136150,-36,121,3,6,1,1,1,8,4
24.136157,61,-99,-19,-9,-4,-8,0,-6,4
24.151994,-5,29,7,1,0,1,-3,-7,4
24.151998,-20,16,8,4,-1,5,1,8,4
24.152478,-41,66,-7,-1,1,-4,-1,-7,4
24.152495,-4,81,-5,1,-4,-6,-1,10,4
24.173410,28,38,1,-3,-1,12,2,6,4
24.173425,19,45,15,3,1,-1,-5,-10,4
24.175220,-54,-9,-22,6,-4,-4,0,6,4
24.175232,15,45,14,-3,1,-2,-2,14,4
24.188217,1,-5,19,4,1,2,-3,-17,4
24.189826,5,-24,-13,3,0,0,3,0,4
24.202127,-42,32,3,-5,-4,-2,-1,7,4
24.202152,28,-27,-7,-10,-8,-3,-5,8,4
24.212166,45,-22,2,6,3,5,5,0,4
24.212180,41,-88,-14,-7,-6,-3,-4,-5,4
24.212536,55,-10,-19,-7,0,1,0,-7,4
24.212554,-64,64,0,-2,-2,0,2,3,4
24.233494,-17,-15,5,3,2,2,-1,3,4
24.233516,13,68,11,-3,2,-3,-1,1,4
24.235077,77,-64,-9,-6,-5,-4,0,5,4
24.235101,49,32,2,4,-4,-4,-4,-13,4
24.247827,74,7,-17,-7,-3,0,1,18,4
24.247852,10,21,3,2,3,3,2,3,4
24.262137,-5,65,23,3,4,2,2,-3,4
24.262162,-99,9,18,5,2,-1,2,14,4
24.270908,63,81,-4,-6,-4,-1,3,7,4
24.270931,-5,-104,-6,0,-3,-1,-5,-1,4
24.272468,21,18,19,-2,0,-3,-1,-4,4
24.272486,13,51,-5,4,2,0,4,8,4
24.293658,-51,111,-1,4,2,0,-4,-16,4
24.293690,-2,-55,-12,-4,-3,-2,-2,2,4
24.295078,-6,-6,1,-7,-7,-2,-2,-3,4
24.295124,18,56,8,7,3,1,3,-2,4
24.307725,-53,-90,-10,-4,-1,2,2,6,4
24.307742,20,103,-1,4,-3,-1,-2,-19,4
24.314806,-14,-13,0,0,1,1,-4,-2,4
24.314835,30,50,-2,-4,-2,-3,-1,14,4
24.331162,-81,-1,-1,-7,-3,-4,-9,-39,4
24.331199,-24,-27,5,1,-2,-1,0,17,4
24.332822,18,-67,-4,1,0,0,1,-4,4
24.332826,16,78,14,3,2,0,0,-14,4
24.353406,-4,-95,-29,-6,-3,-1,-2,5,4
24.353424,-21,127,1,-11,-1,-1,-2,-8,4
24.355118,9,79,-12,3,0,-1,-2,-6,4
24.355134,-26,-9,-3,-5,1,-1,0,-2,4
24.367618,47,55,10,5,-2,0,-1,11,4
24.367674,39,23,14,1,3,0,1,-4,4
24.374539,-64,-116,-15,-5,-5,-4,-5,-5,4
24.374557,50,13,8,6,1,-1,-2,-8,4
24.390987,72,103,24,13,3,3,5,4,4
24.391004,-18,-74,-20,-5,-5,-5,-6,10,4
24.392570,4,-10,-4,1,-1,6,-3,6,4
24.392589,-9,-53,-10,-6,-6,30,5,-2,4
24.413579,17,-46,-1,-4,-5,-33,9,3,4
24.413591,53,127,29,12,9,0,11,18,4
24.414804,19,-27,0,-9,-8,-13,-16,-18,4
24.414813,-10,14,-17,-11,-4,5,-4,-1,4
24.429083,-13,21,1,3,6,11,-4,-3,4
24.429089,-61,-2,0,4,-1,3,9,-6,4
24.434787,0,31,-2,2,-1,0,3,0,4
24.434810,-28,28,-9,-5,-8,-12,-7,-4,4
24.451270,-3,96,11,-4,0,4,7,7,4
24.452348,-88,-95,-39,-18,0,-9,-11,-11,4
24.452572,-65,127,6,6,7,7,-2,-14,4
24.452585,16,36,1,-2,-3,-8,-4,4,4
24.475560,22,-40,6,2,0,1,-1,-1,4
24.475566,-91,-34,-10,-11,-7,2,-9,-16,4
24.475569,35,-64,-5,3,1,-2,2,0,4
24.475571,-32,-13,4,-2,2,-6,1,3,4
24.487423,23,93,-1,-1,-3,-1,-7,-7,4
24.487453,-25,64,8,0,-2,-2,0,-4,4
24.498119,22,2,2,-1,0,-1,6,16,4
24.498124,70,-3,-9,2,1,-9,-3,-6,4
24.511304,29,93,16,6,-6,3,-8,1,4
24.511327,-68,17,2,-6,8,1,-2,-12,4
24.514221,35,-68,-20,1,-8,-4,-2,7,4
24.514228,-10,-31,1,-8,-3,-2,1,-1,4
24.533516,-17,-64,-5,2,4,1,-3,-3,4
24.533534,120,101,16,7,-3,2,2,-1,4
24.534989,-68,-116,-17,-6,4,2,4,3,4
24.535031,16,-34,-6,-3,-1,-7,-7,-12,4
24.555011,-9,-66,-6,-2,-4,0,-2,5,4
24.555031,-23,35,4,-1,-1,-2,-1,-2,4
24.562659,24,127,22,2,5,1,4,10,4
24.562675,-102,-85,-10,4,-2,-1,-4,-24,4
24.570363,26,44,-15,-9,-6,-2,0,8,4
24.570387,43,-83,-2,3,1,3,2,6,4
24.572035,85,127,8,-4,-2,-7,-9,-7,4
24.572044,-86,18,-2,-7,3,-2,0,-6,4
24.592816,46,30,4,0,-2,-1,-4,0,4
24.594140,-37,54,-5,-4,-5,-1,0,-11,4
24.594145,-2,1,-5,-1,-5,-3,-2,7,4
24.594147,30,-19,0,7,2,0,5,11,4
24.615314,-80,36,8,6,3,10,10,-12,4
24.615319,86,34,-20,-9,-9,-10,-4,6,4
24.615902,-18,-19,0,-5,1,-2,-7,-1,4
24.615975,6,58,-12,-1,-2,-3,-3,-15,4
24.632006,-61,25,9,0,0,0,0,11,4
24.632014,35,-45,-3,4,1,6,11,2,4
24.632016,6,-40,-2,5,1,1,3,-4,4
24.632017,40,-19,-2,-7,1,-1,-3,-2,4
24.662227,3,-44,-6,3,0,-1,-1,-4,4
24.662239,-11,4,6,-2,0,-2,-2,1,4
24.662243,9,21,-1,-2,-1,0,-3,-1,4
24.662247,1,30,23,2,-2,-1,-2,18,4
24.675745,66,-28,-30,-21,-14,-12,-9,-14,4
24.675774,20,77,0,0,0,0,-6,-10,4
24.678869,-35,125,2,3,1,1,3,1,4
24.678875,3,82,18,8,2,2,7,11,4
24.690766,-25,79,16,-3,-2,-2,-7,3,4
24.690797,-54,-44,-6,2,-1,-3,0,9,4
24.692669,-49,-92,-15,-6,-6,1,2,-4,4
24.692674,44,47,10,6,6,-1,-1,1,4
24.712637,-18,19,1,-12,-3,-4,-8,4,4
24.713957,4,-56,-8,3,-2,1,-2,-8,4
24.713966,-11,111,25,7,1,2,3,-9,4
24.713970,-25,37,-2,4,1,1,3,20,4
24.735526,-29,-6,-15,4,1,3,1,-2,4
24.735555,-46,104,19,-2,-1,0,-1,8,4
24.737818,53,-63,-12,-7,-4,-3,0,-6,4
24.737825,30,100,-4,-1,-4,0,-7,-1,4
24.750504,4,-99,-11,-5,0,-2,1,7,4
24.750533,30,-10,8,5,2,2,1,-20,4
24.752374,29,36,11,0,-2,-3,3,29,4
24.752379,7,-43,-24,-21,-8,-7,-13,-35,4
24.772713,-43,-65,1,6,4,2,2,-6,4
24.772720,47,24,-7,-3,0,-2,-1,12,4
24.773501,-40,-67,-5,-1,-1,-2,-1,-6,4
24.773573,-56,-68,-9,-2,0,0,1,-3,4
24.795563,37,85,2,7,4,3,4,8,4
24.795592,3,-43,7,-7,-2,-7,-7,-8,4
24.798210,31,-44,-16,-2,-2,1,1,-6,4
24.798216,-41,-98,-10,2,0,0,0,15,4
24.810281,-76,28,-13,-2,2,-1,-4,-15,4
24.812631,21,30,-5,0,-8,-3,-3,19,4
24.812635,-69,71,2,-4,2,-1,-6,-7,4
24.812637,-28,-56,-5,0,-2,-1,2,2,4
24.835356,22,36,12,1,-3,0,0,-9,4
24.835364,-37,-34,-7,-10,-3,-1,-2,-6,4
24.835366,19,125,4,4,-2,-3,-4,-3,4
24.835368,-5,-26,-17,-7,-5,-2,1,-2,4
24.855558,63,82,35,13,10,4,8,13,4
24.855580,-33,-9,-1,-3,-2,-2,-5,-11,4
24.857105,103,-106,-3,-15,-4,-2,-6,-3,4
24.857115,-74,-98,-12,4,2,4,6,7,4
24.878514,29,-68,-18,-12,-8,-3,-5,-11,4
24.878542,19,4,-1,2,0,1,0,8,4
24.879507,33,-11,-10,0,4,-1,0,2,4
24.879511,13,84,26,9,1,-2,-2,-16,4
24.892919,-29,-38,-10,-1,-2,0,-3,8,4
24.892939,-9,-41,1,-5,4,2,0,-6,4
24.895005,-10,125,16,12,-2,-2,-4,-5,4
24.895011,56,-76,-49,-14,-7,-5,-3,-1,4
24.915582,13,95,-8,-1,3,-2,1,-1,4
24.915606,36,58,-1,5,2,0,3,-7,4
24.916155,5,47,18,6,4,4,3,6,4
24.916176,-11,-1,-1,-8,-5,-1,1,-1,4
24.930195,20,-52,-4,-8,-3,-2,-2,-2,4
24.930210,104,120,-1,9,-2,0,3,22,4
24.932333,-113,-128,-28,-14,-3,-6,-6,-39,4
24.932338,49,127,17,2,0,1,0,5,4
24.953089,-22,127,6,-3,-2,-2,-3,-1,4
24.953119,-43,-91,-15,-2,-1,3,0,5,4
24.955946,-39,-5,0,-2,-1,-2,-4,-3,4
24.955952,30,50,5,3,1,-1,-1,7,4
24.983758,55,-36,11,5,-2,0,0,3,4
24.986314,-74,14,10,2,3,0,-1,-6,4
24.986323,-39,26,-12,-8,-6,-2,-3,0,4
24.986325,18,-57,-7,-10,-2,-3,-1,-1,4
24.990271,4,-85,-1,6,-4,-2,-1,9,4
24.990287,1,-34,1,4,-1,-1,0,0,4
24.991296,44,38,3,4,0,2,6,4,4
24.991322,3,-22,10,-3,0,-3,-3,-3,4
25.012598,49,83,1,5,-2,3,6,3,4
25.012614,16,-80,-23,-18,-1,-4,-5,12,4
25.013440,31,-2,-12,-3,-2,-1,-1,3,4
25.013444,36,28,10,6,0,1,0,-1,4
27.038431,-4,-3,-3,-2,-1,1,-2,-4,0
27.038732,-3,-4,-5,-1,-1,-1,-1,-1,0
27.040149,-1,2,3,-3,0,-1,-1,1,0
27.040156,0,0,-1,3,-1,1,1,0,0
27.061462,-1,-2,0,-1,-1,-2,1,-1,0
27.061474,-2,0,-3,-5,-1,-2,-2,2,0
27.062035,0,-1,-1,3,-1,0,0,-3,0
27.062076,0,-2,3,3,0,0,0,0,0
27.075163,1,0,1,-1,-3,-2,-2,0,0
27.075182,-2,-1,-3,-1,-1,0,0,-2,0
27.076885,-1,-1,-4,-2,-1,-1,-1,-1,0
27.076890,-1,-4,-2,-6,-3,-2,-3,0,0
27.098468,-1,3,2,4,0,-1,-2,-3,0
27.098489,-1,-4,-4,-3,-5,-2,0,-1,0
27.100405,-1,-1,0,-4,1,-2,0,-1,0
27.100414,-2,2,1,-2,3,-1,-2,-1,0
27.121098,0,-4,-1,-1,2,-3,1,0,0
27.121115,-1,-2,0,2,0,1,0,-1,0
27.123026,0,0,-5,0,-4,-1,-1,0,0
27.123034,-3,-1,2,0,-2,-2,0,0,0
27.135237,0,-1,2,0,-2,0,-3,3,0
27.135266,-1,-2,-2,-1,0,0,0,0,0
27.136731,0,-1,-3,-6,-1,-1,-3,-2,0
27.136736,2,0,0,-2,-1,1,-3,-1,0
27.158384,1,2,-1,3,-3,-2,-2,2,0
27.158401,-2,-3,1,0,0,-1,0,-2,0
27.159319,-2,1,-3,-2,-1,0,-1,1,0
27.159343,-1,0,-1,4,-1,-1,-1,0,0
27.180855,-1,-2,-2,-5,0,-1,-1,-2,0
27.181966,3,17,-1,3,-2,0,-1,1,0
27.181970,-2,-23,-3,-3,1,-1,-1,0,0
27.181972,3,-2,-2,-4,-3,-2,0,0,0
27.195116,-3,-3,-2,-3,-3,-2,1,-1,0
27.195131,-2,1,1,-3,-1,-2,-1,0,0
27.196285,0,8,4,2,-1,-1,-2,-1,0
27.196296,0,-1,-4,-5,-1,-1,-1,-1,0
27.220079,-1,-3,-7,2,2,1,-1,-1,0
27.220091,-1,-1,2,-3,-2,-2,-1,-2,0
27.220094,-1,-1,2,0,-1,0,-1,1,0
27.220095,-1,-3,0,-2,0,-2,-2,-1,0
27.241219,0,3,0,1,-2,-1,-1,-2,0
27.241240,-3,-5,3,-8,-2,-2,-1,0,0
27.243249,-2,-2,-12,6,-1,0,-1,-1,0
27.243255,-2,0,-2,-1,0,0,0,-2,0
27.255324,-2,-1,3,-1,-1,-2,-2,0,0
27.255348,1,0,1,2,0,-1,-2,-4,0
27.256104,0,-2,-5,-4,-1,-1,-2,-3,0
27.257250,-2,1,3,-1,1,-1,0,0,0
27.279916,-2,1,1,-1,-1,-1,1,-2,0
27.279922,-1,-5,-4,5,4,0,-1,-2,0
27.279923,0,6,3,-4,0,-3,-2,-1,0
27.279925,-1,-5,-10,-4,-3,-1,0,-2,0
27.300890,-1,0,1,0,-4,-2,-2,-1,0
27.300912,-1,-2,1,-3,0,-1,-1,1,0
27.302659,0,0,0,3,1,-2,1,-2,0
27.302669,-3,-5,2,-3,0,-1,-1,0,0
27.315391,-1,-1,-3,-3,1,0,-3,0,0
27.315414,-1,-4,-7,-2,-2,0,-1,-3,0
27.316052,1,4,0,-7,-2,-1,-1,-3,0
27.316070,0,1,1,-3,-1,-1,-1,0,0
27.338523,-2,-1,0,1,1,-1,-1,-3,0
27.338545,-1,2,-3,6,-1,2,0,0,0
27.339788,-5,-2,4,-5,1,0,0,-2,0
27.339792,-2,-1,0,3,-1,-3,-4,-2,0
27.360786,-3,-5,-8,-4,0,-1,-1,0,0
27.360795,1,2,3,-1,1,-2,0,-2,0
27.361650,-2,-3,-5,-4,-2,-1,0,-2,0
27.361664,0,-3,0,-1,1,0,-1,-1,0
27.375258,0,4,1,0,-2,-3,-1,0,0
27.375264,0,-4,-3,-4,-3,-2,-3,-2,0
27.375792,-2,-1,1,1,0,0,-1,2,0
27.375800,-2,2,-3,-4,-4,0,0,-1,0
27.398601,0,0,1,3,-1,0,-2,-2,0
27.398622,-2,-3,0,-4,-3,0,0,-2,0
27.399836,1,2,-1,2,2,-1,-2,0,0
27.399867,1,0,-3,0,-3,0,-1,-1,0
27.420982,-1,-2,2,-6,-1,-1,0,-3,0
27.421007,-3,-4,0,1,0,0,0,-2,0
27.422771,0,2,2,-3,-2,-2,-1,0,0
27.422777,0,3,3,2,0,-3,-1,-1,0
27.435052,-2,8,-11,-5,-1,-1,0,-1,0
27.435080,-2,-20,0,-2,0,-1,-2,-1,0
27.442803,0,-3,-6,2,-2,0,1,0,0
27.442826,0,0,7,0,0,-1,1,-1,0
27.458412,-1,4,3,1,2,-1,-1,-3,0
27.458436,-2,4,-3,-1,-3,-1,-2,-2,0
27.459336,-2,-2,-2,-3,0,-2,-2,0,0
27.459403,-1,-3,-5,-3,-1,-1,-1,-1,0
27.480860,-1,-4,-2,0,-1,-1,1,-2,0
27.482280,-1,1,1,-1,-2,0,-1,1,0
27.482286,-1,-4,0,-2,-2,-2,-2,-1,0
27.482288,-4,0,-5,0,-3,-1,-1,-1,0
27.503440,-1,-3,1,-4,3,-1,0,-1,0
27.503462,0,2,0,0,-1,-2,-2,-1,0
27.504953,-4,-3,-4,-2,0,0,1,-2,0
27.504970,-3,-2,0,-1,-1,-2,-1,0,0
27.518391,0,-6,-2,1,-3,-1,0,-1,0
27.518412,0,4,1,-9,-1,-1,1,0,0
27.520039,0,0,-2,10,-1,-1,-2,0,0
27.520096,-3,1,0,1,-1,-1,0,-1,0
27.541399,-1,-3,-1,1,-3,1,0,-1,0
27.541422,-2,2,-3,-4,0,-1,-3,1,0
27.543160,0,0,1,-4,-3,-1,0,1,0
27.543167,-1,-4,0,-4,1,1,-2,0,0
27.554683,-1,-2,-2,1,-3,-1,-1,0,0
27.554706,0,-3,-3,4,0,-1,-3,-1,0
27.564177,-2,0,-1,-2,0,-1,-1,-1,0
27.564181,-1,1,-1,-2,-1,0,-1,1,0
27.578625,0,2,5,-2,0,-1,1,-1,0
27.578656,-1,-2,-10,0,0,-1,1,-1,0
27.580644,-3,-10,-3,-3,-3,-2,-1,-2,0
27.580650,0,-1,-5,1,2,1,1,-2,0
27.601145,-2,-3,2,0,0,-1,-3,-2,0
27.601168,0,8,2,1,-2,-1,0,0,0
27.602942,2,5,0,-8,-3,-1,-3,-1,0
27.602956,-1,-1,-2,4,-3,-2,-3,0,0
27.614489,0,5,4,-2,-1,0,-2,-1,0
27.614505,-4,-5,-3,6,1,-1,-1,-1,0
27.623831,-3,-2,-2,-3,-1,1,0,-2,0
27.623837,-1,-1,-3,-4,-2,1,-1,-3,0
27.645858,-1,-3,-3,1,-2,-1,0,-1,0
27.645875,-3,0,-1,-2,1,0,0,-4,0
27.647320,0,-1,3,2,1,-2,1,-2,0
27.647360,2,0,-2,-1,0,-1,-1,0,0
27.660855,-2,-2,1,0,-3,-1,-1,-2,0
27.660872,-1,-2,1,-5,-3,-2,-1,-1,0
27.662396,-1,4,0,0,3,-2,0,-2,0
27.662434,-1,0,-4,0,2,0,1,-1,0
27.674453,-2,-1,-2,-7,-2,-3,-2,-1,0
27.674464,1,-1,4,5,-2,0,0,0,0
27.683965,-1,-1,-3,-3,-3,-1,-1,-3,0
27.683970,-1,-1,0,-3,-2,-1,1,0,0
27.698331,-1,0,3,-5,-1,-2,-1,1,0
27.699780,0,-2,-10,-4,1,-1,-1,-1,0
27.699854,2,8,-1,5,-1,2,-1,0,0
27.699925,-2,-21,-1,3,0,1,-1,-2,0
27.720859,-3,-1,2,-2,-2,-3,-2,-2,0
27.720891,0,-2,-9,1,-3,-3,-1,-2,0
27.722529,-1,19,12,-4,-2,-2,-2,-2,0
27.722628,-1,1,1,-3,-1,-2,-1,-4,0
27.734530,-1,0,-2,2,0,-2,1,-3,0
27.734553,-1,-4,2,8,3,-1,1,-1,0
27.745171,-2,-4,-9,-3,-2,-1,-1,0,0
27.745183,0,7,-2,-1,-1,-1,-3,0,0
27.758464,0,-7,1,-2,0,-1,0,0,0
27.758488,-3,3,2,-8,-2,-1,-1,-1,0
27.760170,-2,-7,-4,4,1,-1,0,0,0
27.760203,-1,1,3,-3,-3,-3,-2,-1,0
27.780894,0,0,-6,2,0,-1,-1,0,0
27.780916,-1,-3,2,-1,-2,-1,-4,-1,0
27.782775,-1,-6,0,-4,-2,0,0,1,0
27.782780,-1,1,-3,2,-2,-2,1,-4,0
27.803525,0,0,-5,-3,0,1,-1,-1,0
27.803550,-3,2,-1,-2,0,1,2,-1,0
27.805008,-1,-4,4,4,0,0,-2,0,0
27.806318,-1,2,-2,-4,-2,-1,-1,-1,0
27.818455,-1,0,-6,0,-2,-2,0,0,0
27.818486,-3,-4,0,-3,0,-3,-2,-2,0
27.820062,-3,8,-3,1,-2,-1,-2,-1,0
27.820080,0,-12,2,-3,3,-1,-1,0,0
27.840819,-2,1,0,1,-2,1,-1,0,0
27.840834,1,1,0,2,-3,-1,0,-2,0
27.842420,0,-7,-4,-5,0,0,-1,-1,0
27.842493,-3,4,-2,2,0,-1,0,-2,0
27.863319,1,-2,1,1,-3,-2,-3,0,0
27.863335,-1,-6,-5,-2,4,0,-1,0,0
27.864966,0,10,9,6,0,0,0,-1,0
27.865011,3,2,2,-2,-2,0,1,-1,0
27.878890,-2,-3,-2,-4,-1,-1,-2,0,0
27.878897,-1,-1,-3,0,-4,-1,0,0,0
27.879849,-1,-7,-4,-3,-4,-2,0,-2,0
27.879861,0,0,-3,-5,3,-1,-1,0,0
27.900995,-4,-3,0,1,0,0,-1,-2,0
27.902967,0,1,3,-1,0,1,-1,-1,0
27.902974,0,-5,-3,1,-1,-1,-2,0,0
27.902976,-2,-1,0,-1,-1,-1,-1,-1,0
27.925375,1,-1,-2,-1,-1,0,0,-3,0
27.925382,-1,-2,-1,-7,-2,-3,0,0,0
27.925384,1,-3,-1,2,0,-2,-1,1,0
27.925386,0,2,2,-2,-3,0,-2,0,0
27.937891,-4,-5,-10,-2,-1,-1,-2,0,0
27.937913,1,1,3,-2,-1,0,-1,-2,0
27.945207,0,-3,-3,-1,0,-1,0,-2,0
27.945233,-1,2,0,1,2,-2,-1,1,0
27.961284,-3,-3,-7,-4,0,-1,-1,-1,0
27.961308,-1,0,-2,0,-2,-1,-1,0,0
27.963610,-1,-2,0,-3,0,-1,-1,1,0
27.963624,1,9,-4,0,-4,-1,-2,0,0
27.983555,-1,-20,-2,0,-1,1,-1,-1,0
27.983571,1,13,3,-2,-2,-2,-2,-1,0
27.985258,0,-12,-9,0,0,-2,0,-2,0
27.985263,-1,-1,2,-1,-1,-1,0,1,0
27.998115,-1,4,-1,-4,0,-3,-2,-2,0
27.998144,0,-3,0,7,0,-1,-2,-1,0
28.004566,0,7,2,-1,-1,-1,-1,-2,0
28.004589,-2,-4,-4,-1,-3,-1,0,-2,0
28.021104,-1,0,2,-1,-4,-1,-1,-1,0
28.021131,-2,-2,1,-5,-1,1,-1,1,0
28.022491,-1,2,1,-2,0,-1,-2,-1,0
28.022510,1,-2,-3,2,1,0,0,-1,0
28.043363,-2,1,2,2,-2,-1,-1,-2,0
28.043379,-2,-5,-5,-3,1,0,0,0,0
28.044840,-3,-6,-5,-4,-4,0,0,-3,0
28.044887,-1,-2,-2,0,-2,-1,0,-1,0
28.057745,2,4,6,1,1,-2,1,0,0
28.057770,-3,-1,0,-1,-1,-2,-1,-1,0
28.065960,-5,0,2,-2,-2,-2,-2,-3,0
28.065969,0,-5,-10,-2,-1,-1,-2,-4,0
28.082100,2,2,-4,-3,-1,-1,0,0,0
28.082104,1,14,1,-1,-2,-1,0,-2,0
28.082327,0,-23,7,4,-2,0,-2,-1,0
28.082334,-2,-3,-2,0,4,-2,-3,-1,0
28.103571,-1,10,12,4,0,-2,-2,-2,0
28.103587,0,-1,-2,-8,0,-2,-2,0,0
28.105221,1,17,-4,1,-2,-1,-2,0,0
28.105226,-2,-12,3,-2,-4,-3,-1,0,0
28.118164,-2,-5,-5,-1,-1,1,0,0,0
28.118190,-2,-5,-4,2,-2,0,-1,-1,0
28.125150,-1,1,-2,-4,-1,-2,-2,0,0
28.125171,-2,2,4,1,0,0,-1,-2,0
28.141038,0,2,-1,0,-1,0,1,0,0
28.141060,0,-4,0,0,-1,0,-1,0,0
28.142887,0,-2,-7,-1,1,-2,1,1,0
28.142893,-2,0,-1,0,-3,0,-1,1,0
28.163162,-1,2,2,-4,-1,-1,0,-3,0
28.163177,-1,0,1,3,0,-2,-2,0,0
28.169692,-1,-4,-4,-3,0,-1,0,0,0
28.169710,-2,1,1,-1,0,-1,-2,-1,0
28.177979,0,-4,-5,-1,-2,-1,-3,0,0
28.179030,-4,-7,-3,-1,-2,0,0,-4,0
28.184675,1,1,-1,-1,0,-2,-2,-2,0
28.184698,-1,3,2,-3,-3,-2,0,-1,0
28.201007,-2,-2,-9,-2,1,0,-1,0,0
28.201028,-1,-2,-2,0,-1,-3,-2,-1,0
28.203171,-1,-4,0,-2,-1,-2,-1,0,0
28.203175,-2,-1,-4,2,0,1,0,-2,0
28.223482,1,11,8,1,-1,-1,-2,-2,0
28.223502,0,-7,0,-3,-2,0,-1,1,0
28.225146,-3,1,-1,-5,-1,0,0,-1,0
28.225167,-1,-3,1,3,-1,-1,-1,0,0
28.237737,-2,17,-4,-3,0,-1,0,0,0
28.237761,-3,-22,3,3,3,-1,-1,-3,0
28.244972,-2,-2,0,-2,-2,-1,-1,-2,0
28.245011,-1,1,-2,-3,0,-3,-1,1,0
28.261423,-1,-4,0,2,0,0,-1,-3,0
28.261446,1,6,-3,-5,-1,-2,-1,-1,0
28.262791,0,-4,-3,-1,-1,-2,0,0,0
28.262799,1,-1,-3,-2,-1,0,1,-3,0
28.283331,1,-4,0,-1,-1,-3,-2,0,0
28.283377,0,0,-2,0,-1,0,-2,3,0
28.284846,-2,-1,-3,1,-2,1,-1,-1,0
28.284875,-1,2,4,0,-2,-3,-2,-1,0
28.297462,-1,-6,4,1,-2,-2,0,0,0
28.297490,0,-1,-5,0,-1,-1,1,-2,0
28.306171,-2,0,-1,0,-2,-1,-2,-1,0
28.306188,-2,-1,0,-2,-1,0,-2,1,0
28.321015,-2,-8,-4,1,-1,1,-2,-2,0
28.321035,-1,4,1,-4,-3,0,0,0,0
28.322502,1,2,1,0,-1,-1,-2,0,0
28.322517,0,-5,-4,-1,1,-1,0,0,0
28.343796,1,-2,-1,-1,0,-2,-2,0,0
28.343825,2,5,1,0,-3,-2,-2,1,0
28.345447,-5,-8,-3,-2,-3,-2,-1,-2,0
28.345453,-2,-1,-4,-4,2,0,0,-1,0
28.357269,-3,-3,3,2,1,0,-2,0,0
28.357290,-2,0,0,2,1,-1,-1,-1,0
28.367969,0,-7,-4,-2,-1,-2,-1,0,0
28.367975,-2,8,4,-2,-6,0,0,-2,0
28.381025,-3,-4,-11,-6,-1,-2,1,-2,0
28.381047,0,3,7,1,0,-1,-3,-2,0
28.382461,1,-1,-5,2,1,0,-1,0,0
28.382476,-1,-4,-4,-2,-2,-1,-1,-1,0
28.403598,-1,-2,1,-2,-1,0,-1,-2,0
28.403618,-1,1,-1,-1,-2,-2,0,0,0
28.405092,-2,0,1,1,0,-1,0,1,0
28.405100,1,-4,-2,-1,-1,0,0,-1,0
28.417288,-1,-2,-1,-3,-1,-1,0,1,0
28.419051,-2,-1,-1,-2,0,-1,-1,-3,0
28.428634,2,2,2,0,-3,1,0,-1,0
28.428640,0,-2,-5,0,0,-1,-2,0,0
28.441086,-3,-1,-1,-12,0,-1,-2,-3,0
28.441111,-2,0,-2,12,0,-2,0,0,0
28.442370,-3,2,5,2,2,-1,-2,0,0
28.442405,0,0,3,0,-2,0,-1,0,0
28.463770,-1,-3,-1,1,-4,-1,-2,-1,0
28.463801,-1,-1,-8,-8,-1,1,0,0,0
28.466223,0,0,-1,0,1,0,-1,-1,0
28.466229,-1,-2,-2,5,0,-1,0,-1,0
28.477395,0,2,2,1,-1,0,-2,-1,0
28.477419,-1,-2,-5,-5,-1,-1,-2,0,0
28.487433,-2,-1,2,-3,-3,-2,0,-1,0
28.487444,-1,-5,4,-2,1,-2,0,0,0
28.502785,1,-1,-9,1,-1,-2,0,0,0
28.502799,-2,-3,-2,0,-2,-1,-1,0,0
28.502802,1,4,-4,-2,0,1,-2,-2,0
28.502804,-2,1,0,-1,-1,-1,-1,2,0
28.532788,-2,-5,3,2,-1,-1,1,-1,0
28.532793,-1,0,-1,3,0,-1,0,0,0
28.532795,-1,8,3,-2,-1,-1,-1,-1,0
28.532797,-2,-2,-4,-2,0,-1,0,-2,0
28.537191,1,-2,2,3,0,-1,0,1,0
28.537209,0,-4,-2,-9,-1,-1,-1,-1,0
28.546200,1,-3,0,6,-3,-1,-1,-3,0
28.546205,0,-2,-1,-1,-3,-2,-2,0,0
28.564121,0,1,-1,1,0,1,-1,2,0
28.564127,-2,-3,-2,2,-3,0,-3,-2,0
28.564129,-3,-6,-4,-6,0,-1,1,0,0
28.564131,-2,2,-1,-4,-2,-1,1,-2,0
28.583751,-2,0,-2,0,-1,-1,-1,-2,0
28.583779,1,-2,-1,-4,-2,-1,1,0,0
28.586823,0,1,1,-3,-2,-1,-3,0,0
28.586830,-1,-1,-4,1,1,-1,-1,1,0
28.596905,1,3,4,-2,1,-1,-1,0,0
28.596915,-3,0,1,3,-1,-1,1,-1,0
28.607631,1,-1,1,-4,0,-2,-1,-1,0
28.607637,-2,-2,1,-2,-2,-1,-1,-2,0
28.621267,-2,-4,-2,-2,-4,0,-2,1,0
28.622779,0,1,-1,-5,3,-1,-1,0,0
28.622784,0,-3,-1,0,-1,-1,0,-2,0
28.622785,-2,-1,-2,-2,0,0,-2,-2,0
28.643381,-2,-2,-1,0,-2,-1,0,-1,0
28.643420,1,9,-2,0,-2,-1,-3,-1,0
28.644911,0,-14,2,-1,-1,-2,-1,0,0
28.644986,2,2,-2,-9,-1,0,-1,1,0
28.657124,-5,-4,-2,5,-2,-1,0,-1,0
28.657178,-1,-3,-5,0,-1,1,-1,-1,0
28.667741,1,2,0,2,2,-1,-1,-1,0
28.667746,-1,1,-1,-1,-1,-2,0,0,0
28.680680,2,0,-5,-1,-1,-2,0,1,0
28.680702,-1,0,8,-2,-3,0,0,-2,0
28.687524,-1,0,-6,-4,-2,0,0,-2,0
28.687608,0,-4,-4,1,0,-1,-1,1,0
28.705408,2,1,3,-1,0,-1,-2,0,0
28.705420,-1,-6,-4,-1,-2,-1,-3,-3,0
28.705424,-3,-1,-1,-2,-1,-1,0,-1,0
28.705428,-2,-2,-6,2,0,-1,-2,0,0
28.726465,-2,-1,-3,-3,-1,-1,-3,-3,0
28.726494,-3,-3,2,-2,1,-1,-1,-1,0
28.728836,-3,1,-1,-3,-1,-2,-1,0,0
28.728841,-4,-1,2,0,-2,-1,-2,-2,0
28.741263,-1,0,-1,-5,-1,-2,-2,-2,0
28.741292,-3,0,-2,3,0,-2,0,0,0
28.743643,-1,3,2,4,-2,0,-1,0,0
28.743648,-1,1,1,0,-1,-1,0,-1,0
28.763955,-2,-4,-5,-2,-2,-1,0,-2,0
28.763989,0,0,2,-3,-2,1,1,0,0
28.765953,-2,-2,-4,1,0,0,-2,1,0
28.765958,-1,-6,-3,-1,-1,-2,-1,0,0
28.786088,-2,7,3,-3,-2,1,-1,1,0
28.786109,-1,0,-2,-3,0,0,-2,-1,0
28.787530,0,0,-2,3,-1,-1,-1,0,0
28.787555,0,-1,0,-2,-3,0,-1,-2,0
28.801439,1,-5,-4,-1,-1,-2,1,0,0
28.801464,1,-3,-4,2,0,-1,-2,-3,0
28.803780,-5,2,-1,-1,-2,-3,-2,0,0
28.803790,-3,-2,0,-1,0,-1,-1,-2,0
28.823434,-2,0,1,1,0,-1,-1,-2,0
28.823454,-1,1,0,0,-2,-1,0,-3,0
28.824905,0,-4,-2,-10,1,-1,-1,-1,0
28.824950,-1,-2,-2,7,0,1,1,-2,0
28.845811,0,10,0,0,-3,-2,-3,-1,0
28.845857,0,-16,6,2,-1,0,-2,1,0
28.847316,0,1,-3,-3,-2,-1,-1,-3,0
28.847326,-1,0,3,-5,-2,-1,-1,-1,0
28.860366,0,1,2,0,-2,-2,1,-2,0
28.860371,-2,4,-3,1,-2,-3,0,-2,0
28.867145,0,-10,-3,0,-1,-1,0,1,0
28.867160,1,12,10,0,0,-1,-2,-2,0
28.890830,0,-5,-1,-1,0,-1,-2,1,0
28.890845,-3,-1,0,1,-1,-1,-2,-2,0
28.892644,-1,0,-3,1,0,1,1,2,0
28.892664,-2,0,-1,-1,1,-2,-2,-1,0
28.905834,1,-4,-7,-8,-1,-1,-1,-3,0
28.905846,-1,-2,2,6,0,-1,-1,0,0
28.907352,-2,-2,-4,-4,0,1,0,-4,0
28.907370,1,-5,-3,2,-1,0,1,-1,0
28.921807,1,10,9,-2,-1,-1,-1,-1,0
28.921816,-1,-3,1,-2,0,-1,0,-1,0
28.927300,-2,-17,-7,-2,0,-1,-1,-1,0
28.927359,-2,-3,-1,-5,-1,-3,-1,0,0
28.943392,-2,-5,-11,-1,-1,-1,-2,-3,0
28.943408,1,7,-1,0,1,-1,-1,3,0
28.944839,0,7,6,4,-1,-1,0,1,0
28.944849,1,0,-1,-4,0,-1,-1,-1,0
28.968518,-3,-11,-4,1,1,-2,0,0,0
28.968525,-1,11,3,-2,-2,0,-1,-1,0
28.968528,-1,3,2,-4,2,-1,-1,-1,0
28.968529,-3,-2,-6,1,-3,-1,-1,-1,0
28.981344,-2,0,4,0,1,0,0,0,0
28.981377,0,-5,-6,-3,-2,-1,0,-2,0
28.987316,-1,-2,0,1,-1,0,-1,0,0
28.987352,0,3,0,-1,0,-1,-1,0,0
29.003658,-3,-3,-1,1,-2,0,-1,1,0
29.003686,2,-4,-6,-8,-1,-2,0,1,0
29.005633,4,8,-2,5,-2,-2,-2,-4,0
29.005637,-6,-6,-3,-1,-2,0,-1,-1,0
29.026343,-10,-4,-1,0,-2,-2,0,0,0
29.026360,0,0,1,-2,0,-1,-1,1,0
29.027992,-1,1,-5,-4,-1,-1,-1,2,0
29.027999,3,0,4,0,2,-1,-2,-3,0
29.040587,3,0,3,0,0,0,-1,-1,0
29.040626,-1,16,1,-3,-1,-1,0,0,0
29.047033,-3,-36,-11,2,1,0,-1,0,0
29.047056,0,0,-2,0,0,0,-2,1,0
29.063332,-6,-1,1,0,-1,0,0,-1,0
29.063375,-1,-2,-4,-1,-1,0,-1,-1,0
29.065013,0,13,6,-2,-3,-1,0,0,0
29.065032,0,-3,-9,-7,0,-1,0,0,0
29.086278,1,-6,-4,-1,-1,-1,-1,0,0
29.086317,-2,0,3,3,0,-1,-2,0,0
29.088707,-1,3,-2,-1,-1,-1,-1,-1,0
29.088715,1,-1,2,-2,-2,-2,-1,2,0
29.100364,1,2,-1,-2,-1,0,-1,-1,0
29.100380,-5,-9,-3,0,-2,-1,-2,-3,0
29.107194,1,2,-1,-4,1,-1,-1,-1,0
29.107213,1,0,-1,-2,0,0,-1,-1,0
29.123349,1,0,-2,0,-2,-2,-2,-2,0
29.123360,-1,-7,-4,-1,-3,-1,-1,-4,0
29.124865,-4,3,5,0,-2,-2,0,-2,0
29.124883,0,1,-2,-7,-2,-1,0,-1,0
29.145959,-1,-3,-2,5,1,-1,-1,-3,0
29.145975,-2,-4,-1,-3,1,1,0,0,0
29.147569,0,6,-1,-5,-3,0,0,-3,0
29.147573,-4,1,1,2,-3,-2,-3,-1,0
29.160410,0,-4,-2,-2,0,-2,1,1,0
29.160426,2,0,5,0,-2,-2,-3,-1,0
29.167202,-4,9,0,1,1,-1,1,-3,0
29.167216,-4,-19,-3,3,1,1,0,-2,0
29.184164,6,0,0,-4,-1,0,-2,-1,0
29.184168,-5,-2,-5,-5,-3,-2,-3,-2,0
29.184871,3,7,3,-1,-1,0,-2,-1,0
29.184886,-3,1,-1,-2,-4,-3,-1,-2,0
29.205915,0,1,-1,-2,2,-2,-1,0,0
29.205933,1,-1,-3,2,2,0,-1,0,0
29.207451,2,-6,1,-1,-2,-1,0,-1,0
29.207461,-1,2,-1,0,-1,0,0,-2,0
29.219672,0,-3,2,-2,-3,1,-2,-1,0
29.219688,0,1,0,-1,-2,-1,1,-3,0
29.231060,-3,-6,-5,0,-1,-2,-3,0,0
29.231067,3,6,3,1,1,0,-2,-1,0
29.243771,-7,-1,-5,-2,-1,0,-1,-1,0
29.243798,-2,-2,2,0,-1,0,-2,0,0
29.246344,-1,-3,-5,-3,-2,-1,0,0,0
29.246351,-1,-7,1,-1,0,-1,0,-1,0
29.266209,-3,9,5,-2,-3,0,-1,0,0
29.266235,0,-1,-3,-3,2,-1,-2,-1,0
29.267635,-1,-4,-3,-1,-2,0,-1,-1,0
29.267645,-5,16,1,3,1,-1,-2,0,0
29.280797,5,-18,-2,3,0,-1,1,1,0
29.280803,1,-12,-1,-2,-2,-3,2,-2,0
29.289235,-2,1,-1,-1,-1,-1,-2,0,0
29.289240,-2,-4,-4,0,1,-1,-2,-1,0
29.303534,1,10,-2,-6,-1,-1,0,-3,0
29.303559,-1,4,-3,-2,-3,-1,1,-1,0
29.305528,-1,-5,0,-4,1,-2,-2,0,0
29.305532,-4,0,-3,2,-1,0,1,1,0
29.327904,10,0,1,-3,-3,-2,-3,-1,0
29.327910,-18,-3,-1,0,-1,-1,-2,0,0
29.327912,0,0,-1,-1,0,-1,-1,-2,0
29.327914,-1,-2,-1,-3,-3,1,-1,0,0
29.339509,-2,-1,-1,1,-1,-1,1,-1,0
29.339524,3,-3,-3,-2,1,-1,-1,0,0
29.349403,-1,1,-2,0,-1,-1,0,-1,0
29.349407,3,-1,3,1,0,0,1,-1,0
29.363350,-3,-5,-1,2,0,-1,-2,-1,0
29.363365,-2,0,-3,1,-2,-2,-1,0,0
29.364966,5,0,2,-4,-1,-2,0,-1,0
29.364971,-4,-9,-7,1,0,-1,-1,-1,0
29.388492,-2,8,0,-1,-2,-1,-1,-2,0
29.388499,2,0,2,-1,1,0,-1,1,0
29.388502,-2,1,-2,3,3,-1,-2,2,0
29.388504,1,-2,0,2,-4,1,0,0,0
29.399647,-5,-3,-5,-4,2,0,0,1,0
29.399663,1,-1,-4,-2,-2,-3,-2,-4,0
29.409577,-2,-2,4,-4,-1,0,-1,1,0
29.409582,2,1,0,-1,-1,-2,-3,-2,0
29.423398,-8,19,0,1,-1,0,-1,2,0
29.423413,9,-28,0,0,-2,0,0,0,0
29.424982,-2,0,-3,0,-1,0,-1,1,0
29.425000,-2,-1,2,-3,0,-2,1,-1,0
29.445768,-1,-5,-4,-2,-2,-2,-2,1,0
29.445783,-2,11,-3,1,-2,0,-1,-2,0
29.447401,-3,-1,1,-1,0,0,-3,-1,0
29.447487,-1,-2,-4,-5,-1,-1,-2,0,0
29.459964,0,0,1,1,1,0,-1,-2,0
29.459992,0,3,8,-2,1,-1,1,-1,0
29.470863,-3,-5,-1,7,-2,0,-2,0,0
29.470868,2,4,-2,-5,2,-2,-1,0,0
29.483922,0,-5,-5,-4,-2,-2,-2,0,0
29.483944,-6,-1,1,-6,1,0,-1,0,0
29.485087,2,1,3,-2,-3,-1,-1,-3,0
29.485105,-4,-5,-7,0,-3,-2,-1,-2,0
29.506133,-4,-2,1,1,0,-1,-1,-5,0
29.506149,-2,1,-3,2,-1,-2,0,-1,0
29.507345,-3,-1,-3,-3,-2,-3,1,-1,0
29.507397,1,-4,-4,-1,0,0,-2,-1,0
29.519652,-1,-6,4,1,0,-3,-2,-2,0
29.519681,-1,5,2,0,-2,-2,-2,-1,0
29.529421,-3,-2,-2,0,1,-1,-1,-1,0
29.529426,-2,-2,-2,-6,-4,0,0,0,0
29.543959,3,-3,0,4,0,-2,-1,-2,0
29.543969,3,3,1,2,0,0,-1,0,0
29.550042,2,1,-1,0,-1,-2,1,-1,0
29.550071,-3,-4,0,-3,-3,-2,0,0,0
29.566115,-6,0,0,-4,1,-1,-1,-2,0
29.566135,4,16,-1,-1,-2,0,-1,0,0
29.568721,-3,-12,1,-2,0,-1,-1,0,0
29.568728,0,-7,4,1,-2,-2,-2,0,0
29.580049,-2,-8,-6,2,-1,0,0,-1,0
29.580080,-4,-2,-4,0,0,0,-1,-1,0
29.588885,-3,2,-4,-3,-1,0,0,-2,0
29.588890,-1,7,0,0,0,-2,0,-1,0
29.604956,-1,-2,7,-1,-3,-2,-3,-2,0
29.604969,0,1,-1,1,-2,0,1,-4,0
29.610306,-1,-1,-6,0,0,0,-1,-3,0
29.610333,-4,-4,-2,-3,-1,0,0,-2,0
29.626398,-1,-3,-7,-2,-1,-1,-1,0,0
29.626429,2,1,2,3,2,-2,0,0,0
29.628062,1,-6,-4,1,0,-2,0,3,0
29.628066,3,13,18,6,1,1,1,-2,0
29.639907,-3,-2,-1,-5,-2,0,-2,2,0
29.640019,-4,-1,-1,-3,-3,-2,-1,-2,0
29.650472,1,-3,-7,0,-1,-2,1,-2,0
29.650477,2,-5,-7,-3,0,-2,-2,-2,0
29.663749,-11,0,0,-3,-2,0,-1,0,0
29.663777,-2,-6,-5,2,-2,0,-1,-3,0
29.666613,-4,10,6,0,-1,0,-2,-1,0
29.666619,1,-10,-6,0,-1,-1,1,0,0
29.686263,3,11,19,0,0,-1,1,-1,0
29.686291,-2,-1,-4,-1,-2,0,0,1,0
29.688352,-1,7,5,0,0,0,-1,-1,0
29.688359,2,1,-1,-5,1,-1,-4,-1,0
29.708827,1,-7,-12,3,-1,-1,2,-1,0
29.708856,1,-6,-1,-3,0,0,-2,0,0
29.711553,-1,2,5,-2,-1,0,0,-1,0
29.711560,-3,-4,-4,0,-1,0,-2,-1,0
29.724092,-4,2,-2,-3,-2,-1,-3,-1,0
29.724121,6,-1,-2,-1,0,-2,0,-1,0
29.727240,0,-5,-1,-1,1,0,-1,1,0
29.727248,-8,-2,-8,-1,-2,0,-1,2,0
29.745779,3,2,4,-6,-2,-1,-1,-3,0
29.745792,-1,0,0,2,1,-2,-3,-1,0
29.747614,-1,-2,-6,-1,0,1,-1,-4,0
29.747630,0,1,3,2,1,0,-1,-2,0
29.768338,4,14,-2,-5,-4,0,-1,1,0
29.768355,-5,-23,-1,2,-1,-2,-2,-1,0
29.771239,1,2,3,-1,-1,-1,0,1,0
29.771247,-6,0,-5,-3,0,-2,-3,-2,0
29.783536,-2,-8,-5,0,2,1,0,-2,0
